"wavelength","measurement"
380,0.066136809738582
381,0.0634108318002896
382,0.0623831887726493
383,0.0614406357113097
384,0.0622819083429372
385,0.0651402641489909
386,0.068066132681927
387,0.0705285819371667
388,0.072868602113132
389,0.0744675815182194
390,0.073607155240499
391,0.0728647834893457
392,0.0721286391604585
393,0.0719225174829158
394,0.0743558504655564
395,0.0784436284186605
396,0.0860220391072859
397,0.0947515550092452
398,0.103481070911205
399,0.112210586813164
400,0.116199878049167
401,0.121838111759391
402,0.124549121241189
403,0.124254136212635
404,0.124083022755419
405,0.122792427167432
406,0.123971585674285
407,0.124251945279046
408,0.124992068998179
409,0.126514568766583
410,0.131294595116886
411,0.131230280152988
412,0.133906012074416
413,0.13563274800192
414,0.134818786610971
415,0.135260706642499
416,0.133802727029772
417,0.132083074109371
418,0.133669062689418
419,0.131072397845323
420,0.133880272840557
421,0.133238970567655
422,0.133894725873887
423,0.13499414869936
424,0.135113861897263
425,0.131860743421057
426,0.129714126504283
427,0.126282618375213
428,0.12273361679316
429,0.122816806789526
430,0.123059188219453
431,0.128364633986733
432,0.133768049126441
433,0.137828734056409
434,0.143481206231502
435,0.146109419405232
436,0.147232946529386
437,0.14951968470857
438,0.151806422887754
439,0.154093161066937
440,0.155241722660298
441,0.157666275251054
442,0.161240414242398
443,0.162525672205729
444,0.165308961564628
445,0.168092250923528
446,0.170875540282428
447,0.173861630274643
448,0.174430151000477
449,0.180641243877773
450,0.179266491933295
451,0.178304772036465
452,0.178040936176464
453,0.177777100316462
454,0.177513264456461
455,0.177571275618306
456,0.178631348990636
457,0.180392349534363
458,0.181867199057473
459,0.184814394500555
460,0.185222249004044
461,0.183220697412748
462,0.188488085017621
463,0.182723700545798
464,0.180926695990896
465,0.179664436292281
466,0.177382899145695
467,0.177595134718183
468,0.176414688634315
469,0.175657674320228
470,0.17944452584559
471,0.179580546159583
472,0.180779704361445
473,0.183163966396871
474,0.184063041006991
475,0.186324851695243
476,0.182737609289868
477,0.182926648793249
478,0.183115688296631
479,0.183304727800013
480,0.182907547292436
481,0.17803148070888
482,0.174204388312116
483,0.173729619483368
484,0.169492939024709
485,0.166507654665229
486,0.168474320336852
487,0.170436862774777
488,0.172669925080724
489,0.177231188645575
490,0.178441214333187
491,0.179513569894601
492,0.18363423335743
493,0.181640618423263
494,0.184652747199491
495,0.181940717725554
496,0.182787058665472
497,0.179477234502282
498,0.180574206063425
499,0.176898290712999
500,0.178289452629659
501,0.177094120843353
502,0.180701547776046
503,0.181534689339012
504,0.179500304241055
505,0.185468828369838
506,0.184612437891269
507,0.185414282864498
508,0.186352279908164
509,0.186115124367717
510,0.183085626301069
511,0.185390801434442
512,0.183990206758983
513,0.178132824048296
514,0.177457393957741
515,0.174470315720435
516,0.173743361501329
517,0.173388712137263
518,0.173527438273628
519,0.177142455662791
520,0.180522172769291
521,0.182267678193551
522,0.184013183617811
523,0.18575868904207
524,0.185215861215516
525,0.185555529683058
526,0.185998605561687
527,0.185429530607933
528,0.186971745712406
529,0.189334315770978
530,0.189256353472586
531,0.189657729559922
532,0.18916415808261
533,0.190808695962928
534,0.191648941618469
535,0.189680872233204
536,0.191496856912618
537,0.190216323001352
538,0.188942711427918
539,0.187797168804663
540,0.189132694177507
541,0.188297318523836
542,0.187255937861699
543,0.188490544686649
544,0.189555181321935
545,0.188329347040901
546,0.190000180900522
547,0.190006388432367
548,0.190012595964213
549,0.190018803496058
550,0.1890711331881
551,0.190481193313678
552,0.192339838822062
553,0.190907472548319
554,0.190218561415911
555,0.192647618370473
556,0.190017770256722
557,0.189851922656238
558,0.189317689989041
559,0.188019730901304
560,0.190855691794505
561,0.187731372251291
562,0.191077651021059
563,0.188671098583601
564,0.1898706504732
565,0.187443560154299
566,0.186701969618375
567,0.185093967733952
568,0.186883992183663
569,0.185041737610563
570,0.185499961460094
571,0.186263808881811
572,0.186582304119602
573,0.186799451303446
574,0.188070855361896
575,0.185960339533889
576,0.186687912564917
577,0.187415485595945
578,0.188143058626973
579,0.188870631658001
580,0.189598204689029
581,0.191545976192809
582,0.190619693890592
583,0.191348918515726
584,0.188200034010462
585,0.187296801952006
586,0.181925515147912
587,0.180143401084446
588,0.17859943027153
589,0.177055459458613
590,0.175511488645696
591,0.176569690788252
592,0.178277675474313
593,0.178608657330244
594,0.181471968349021
595,0.181270863478276
596,0.182738169733008
597,0.183537190684513
598,0.183565132883562
599,0.184310675250986
600,0.185847118260853
601,0.187058978295792
602,0.187895556806632
603,0.187405019693394
604,0.18951107215922
605,0.18836118796419
606,0.188464571144859
607,0.187755510491887
608,0.185498338648142
609,0.185637575733397
610,0.184262367350088
611,0.183513530263392
612,0.181880156262683
613,0.181871796042678
614,0.179701740518765
615,0.182485518382428
616,0.180259261966805
617,0.182055247187169
618,0.18184775080089
619,0.18280054214394
620,0.182255898579405
621,0.183295175812653
622,0.179927832776952
623,0.180208983791774
624,0.179270216930424
625,0.178331450069073
626,0.177392683207723
627,0.177276245971914
628,0.176809433437929
629,0.176484453104545
630,0.17811798772924
631,0.175733800880811
632,0.177199899045043
633,0.178185988530742
634,0.178222369258655
635,0.179552718493557
636,0.177602742885386
637,0.179650656568897
638,0.178787471022174
639,0.179482584273714
640,0.178825644746786
641,0.178369230431366
642,0.177677307145027
643,0.176471349258987
644,0.175265391372947
645,0.174059433486907
646,0.174901756530103
647,0.17518255860595
648,0.172189217058442
649,0.175260903750455
650,0.173670777547352
651,0.175442338461095
652,0.172613405809236
653,0.170290910760081
654,0.167251581641118
655,0.169271962733398
656,0.167436050236883
657,0.170345159184416
658,0.172622736792932
659,0.17642882166713
660,0.177974986108963
661,0.178798183857854
662,0.179479287947564
663,0.178550895820108
664,0.17752850035842
665,0.178339133518982
666,0.178609368684026
667,0.17916200382301
668,0.179278862207635
669,0.176326304337082
670,0.177203533019481
671,0.1770688667502
672,0.176453498001085
673,0.177126355757811
674,0.177601116979575
675,0.177521048887125
676,0.17754026918024
677,0.179005212712404
678,0.176704457607454
679,0.177027575419049
680,0.180698577008057
681,0.177824802784475
682,0.17406255225149
683,0.170093402823415
684,0.164579524941478
685,0.160474827042838
686,0.157265904762717
687,0.154220101016112
688,0.154297914549016
689,0.155211873915416
690,0.157548358492512
691,0.160543436642887
692,0.161207854598742
693,0.162607945063063
694,0.164806665880872
695,0.16509739086825
696,0.167729537229136
697,0.169103327667537
698,0.166828432416241
699,0.167249348008598
700,0.170289151837544
701,0.169584351806766
702,0.172386316339768
703,0.173152949622649
704,0.176317092934283
705,0.176607930865655
706,0.17933578762124
707,0.181628830983422
708,0.181521915597067
709,0.183842604484095
710,0.182634666943269
711,0.182306655457513
712,0.18268912111617
713,0.174860884971013
714,0.170827186541578
715,0.161750460630524
716,0.154327276506547
717,0.149439857855973
718,0.149190779745906
719,0.150689783298132
720,0.153379327716002
721,0.153151834324055
722,0.157204496050204
723,0.155929670374218
724,0.155607943164216
725,0.156333281057142
726,0.155735494443396
727,0.158616928941689
728,0.160979187175615
729,0.165415472329439
730,0.16954425137235
731,0.174922025971239
732,0.180016642638734
733,0.186061148122453
734,0.189365859101959
735,0.190862344339004
736,0.193716407230347
737,0.195300383124642
738,0.196884359018937
739,0.198468334913231
740,0.201693285205985
741,0.202838062761075
742,0.204509677815766
743,0.206181292870457
744,0.207852907925147
745,0.208282917094042
746,0.208306631004378
747,0.209517558840542
748,0.207436832862911
749,0.20871214429508
750,0.208503092832278
751,0.208219473181066
752,0.210805526561594
753,0.209694441896283
754,0.207158036514273
755,0.193158922861844
756,0.179159809209416
757,0.165160695556987
758,0.144388915405376
759,0.125475490983311
760,0.11299406234472
761,0.113328276686021
762,0.119690896651108
763,0.129260966854087
764,0.14250973949793
765,0.155543094317886
766,0.170206117035229
767,0.183877775000908
768,0.191707204252145
769,0.196379919987886
770,0.201332092805526
771,0.20289883080436
772,0.20482950466912
773,0.207594010897761
774,0.206584334552441
775,0.207181181479508
776,0.207744070776711
777,0.205941365746428
778,0.208795784082975
779,0.20662548956993
780,0.209550963773372
