"wavelength","measurement"
380,0.0125154306987629
381,0.0121007749970951
382,0.0117708920997958
383,0.0115496371635892
384,0.011607334227234
385,0.012104564919324
386,0.0125477623261151
387,0.013088414399292
388,0.0136154414591851
389,0.0139370965779702
390,0.0137941903556851
391,0.0136035310656247
392,0.0136087420583711
393,0.013605815740333
394,0.0140251662693355
395,0.0145279257379339
396,0.0159924730770995
397,0.0176123409877005
398,0.0192322088983015
399,0.0208520768089025
400,0.0217077237495156
401,0.0229405782721467
402,0.0235104208554605
403,0.0235980308377708
404,0.0235626340402444
405,0.023455113779355
406,0.0237207231294993
407,0.0237196591815159
408,0.0237581195400061
409,0.0240120768058875
410,0.0249270116650644
411,0.0248871086321702
412,0.0253507785291366
413,0.0257389385735515
414,0.0256390948659606
415,0.0257604725648167
416,0.0255083617721307
417,0.0252217168532167
418,0.0253802764380286
419,0.0249151694542025
420,0.0253969183071349
421,0.0252186459199401
422,0.0253981873191031
423,0.0254515743407683
424,0.0255900764699996
425,0.0250171403725111
426,0.0247710874376648
427,0.0240051004104323
428,0.0232752914433861
429,0.0232179333155982
430,0.0231446152485006
431,0.0240264320461247
432,0.0248407942303223
433,0.0256142272119398
434,0.0266326341214825
435,0.0273034637762144
436,0.0275116893895808
437,0.0279206664965412
438,0.0283296436035016
439,0.028738620710462
440,0.0289012339707779
441,0.0295131154979308
442,0.0300447356745363
443,0.0303634066610219
444,0.0308563476044968
445,0.0313492885479718
446,0.0318422294914468
447,0.0323196033301336
448,0.0325950253041618
449,0.0336793946844024
450,0.0335944732661159
451,0.0333364748345476
452,0.0332847519903278
453,0.0332330291461079
454,0.0331813063018881
455,0.0331897251428872
456,0.0331037530805409
457,0.0336415782443636
458,0.0337274222745327
459,0.0342871011511558
460,0.0343958419880179
461,0.0340499992122845
462,0.0350143314770977
463,0.0340671955702399
464,0.0336377412155427
465,0.0334354941794231
466,0.0329884393526154
467,0.0329120034140211
468,0.0327243305774111
469,0.0323861176331842
470,0.0330884147105259
471,0.0330952547027079
472,0.0333482258556578
473,0.033717967888138
474,0.0339082685650099
475,0.0343849532349751
476,0.033690735218516
477,0.0337089857621933
478,0.0337272363058706
479,0.0337454868495478
480,0.0336844096267583
481,0.0328379309644903
482,0.0322514059902402
483,0.0321201746117453
484,0.0313737404676933
485,0.0306201572671199
486,0.0309264043107776
487,0.0311376714676217
488,0.0315000395039534
489,0.0322863357820358
490,0.0326530516546639
491,0.0328931807680833
492,0.0337515172549678
493,0.033359419482364
494,0.0338890203935867
495,0.0334943861113861
496,0.0336751430908009
497,0.0332414167706873
498,0.0333845640315467
499,0.0327187185476091
500,0.0328978604969156
501,0.0326856157072757
502,0.033300171399622
503,0.0334717555687874
504,0.0331769375399849
505,0.0343895817026466
506,0.0342204583570982
507,0.034394000933411
508,0.0347203426168575
509,0.0347241436088662
510,0.0342351419184742
511,0.0347649952214018
512,0.0345740750586638
513,0.0336416488670489
514,0.0335664871986235
515,0.0330804643003293
516,0.032894515979588
517,0.0328831089253837
518,0.0329240732270458
519,0.0336181896902817
520,0.0343623687929986
521,0.0348473897687007
522,0.0353324107444028
523,0.0358174317201049
524,0.0357787769536392
525,0.0360212411953226
526,0.0361963079245378
527,0.0360750229169382
528,0.0364328094822784
529,0.0370653569627751
530,0.0371178778428005
531,0.0372370589487431
532,0.0373013731385698
533,0.037677591471922
534,0.0378782021219056
535,0.0375512777094766
536,0.0378958683725256
537,0.0377658262941582
538,0.0374966320659177
539,0.0374249705069424
540,0.0375761538923484
541,0.0373474399830849
542,0.0372438995341299
543,0.0375044990552567
544,0.0378037304221319
545,0.0375885128317434
546,0.0379088232268025
547,0.0379508227206026
548,0.0379928222144028
549,0.038034821708203
550,0.0378037679677049
551,0.0382262617068728
552,0.038539326542577
553,0.0382412284866023
554,0.0381266485072207
555,0.0385519552378847
556,0.038089503314225
557,0.0380084674385852
558,0.0378655437321049
559,0.0375732047981733
560,0.0380061066626455
561,0.0374308018866215
562,0.0381061169621849
563,0.0375529788757671
564,0.0377679672922627
565,0.0372623353882909
566,0.0370837031972004
567,0.0367222426237871
568,0.0369500354936813
569,0.0364778355102944
570,0.0365014382383908
571,0.0366343887719096
572,0.0366210976039592
573,0.0365775297019202
574,0.036846628391178
575,0.036448250153818
576,0.0365201121034054
577,0.0365919740529928
578,0.0366638360025802
579,0.0367356979521676
580,0.036807559901755
581,0.0372843572122927
582,0.0370784758123322
583,0.0371944577619924
584,0.0366662667395431
585,0.0364758366791123
586,0.0354372906230825
587,0.0350013426019897
588,0.034644429586391
589,0.0342875165707923
590,0.0339306035551936
591,0.0340487339345147
592,0.0344088145857257
593,0.0344130530412442
594,0.0349544415978586
595,0.0348859523191776
596,0.0351600039273313
597,0.0353356739336588
598,0.0354045141340887
599,0.0354749800521444
600,0.0358543444031912
601,0.0360436553825911
602,0.0362297501152545
603,0.0360862642335176
604,0.0364620107110848
605,0.0362983229569675
606,0.0362822855385906
607,0.0361658193194951
608,0.0357099890732647
609,0.0356766896262476
610,0.0354060770942469
611,0.0352447316263197
612,0.0349483447542945
613,0.0347751927797874
614,0.0344229284090689
615,0.0348393768740973
616,0.0344437390322004
617,0.0347397956621736
618,0.0347283107393109
619,0.0348957781519086
620,0.0347536012487869
621,0.0350152567937395
622,0.0343838967169854
623,0.0344114183146136
624,0.0342103792053033
625,0.034009340095993
626,0.0338083009866828
627,0.0337823328068854
628,0.0337312849944092
629,0.0335924712292522
630,0.0339051063026623
631,0.0335031213965252
632,0.0336663204920665
633,0.0339308235316538
634,0.0339467715102606
635,0.0341657648728961
636,0.0338204122566242
637,0.0342036408134654
638,0.0338993907817812
639,0.0340888834407352
640,0.0339413369233986
641,0.0338623004990331
642,0.0336427669606129
643,0.0334221606093593
644,0.0332015542581056
645,0.032980947906852
646,0.0330285647735655
647,0.0330016667236229
648,0.0323839574723238
649,0.0329771295140931
650,0.0326497869182961
651,0.032999173898182
652,0.0326134425913831
653,0.0320333112334682
654,0.0314636431581475
655,0.0317901306750657
656,0.0314950024788176
657,0.0317991601416848
658,0.0322354251668677
659,0.0330251580028684
660,0.0333254306117823
661,0.0334681903655382
662,0.0336246872533732
663,0.0334556290357786
664,0.0332449536665134
665,0.0333638541521388
666,0.0333746078830087
667,0.033555903177757
668,0.0336301965902973
669,0.0329992231859437
670,0.0331458341045671
671,0.0330957904271954
672,0.0329670760489432
673,0.033107911032259
674,0.0331428971333081
675,0.03309427698268
676,0.0330913373936477
677,0.0334250637779917
678,0.0330799481689966
679,0.0329996878664421
680,0.0338608409600292
681,0.0332926891894957
682,0.0327067400446174
683,0.0320927284492804
684,0.0311002325415119
685,0.0303807965851324
686,0.0298619195141933
687,0.0292675789068489
688,0.02908637300686
689,0.0293566755986504
690,0.0298931507006193
691,0.0306257820706323
692,0.0309036090316339
693,0.0312662546301175
694,0.0319655639893561
695,0.0322483320571394
696,0.033012210285121
697,0.033453365380374
698,0.0332639974856528
699,0.0336665300667008
700,0.0345126648555173
701,0.0345879660628974
702,0.0355461099290584
703,0.0360056610900323
704,0.0370250183315758
705,0.0373963207440776
706,0.0383677561842662
707,0.0391425138345921
708,0.0396169958773747
709,0.0405395715109741
710,0.0406079960011046
711,0.0409890661944859
712,0.0416600294888755
713,0.0404446543032284
714,0.0399660291166725
715,0.0383872996904666
716,0.0369811506592489
717,0.0362357028141004
718,0.0362982553365735
719,0.0370626733547919
720,0.0379538616706082
721,0.0381403840818882
722,0.0398242865846357
723,0.0400781820435558
724,0.0404031570585582
725,0.0411623532543245
726,0.041345450753243
727,0.0425881337378526
728,0.0435522747883322
729,0.0451459883148674
730,0.0466768437728252
731,0.0486781484909563
732,0.0506898447961978
733,0.0526835039014796
734,0.0543477533193771
735,0.0554575436172472
736,0.0567884849861334
737,0.0576590007136251
738,0.0585295164411167
739,0.0594000321686083
740,0.0609963315282706
741,0.0617982415462489
742,0.0626716315872126
743,0.0635450216281764
744,0.0644184116691402
745,0.064993670285208
746,0.0654247614763366
747,0.0661018681457398
748,0.0657087497649033
749,0.0664301548224523
750,0.0665708855182561
751,0.0665198332622101
752,0.0676931181858784
753,0.0674445271963785
754,0.0670600460732708
755,0.0630564922634962
756,0.0590529384537216
757,0.055049384643947
758,0.0484787443294498
759,0.0425436910159975
760,0.0383047598384062
761,0.0375157127568841
762,0.038948496359875
763,0.0418292756092374
764,0.0459301346025722
765,0.0499422650728955
766,0.0549741983887081
767,0.0598376009683798
768,0.0626215694811782
769,0.0646539869522976
770,0.0663942358251311
771,0.0672501267813253
772,0.0679323209754495
773,0.0690407747169109
774,0.0686970684446739
775,0.0689612824723241
776,0.0692732361493407
777,0.0685741480628189
778,0.069446438916912
779,0.0687948614345754
780,0.0699444669779118
