"wavelength","measurement"
380,0.00649993724036465
381,0.00622082082670999
382,0.00610015562018221
383,0.00602469931561781
384,0.00600974959387911
385,0.00630480323767698
386,0.00659684835638939
387,0.0068566734340691
388,0.00708670884235215
389,0.00731993923629856
390,0.00729285699035848
391,0.00717708163260955
392,0.00720049709051774
393,0.00713598481793052
394,0.00736481938649424
395,0.00787979693434575
396,0.00863547413209615
397,0.00954705779352312
398,0.0104586414549501
399,0.0113702251163771
400,0.0118751232288712
401,0.0125139896910295
402,0.0128628658670536
403,0.0129916664078117
404,0.0130515499853876
405,0.0129752789154497
406,0.0131753888480155
407,0.0133466203078512
408,0.0133118619648864
409,0.0135817179506123
410,0.0141717928180819
411,0.0141816524868632
412,0.0145688116209035
413,0.0147792795025131
414,0.0147192700023452
415,0.0148334038665
416,0.0146901706659396
417,0.0145344008526543
418,0.0147840925321724
419,0.0143889768753841
420,0.0147699350303666
421,0.0147423588686354
422,0.0148187367354729
423,0.0149250521211606
424,0.0148817776756209
425,0.0146019102558582
426,0.0143973602186695
427,0.0139746632089599
428,0.0135158147277066
429,0.0134949315232302
430,0.0135413866142295
431,0.0141115460788518
432,0.0146392561449938
433,0.0151599591503382
434,0.0157128400740728
435,0.0160685560993194
436,0.0161228804173967
437,0.0163624168869434
438,0.0166019533564901
439,0.0168414898260368
440,0.0169293405473106
441,0.0171541164771639
442,0.0175686991599994
443,0.0176763061270455
444,0.017980807981051
445,0.0182853098350565
446,0.0185898116890621
447,0.0187828322726936
448,0.018822423779371
449,0.0195393737589283
450,0.0193608010931373
451,0.0191879248584771
452,0.0191093048785009
453,0.0190306848985248
454,0.0189520649185486
455,0.0189204348494596
456,0.0189454175646944
457,0.0191557971832373
458,0.0192140004957289
459,0.019504466721195
460,0.0194223232567693
461,0.0192124233124139
462,0.0196775153083535
463,0.0190761446065918
464,0.0187603368892883
465,0.0186806337752835
466,0.018340031234143
467,0.0183472090825983
468,0.0181794203546627
469,0.0179132585136968
470,0.0183815354384176
471,0.0183499964116056
472,0.0183761144132575
473,0.0185537700345546
474,0.018509216439107
475,0.0187950665091699
476,0.0183689054457239
477,0.0183446022863154
478,0.0183202991269068
479,0.0182959959674983
480,0.0182259364981068
481,0.0177656604768135
482,0.0173861271234341
483,0.0173617227897362
484,0.0168871575044606
485,0.0165315063426161
486,0.016812874313574
487,0.0168805522549548
488,0.0170774203417019
489,0.017574468765425
490,0.0176511044085529
491,0.01782812555441
492,0.0181888058601713
493,0.0179197424233212
494,0.0182010918584963
495,0.0179550354623491
496,0.0180097319992827
497,0.017644254297644
498,0.0177778575225584
499,0.0173331553933519
500,0.0174761814592926
501,0.0173227194033795
502,0.0176394402261177
503,0.0178231027803002
504,0.0176144372753851
505,0.0181802809232517
506,0.0180777061221413
507,0.0181812710607497
508,0.0182703827431014
509,0.0182079619313591
510,0.0179959025153174
511,0.0182786417664502
512,0.0180586786527004
513,0.0174976704384299
514,0.0174693303726403
515,0.0171835448565715
516,0.0171268345267862
517,0.0171062319056434
518,0.0171013175577351
519,0.0174615022255747
520,0.0178484472244061
521,0.0180618231911524
522,0.0182751991578986
523,0.0184885751246449
524,0.0183366103312429
525,0.018440944311415
526,0.018466981604647
527,0.0184346282708427
528,0.0185219388338256
529,0.0188206137059432
530,0.0187907211737578
531,0.018810622037597
532,0.0187927601524388
533,0.018995003261155
534,0.0190575139056782
535,0.0188580231320726
536,0.0191131628158371
537,0.0189090596697321
538,0.0188075481398434
539,0.0187057272752867
540,0.0188514809150661
541,0.0187046169282432
542,0.0185929901900145
543,0.0187797319743326
544,0.01876737971352
545,0.0186433607295244
546,0.0187862405165736
547,0.0187883713988925
548,0.0187905022812114
549,0.0187926331635303
550,0.0186744886638288
551,0.0188239760018788
552,0.018951965931931
553,0.0187398775544151
554,0.0187057210000187
555,0.0188865777240968
556,0.0185924511147577
557,0.0185924563497028
558,0.0184632547270942
559,0.0183053126626703
560,0.0185484478303561
561,0.0181962100069045
562,0.0184948120499253
563,0.0182021653515963
564,0.0182900485549856
565,0.0179917273791982
566,0.0178646925413658
567,0.0176076920411306
568,0.0177699157624755
569,0.0175250314583761
570,0.0175293452480678
571,0.0174931887608536
572,0.0174883449328291
573,0.0174874710331919
574,0.0175454549380081
575,0.0173613604779519
576,0.0174067013215752
577,0.0174520421651985
578,0.0174973830088218
579,0.0175427238524451
580,0.0175880646960684
581,0.0178265554745157
582,0.0177481863669306
583,0.0178448345336237
584,0.0175659633999495
585,0.0174429102637286
586,0.0169920167162502
587,0.0167177755430826
588,0.0165439326125697
589,0.0163700896820568
590,0.016196246751544
591,0.0162632197746548
592,0.0164442249610149
593,0.0164347674408195
594,0.0166768379253354
595,0.0167185271723104
596,0.0167832470339061
597,0.0168849902213041
598,0.0168755205091067
599,0.0169331423077942
600,0.0170572543986602
601,0.0171774100657996
602,0.0172865937047326
603,0.0172011601548172
604,0.0173523798779088
605,0.0173118690039426
606,0.0172461303258746
607,0.0171915811094539
608,0.0170127247944706
609,0.0169459904787762
610,0.0168243288440127
611,0.0167281780912498
612,0.0165966640296538
613,0.0164706762452794
614,0.016332817859304
615,0.0164757166385601
616,0.0163239045475666
617,0.0164528317215485
618,0.0164235145646168
619,0.0164631741664829
620,0.0163803931607561
621,0.0164913623399183
622,0.0160743390174602
623,0.0161431412984052
624,0.0160049054290207
625,0.0158666695596361
626,0.0157284336902515
627,0.0156744940023646
628,0.015597432317352
629,0.015599028227147
630,0.0157676200929377
631,0.0155680529188371
632,0.0156720709990668
633,0.0157843130914228
634,0.015819842098417
635,0.0158975723501852
636,0.0157528279733285
637,0.0159085434128039
638,0.0158277653802916
639,0.0159191733448915
640,0.0158226589890564
641,0.0157644327056822
642,0.0156529837996143
643,0.0155284326438962
644,0.0154038814881781
645,0.01527933033246
646,0.0153269944534646
647,0.0153051464786721
648,0.0150421506594534
649,0.0153117933789117
650,0.0151433113784804
651,0.0152891595408236
652,0.0150692657311247
653,0.014834610287642
654,0.0145560155069475
655,0.0147107307790217
656,0.0146534960931122
657,0.0147602876528614
658,0.0149548871158703
659,0.0152879801229169
660,0.0154361023731991
661,0.015512665240404
662,0.0155222245577092
663,0.0154301089563112
664,0.0153024839197685
665,0.0154294339608097
666,0.01538526717978
667,0.0154021369602742
668,0.015489367855897
669,0.015122428379999
670,0.0152265109610721
671,0.0151412455258075
672,0.015138704879943
673,0.0151527715956601
674,0.0152606124467411
675,0.0152290978183621
676,0.0151598780050885
677,0.0153553710335187
678,0.0151371123253105
679,0.0151101287418892
680,0.0154354190956459
681,0.0151681643224688
682,0.0148716040416957
683,0.0145025857806552
684,0.0138867114338507
685,0.0134696006958387
686,0.0130961982305888
687,0.0128547308931284
688,0.0128693598491785
689,0.0129696450794402
690,0.0132879530622565
691,0.0136450773695124
692,0.013757441285266
693,0.0141717483765688
694,0.0144494593105797
695,0.0145039824596002
696,0.0149215945725857
697,0.0149961913346007
698,0.0149238330449897
699,0.0150922671239795
700,0.0154867625210808
701,0.0155455179198448
702,0.0159696063748379
703,0.0160866842063081
704,0.0165147227943839
705,0.0165950494435649
706,0.0171132092860673
707,0.0174135154566562
708,0.0175433241361761
709,0.0178734195833116
710,0.0178224824792716
711,0.0180136746090095
712,0.0180863891620731
713,0.0174648835357673
714,0.0171739287156882
715,0.0164584990533804
716,0.0157915617465305
717,0.0154597533045514
718,0.0155193009502882
719,0.0157445896562434
720,0.0160816249752582
721,0.0161194335873148
722,0.016756166228695
723,0.016767236089868
724,0.0168850992699078
725,0.0171034775173684
726,0.0171898627146246
727,0.0176777969792341
728,0.0181048108722055
729,0.0187964260342678
730,0.0193439516791647
731,0.0202005668074739
732,0.0208667773786786
733,0.0216661690087022
734,0.0222012743552994
735,0.0226103695745843
736,0.0230603917628023
737,0.0233688394279735
738,0.0236772870931447
739,0.0239857347583158
740,0.0245642443213244
741,0.0248225448211897
742,0.0250960626028091
743,0.0253695803844285
744,0.025643098166048
745,0.0257648207397613
746,0.0258913089888326
747,0.0260783764173328
748,0.0257954314796815
749,0.0261010287447668
750,0.0261774572438432
751,0.026069728292074
752,0.02648688533805
753,0.0262927771438891
754,0.0258689989225884
755,0.0239429943414923
756,0.0220169897603962
757,0.0200909851793
758,0.0171276066856302
759,0.0144792468236047
760,0.0129943823583211
761,0.0127140564069034
762,0.0133309336247181
763,0.0147843731065482
764,0.0166737307061846
765,0.0184729468280171
766,0.0206372774716292
767,0.0227300905104636
768,0.0238667150442448
769,0.0247857019900687
770,0.0253834907763385
771,0.0257244876912236
772,0.026035200678981
773,0.0265437258945962
774,0.0263233250122774
775,0.0264295614804767
776,0.0265735419327981
777,0.0262667306865206
778,0.0265799092387454
779,0.0263206201491389
780,0.0266584348600727
