"wavelength","measurement"
380,0.00121115704461184
381,0.00120707829659265
382,0.00118297956914799
383,0.00116374946792009
384,0.00122992077317569
385,0.00133210843713829
386,0.0014342920614896
387,0.00148904815683427
388,0.0016940072263377
389,0.0016736397210517
390,0.00168074453366377
391,0.00173734210917432
392,0.00175103081617161
393,0.00185095863659956
394,0.00198632136557159
395,0.00202651115160145
396,0.00231324277890414
397,0.00259804573306336
398,0.00288284868722257
399,0.00316765164138178
400,0.00334861715710728
401,0.00361212655853987
402,0.00380761167593377
403,0.00395643061802776
404,0.00405714708708535
405,0.00414972384471702
406,0.00422177691074699
407,0.00434622028368028
408,0.00446341047232112
409,0.00459505876825894
410,0.0048864472022887
411,0.00493903543914375
412,0.0051609819778223
413,0.00532231596535278
414,0.0053861477563896
415,0.00547183872794354
416,0.00551348138814583
417,0.00549463313167155
418,0.00560367756677625
419,0.00550479291748833
420,0.00576239437258162
421,0.00576313433229944
422,0.00584890851793297
423,0.00593871098926905
424,0.0059560350699938
425,0.00591742917936351
426,0.00593218243985029
427,0.00582020103259485
428,0.00558072456045501
429,0.00569113222033681
430,0.00569169566149855
431,0.00593855140024483
432,0.00629958565870376
433,0.00650024546869044
434,0.0068831044857069
435,0.00704738584591625
436,0.00714319865103741
437,0.0072459751401399
438,0.00734875162924239
439,0.00745152811834488
440,0.00750359207839473
441,0.00771796996685539
442,0.00793980170607481
443,0.00803604308818186
444,0.00820624571607894
445,0.00837644834397603
446,0.00854665097187311
447,0.00874132720400208
448,0.00882743658470786
449,0.00919174613084386
450,0.0091813982909453
451,0.00910570377912495
452,0.00913006221205278
453,0.00915442064498061
454,0.00917877907790845
455,0.00923301072692491
456,0.00915987137288047
457,0.0093909729709862
458,0.00946871268169514
459,0.0096472062838288
460,0.00970812360146558
461,0.00960023984805962
462,0.00992820924113084
463,0.00962595886787071
464,0.00960111268067711
465,0.00956409257132079
466,0.00944511432963847
467,0.00942108847902319
468,0.00940518085786892
469,0.00931215462055201
470,0.00954936551124833
471,0.00956251823215762
472,0.00965111166899917
473,0.00977670660384249
474,0.00982143535890665
475,0.00996395447673909
476,0.00981803673765472
477,0.00983067452204237
478,0.00984331230643003
479,0.00985595009081768
480,0.00992439645573773
481,0.00968374713843026
482,0.00957834443170617
483,0.00961831879507285
484,0.00943349939652214
485,0.00924831065767991
486,0.00943193848627041
487,0.00956603557312571
488,0.0096456780773689
489,0.00990809990832014
490,0.0100002944052876
491,0.0100879692257645
492,0.0103281255395453
493,0.0102133807062045
494,0.0103699157194749
495,0.0102563047051839
496,0.010302125868952
497,0.0101047093258387
498,0.0102121915769764
499,0.00995450080017126
500,0.0100325894222493
501,0.00994271007164224
502,0.0101293998804252
503,0.0101932133396877
504,0.0101375622100147
505,0.0105157527006049
506,0.0104799248060571
507,0.0105580951716779
508,0.0106369337571565
509,0.0106470990220615
510,0.0104983252450332
511,0.0107308617839387
512,0.0106633118176823
513,0.0104187122142007
514,0.0103545617305718
515,0.0102463370967722
516,0.01021918822395
517,0.0101815585700427
518,0.0101766314827406
519,0.0103967335725185
520,0.0106485377146779
521,0.0108098213997082
522,0.0109711050847384
523,0.0111323887697686
524,0.0110906159377235
525,0.0111700223713703
526,0.0112232946055292
527,0.0111751859315639
528,0.0112776943842321
529,0.0114622428208774
530,0.0115020841696962
531,0.0115364002100161
532,0.0115412340567131
533,0.0116860013596098
534,0.0117337118783254
535,0.0116855331116283
536,0.0118519261474051
537,0.0118826865054849
538,0.0119353470445242
539,0.0120638448215713
540,0.0123666691253147
541,0.0125676879151528
542,0.0127418525328883
543,0.012973430340903
544,0.013081607005894
545,0.012887498457215
546,0.0128382826934726
547,0.0126223886462571
548,0.0124064945990416
549,0.0121906005518262
550,0.0120214574139627
551,0.0120428925269985
552,0.0120506741134079
553,0.0119137519301203
554,0.0118353664352206
555,0.0119183077362735
556,0.0117348419879229
557,0.0117377324750778
558,0.0116086508019088
559,0.0115588624021535
560,0.0116375773531194
561,0.0114693734980972
562,0.0116385398983086
563,0.0114943992780091
564,0.0115272032746386
565,0.0113445022035889
566,0.0113121092956219
567,0.0111618868031043
568,0.0112292313387535
569,0.0110706085880319
570,0.0111002199396511
571,0.0110725211051981
572,0.0111033222620781
573,0.0110831044503744
574,0.0111699343944515
575,0.0110577821166967
576,0.0111035928352981
577,0.0111494035538995
578,0.0111952142725009
579,0.0112410249911023
580,0.0112868357097037
581,0.0113823948284456
582,0.0113533078495336
583,0.0114444031355568
584,0.0112648761134249
585,0.0112658675754379
586,0.010972677661389
587,0.0108099010259909
588,0.0106740422441413
589,0.0105381834622917
590,0.0104023246804421
591,0.0104074586691755
592,0.010475114336991
593,0.0104614307266605
594,0.0105813893068488
595,0.010549149654835
596,0.0105669650913351
597,0.0105927198103499
598,0.0105804827622211
599,0.010599042972054
600,0.010631328930474
601,0.0106686689398615
602,0.0107348792704522
603,0.0106693277796985
604,0.0107265866005574
605,0.0106912683063316
606,0.0107753640514117
607,0.0108835335099223
608,0.0109623968210161
609,0.0111089252177597
610,0.0111967687977067
611,0.0112248243698513
612,0.0110443199812422
613,0.0108589328996979
614,0.0105737922724274
615,0.010458400757711
616,0.0102762228583421
617,0.0102902937224055
618,0.0102155551442356
619,0.0102427397583932
620,0.010134316256409
621,0.0102190420513246
622,0.00995809420875486
623,0.00995202167595034
624,0.00982856022495334
625,0.00970509877395635
626,0.00958163732295935
627,0.00957932225011985
628,0.0095137695306345
629,0.00947738242977232
630,0.00956364110776763
631,0.00941267870385142
632,0.0093979502033136
633,0.00941359057405109
634,0.00937761315881326
635,0.00940720926367322
636,0.00930388225035301
637,0.00937989240861565
638,0.00928753926015923
639,0.00930924668770938
640,0.00926454911477064
641,0.00916134028195806
642,0.00911164100208275
643,0.00903749196000655
644,0.00896334291793035
645,0.00888919387585414
646,0.00888758852112128
647,0.00886321295711322
648,0.00871894729539036
649,0.00882145048049675
650,0.00870336880017168
651,0.00876032690044876
652,0.00860494288407367
653,0.00841942976034714
654,0.00825241355607511
655,0.00826390073639861
656,0.00821491676919554
657,0.00824988181905959
658,0.00835260801423985
659,0.00850083903181806
660,0.00853738943312213
661,0.00857071519141118
662,0.00855936614759156
663,0.00848302726683217
664,0.00840843619178166
665,0.00839700628361005
666,0.00839351083045517
667,0.00839168074040696
668,0.00837514981762102
669,0.0081863942899371
670,0.00823604844090716
671,0.00815348998134962
672,0.00811348058694504
673,0.00809346407365769
674,0.00812172715464885
675,0.00808189091644623
676,0.00805114625139444
677,0.00808857813568797
678,0.00796919206463098
679,0.00794491253844394
680,0.00809407029207214
681,0.00793113896386633
682,0.00776288025894067
683,0.00759654575699069
684,0.00730579453393971
685,0.00711991666910154
686,0.00690822511130702
687,0.0067885152894824
688,0.00672033338368093
689,0.00678457912961141
690,0.00696956525503033
691,0.00714081204219489
692,0.00725348140214588
693,0.00731288194298705
694,0.0075297129954593
695,0.00756762963009072
696,0.00771933397028065
697,0.00780069068303067
698,0.00772797353279244
699,0.00781478434003481
700,0.00798440408964581
701,0.00796329016308442
702,0.00817971217948536
703,0.0082346689318249
704,0.00843924095070092
705,0.00852567788653302
706,0.0086348793277403
707,0.00880174315170111
708,0.00883657429364276
709,0.00898387691300813
710,0.00892860456157108
711,0.0089478164799471
712,0.00900109988397505
713,0.00871004401837021
714,0.00850783225061575
715,0.00813076040989578
716,0.00779474866848579
717,0.00755952172789923
718,0.00751995330508492
719,0.00755113566180148
720,0.00766862649595108
721,0.00760536788443472
722,0.00785288356202164
723,0.00783227957792247
724,0.00780659248100139
725,0.00785433752164158
726,0.00782339356160533
727,0.00796558254468162
728,0.0080537811451872
729,0.00823388951844249
730,0.00838385697819154
731,0.00868981199288144
732,0.00890398019159228
733,0.0091385942056021
734,0.00933988992084621
735,0.00933275515087901
736,0.0094558670504084
737,0.00949318547588631
738,0.00953050390136422
739,0.00956782232684213
740,0.00971665021790934
741,0.00974905250261632
742,0.00978586011675652
743,0.00982266773089672
744,0.00985947534503692
745,0.0098706376627919
746,0.00988140830546489
747,0.0098415374200925
748,0.00969908944638068
749,0.00976673449803805
750,0.00973737647044689
751,0.00965901547561611
752,0.0096850277938217
753,0.00949508634890943
754,0.00946574778509864
755,0.00881346815460954
756,0.00816118852412044
757,0.00750890889363134
758,0.00642432446488245
759,0.00549252394969121
760,0.0048674457873659
761,0.00470668186809561
762,0.00481987724092002
763,0.00521702343554717
764,0.00579554479825331
765,0.00638591924968866
766,0.00707410559025726
767,0.00773130456825026
768,0.00814296504167274
769,0.00832574731802465
770,0.00861861244335888
771,0.00867287575835875
772,0.00871025066177223
773,0.00886101481312308
774,0.00876128051472715
775,0.0087376835282635
776,0.00883131526439139
777,0.00861118985405681
778,0.00872753248341681
779,0.00858282968493773
780,0.00866021538181131
