"wavelength","measurement"
380,0.00160497519066424
381,0.00159972017187517
382,0.00162797209644636
383,0.00165180831596153
384,0.00167597309931434
385,0.00181857198928377
386,0.00195799169051593
387,0.00203701037293189
388,0.00225384906906386
389,0.00230988001305034
390,0.00230860381873837
391,0.0023362753885288
392,0.00237586009985166
393,0.00245266614952098
394,0.00259194407150223
395,0.0027123825366147
396,0.00306438101562568
397,0.00344553209502378
398,0.00382668317442188
399,0.00420783425381998
400,0.00439841213137049
401,0.0047160636441143
402,0.00493126752725626
403,0.00497112686428848
404,0.00510682344338544
405,0.00518790129820464
406,0.00531876696043208
407,0.00541654457103995
408,0.00551311668726309
409,0.00564872852767935
410,0.0059573263176107
411,0.00605935425077818
412,0.00626361084239185
413,0.00643283764539894
414,0.00647390296322777
415,0.00655410494377889
416,0.00652657083859527
417,0.00655206512079945
418,0.00666578574036136
419,0.00655402036294935
420,0.0067481319803745
421,0.0067603376348495
422,0.00685601139206624
423,0.00694391682705423
424,0.00697370828388138
425,0.00694898272958459
426,0.00686529610994352
427,0.00673091514612417
428,0.00650174409791329
429,0.00652158317902346
430,0.00660836513933009
431,0.00688077716114411
432,0.00718232811105392
433,0.00746097116431361
434,0.00782378487748706
435,0.00800372221057916
436,0.00810043456496972
437,0.00824934670462949
438,0.00839825884428927
439,0.00854717098394904
440,0.00859896443027333
441,0.00880903911773385
442,0.0090460808784557
443,0.00917980712208677
444,0.00936962041490352
445,0.00955943370772027
446,0.00974924700053702
447,0.00994726522432216
448,0.0100549192647336
449,0.010463159305834
450,0.010466069135594
451,0.0104163537679359
452,0.010423398580537
453,0.010430443393138
454,0.0104374882057391
455,0.010486781966475
456,0.0104783335648567
457,0.0106831853493283
458,0.0107772381223728
459,0.0109591096213322
460,0.0110002844707122
461,0.0109171089341402
462,0.0112943062595858
463,0.0109498730443374
464,0.0108983963074321
465,0.0108208241957059
466,0.0106895633837412
467,0.0106977057241287
468,0.0106235382626037
469,0.0105403400139673
470,0.0108267073858598
471,0.0108328180584359
472,0.0109208267851503
473,0.0110706984551177
474,0.011137355171894
475,0.0113151871542156
476,0.0111229594910188
477,0.0111447843825187
478,0.0111666092740186
479,0.0111884341655185
480,0.0111895218111622
481,0.0109149122983442
482,0.0107543509724543
483,0.0107798191497065
484,0.0105579167278844
485,0.0103642582721244
486,0.0105073428539452
487,0.0106276822552813
488,0.0107503645998596
489,0.0110419073070145
490,0.0111709340239281
491,0.0112622125056074
492,0.0115477239005251
493,0.011443919639888
494,0.0116309630934881
495,0.0114759420195869
496,0.011535867118257
497,0.0113789638211866
498,0.0114281632151107
499,0.0112447394331614
500,0.0113056988056242
501,0.0112080852674483
502,0.0114545911728613
503,0.0115062398904113
504,0.0114320966455021
505,0.0118350381244171
506,0.0118328998022071
507,0.0119146343276225
508,0.0120117771590929
509,0.0120295914419981
510,0.0118835419588361
511,0.0121229156136069
512,0.0120356091063431
513,0.011756389864701
514,0.0117280149286912
515,0.0115603753685071
516,0.0115312221615925
517,0.0115724988084822
518,0.0115758863640826
519,0.011814045978755
520,0.0121105098794832
521,0.0122979998526048
522,0.0124854898257264
523,0.0126729797988479
524,0.0126160724622689
525,0.0127123204683813
526,0.0127688696271459
527,0.0127396909480914
528,0.0128484848545125
529,0.013061143378654
530,0.0131106475164896
531,0.0131439727068134
532,0.0131405990213431
533,0.0133159206292693
534,0.013398684679226
535,0.0132706592293481
536,0.0134516141343679
537,0.0134290319440774
538,0.0134220269343
539,0.0134510078476724
540,0.0136608704970379
541,0.013708370982919
542,0.0137780727939346
543,0.0139532566661073
544,0.0140476303269836
545,0.0138876729515263
546,0.0139206675663701
547,0.0138165642822925
548,0.0137124609982149
549,0.0136083577141372
550,0.0134783328169855
551,0.0135636032908731
552,0.0136136106180442
553,0.0134903045146387
554,0.013422563432453
555,0.0135346311346232
556,0.0133616607790592
557,0.0133127719540914
558,0.0132242799728868
559,0.0131055851377137
560,0.0132895011599366
561,0.0130433861975522
562,0.0132706896133448
563,0.0130628010853587
564,0.0131176256479376
565,0.0128970592180325
566,0.0128438939147514
567,0.0126860402053719
568,0.0127493593776541
569,0.0125796216364749
570,0.0125587813685448
571,0.0125627495211119
572,0.0125535349369217
573,0.0125308576673434
574,0.0126010410129948
575,0.0124510851605247
576,0.0124888021185216
577,0.0125265190765185
578,0.0125642360345154
579,0.0126019529925123
580,0.0126396699505092
581,0.0127758421936898
582,0.012706786924763
583,0.0127684874352176
584,0.0125748578754565
585,0.0125224263046697
586,0.0121857635548653
587,0.0120073266011976
588,0.0118602832114559
589,0.0117132398217142
590,0.0115661964319725
591,0.0115950525304862
592,0.0116638852807489
593,0.0116854814006306
594,0.0118188559487732
595,0.0117844797866591
596,0.0118441807739385
597,0.0118673432184097
598,0.0118680656065747
599,0.0118867723668464
600,0.0119492927981504
601,0.0120251351643435
602,0.0120526372176801
603,0.011973557273259
604,0.0120471592685089
605,0.0119805475275192
606,0.0120218327994732
607,0.012062387208521
608,0.0119975080391654
609,0.0120836530351773
610,0.0120663035590794
611,0.0120060741712184
612,0.0118678136530017
613,0.0117178440864367
614,0.0114802242890038
615,0.0114876209031695
616,0.0113206784605967
617,0.011385186669704
618,0.0113197434340818
619,0.0113326470986842
620,0.0112585869082063
621,0.0113293053178254
622,0.0110587685352969
623,0.0110532228068603
624,0.0109245084580067
625,0.010795794109153
626,0.0106670797602994
627,0.0106420132917157
628,0.0105979605090638
629,0.010553185310017
630,0.0106442948906131
631,0.0104723788371308
632,0.010518566614154
633,0.0105542931559453
634,0.0105477842711346
635,0.0105476308396929
636,0.0104499983814887
637,0.0105174173064449
638,0.0104127668180354
639,0.0104294757314956
640,0.0103544850200413
641,0.0103067470365781
642,0.0102255128135016
643,0.0101293929462461
644,0.0100332730789906
645,0.0099371532117351
646,0.009927174219568
647,0.00988127249743744
648,0.0096620368899546
649,0.00984378289828763
650,0.00969425315316109
651,0.0097446559394038
652,0.00961459368221755
653,0.00941658991235535
654,0.00921771558651095
655,0.00925554680167317
656,0.00916910398420305
657,0.00919618373916752
658,0.00928584267824413
659,0.00950756782734621
660,0.00954274653101674
661,0.0095728602563768
662,0.0095587822097154
663,0.00945660140686473
664,0.00937430717574927
665,0.00938707769868498
666,0.00935315968008971
667,0.00934550422166333
668,0.0093298841818473
669,0.00912648030592083
670,0.00915085748995515
671,0.00905702291763332
672,0.00903694757376082
673,0.00902819696414392
674,0.00903872319764799
675,0.00900159311289364
676,0.0089497558272465
677,0.00900712534397861
678,0.00889831258872865
679,0.00881865001652488
680,0.00905799051528103
681,0.00885850915316952
682,0.00866383011262162
683,0.00847867494823613
684,0.00815910175460536
685,0.00789595032554626
686,0.00769682835113216
687,0.00755925457921344
688,0.00747483645465358
689,0.00759229664153068
690,0.00778000391508388
691,0.00804801499656017
692,0.00814494871474285
693,0.00828207898420653
694,0.00851516538720476
695,0.00856134215471563
696,0.0088058481778313
697,0.00890545428257046
698,0.00885681024458228
699,0.00898176839533539
700,0.00918769632868321
701,0.00920336785421415
702,0.00943084984062202
703,0.00951009015965417
704,0.00977841916400506
705,0.00984221594247772
706,0.0100742662204233
707,0.0102428470410409
708,0.0103018618916061
709,0.0104921050553567
710,0.0103929143560501
711,0.0105148393862984
712,0.0105617019193599
713,0.0102181956273368
714,0.0100143669656709
715,0.00958658236733985
716,0.00919398157743831
717,0.00889707993497725
718,0.00886458137002171
719,0.00892889766631693
720,0.00905959521352562
721,0.0090094341510276
722,0.00930450118495978
723,0.00933430821933891
724,0.009309768885928
725,0.00938856313425755
726,0.00937785377139553
727,0.00956725791274231
728,0.0096694354442692
729,0.00989631992833676
730,0.0101587493993426
731,0.0104758963613138
732,0.0107435676830055
733,0.0110660287608981
734,0.0112698602685804
735,0.0113504041704297
736,0.0115197016379352
737,0.0115750912638428
738,0.0116304808897505
739,0.0116858705156581
740,0.0118919022775758
741,0.0119349373844054
742,0.0119876103384193
743,0.0120402832924333
744,0.0120929562464472
745,0.0121036773382039
746,0.0120980952304912
747,0.0120947822725925
748,0.0119329675530303
749,0.0119601913252331
750,0.0118979970437417
751,0.0118267853336397
752,0.0119353045947838
753,0.0117484149454188
754,0.0116003868745365
755,0.0107677811802799
756,0.00993517548602334
757,0.00910256979176677
758,0.0078141015397222
759,0.00662145432680561
760,0.00585304749320998
761,0.00562671653091593
762,0.00583815208395287
763,0.00631130424921813
764,0.00709177922714486
765,0.00782066372066056
766,0.00871547851197341
767,0.00951703330131569
768,0.0100052091958156
769,0.0103183315123516
770,0.0105640187221841
771,0.0106474957166839
772,0.0107822566382955
773,0.010884877201737
774,0.0107754908886844
775,0.0107267580604169
776,0.0107788541110285
777,0.01061886570708
778,0.0106885637972671
779,0.0105358133188445
780,0.0106550161214861
