"wavelength","measurement"
380,0.00167411073165376
381,0.00160901736282474
382,0.00164319006090691
383,0.00162181031407528
384,0.00170698654451262
385,0.00183680070210881
386,0.00196228118582214
387,0.00209361682145476
388,0.00221193945183008
389,0.00232645993058923
390,0.00230446540825917
391,0.00236993555524386
392,0.00239576388358494
393,0.00242911005431717
394,0.00257898143127109
395,0.00274710577120683
396,0.00307444895815655
397,0.00345018215025534
398,0.00382591534235413
399,0.00420164853445292
400,0.00443519800229669
401,0.00473274592709757
402,0.00497739876110586
403,0.00501989879815813
404,0.00517975143249663
405,0.00520537458689459
406,0.00534805333088672
407,0.00546260080988483
408,0.00553828873322544
409,0.00571360960752544
410,0.00602020607090759
411,0.00604812142233465
412,0.00629147394998328
413,0.00648853375309815
414,0.00651351346352866
415,0.00663924452825648
416,0.00660573052941218
417,0.00661801693224572
418,0.00668250360491621
419,0.00660230181853999
420,0.00682734860170594
421,0.00683732958684398
422,0.00691686682764461
423,0.00702537125553368
424,0.00704988569159106
425,0.00699498696459409
426,0.00695028898886444
427,0.00680260380172678
428,0.00656161419766328
429,0.00660488565958992
430,0.00663392912998862
431,0.00690516093844376
432,0.00722478951635159
433,0.007517584181742
434,0.00792056948922973
435,0.00809809986585661
436,0.00818497637904476
437,0.00832164115929696
438,0.00845830593954916
439,0.00859497071980136
440,0.00868031156662925
441,0.00886465804079317
442,0.00912549894622317
443,0.00926301325870556
444,0.00945042671137141
445,0.00963784016403726
446,0.00982525361670311
447,0.0100460040854578
448,0.0101326337963355
449,0.0105563720751988
450,0.0105554281470523
451,0.0104824063026002
452,0.0104962959147557
453,0.0105101855269113
454,0.0105240751390668
455,0.0105656197809213
456,0.0105447233033378
457,0.0107880228918328
458,0.010845489050752
459,0.0110547725924569
460,0.0111085263485037
461,0.0109829030918539
462,0.0113421278917899
463,0.0110494488935183
464,0.0109239219794751
465,0.0108835353470944
466,0.0107512191309758
467,0.010787738048403
468,0.0106854261111667
469,0.0106169772450635
470,0.0108732809260146
471,0.0108763830398614
472,0.0109765913189487
473,0.0111171668927841
474,0.011184522103181
475,0.0113802193188887
476,0.0111335682734377
477,0.0111684853585832
478,0.0112034024437287
479,0.0112383195288742
480,0.0112531285233369
481,0.0109969885832131
482,0.0107942899180313
483,0.010853040549931
484,0.0106238751082362
485,0.0104124871764709
486,0.0105613830500439
487,0.0106985979696675
488,0.0108072885454828
489,0.0111207560696367
490,0.0112241421586606
491,0.0113120529814421
492,0.0116047682760828
493,0.0114790030694663
494,0.0116926932883185
495,0.0115397392300218
496,0.0116186353278409
497,0.0114224061830423
498,0.0114990022922657
499,0.0112802334193349
500,0.0113589332159788
501,0.0112772470840599
502,0.0115130489579239
503,0.0115616945908325
504,0.0114915233441293
505,0.011900884833375
506,0.0118855358947504
507,0.0119749478284953
508,0.0120723479420986
509,0.0120982868663176
510,0.0119564568101363
511,0.0121773499440369
512,0.0120947292560459
513,0.0118086520770383
514,0.0117787969476508
515,0.0116104435663999
516,0.01159052624065
517,0.0115985089373075
518,0.0116218161514962
519,0.0118598093538953
520,0.0121646967811386
521,0.0123416476752277
522,0.0125185985693167
523,0.0126955494634058
524,0.0126595848924502
525,0.0127359685282624
526,0.0128232601648725
527,0.0127961835355852
528,0.0128997989548193
529,0.0130924770579966
530,0.0131399711107422
531,0.0131978902833423
532,0.0131651930036195
533,0.0133528116026838
534,0.0133797662313211
535,0.0132966720952174
536,0.0134858249943293
537,0.0134682318877831
538,0.0134448341742743
539,0.0135156283609328
540,0.0137110372285135
541,0.0137787721330391
542,0.0138517211730181
543,0.0140033774152442
544,0.014090113628633
545,0.0139651285587689
546,0.014002529266992
547,0.0138776317475436
548,0.0137527342280951
549,0.0136278367086467
550,0.0135049478325277
551,0.0136023160407526
552,0.0136312678360888
553,0.0135175244168977
554,0.0134317577105494
555,0.0135517212371577
556,0.0133693682948723
557,0.0133520457979843
558,0.0132500694959683
559,0.0131435972043374
560,0.013294296460968
561,0.0130750745977929
562,0.0133012394032949
563,0.0130855032228446
564,0.0131352872452526
565,0.0129112480539611
566,0.0128801717903172
567,0.0126954994293244
568,0.0127899333174317
569,0.0125863044030265
570,0.0125734431656711
571,0.0125981033706342
572,0.0125807958948402
573,0.0125444684395861
574,0.0126290847654881
575,0.0124685847248367
576,0.0125068670466356
577,0.0125451493684344
578,0.0125834316902333
579,0.0126217140120322
580,0.0126599963338311
581,0.0128101318805174
582,0.0127246981404878
583,0.0128216955699502
584,0.0125777131597237
585,0.0125555335885033
586,0.0122070468087583
587,0.0120168296178535
588,0.0118761945603882
589,0.011735559502923
590,0.0115949244454578
591,0.0116165131448283
592,0.0117084443565434
593,0.0117023678670939
594,0.011828534136243
595,0.0117771883015291
596,0.0118563332491552
597,0.0119027715155279
598,0.0118948010520515
599,0.0118945499509851
600,0.0119575192574998
601,0.0120183604331146
602,0.0120565084926681
603,0.0119918670025855
604,0.0120811861991156
605,0.0120166765078932
606,0.012062297257492
607,0.0120816559980538
608,0.0120374907774459
609,0.0121162567029209
610,0.01210590968011
611,0.0120556748820014
612,0.0119052432766691
613,0.0117470100269568
614,0.0115021972779767
615,0.011495974361359
616,0.011351946450884
617,0.011375940935181
618,0.0113369101738474
619,0.0113412906835343
620,0.01128371297183
621,0.0113398730445848
622,0.0110810371250183
623,0.011055708042783
624,0.0109333261188531
625,0.0108109441949232
626,0.0106885622709933
627,0.0106603378010796
628,0.0105978816821975
629,0.0105633014245217
630,0.0106489522446286
631,0.010483594148493
632,0.0105185841312353
633,0.0105543457071895
634,0.0105271141150904
635,0.0105397481530658
636,0.0104833684215432
637,0.0105121140100531
638,0.0104244112978917
639,0.0104542010918824
640,0.0103749055576756
641,0.010315369819894
642,0.0102417380101422
643,0.0101329401552283
644,0.0100241423003143
645,0.00991534444540028
646,0.00991337951797067
647,0.00991226021442241
648,0.00966868462234341
649,0.00984155822895067
650,0.00970205701292186
651,0.0097608351537058
652,0.00962241067978937
653,0.00943060631451405
654,0.00922494576185609
655,0.00928593455862043
656,0.00915498083732959
657,0.00920752604936976
658,0.00929993954949549
659,0.0094989954056393
660,0.00955651495699198
661,0.00956767738991953
662,0.0095587822097154
663,0.00947865103306871
664,0.0093864990643991
665,0.00939989582299462
666,0.00937024102408348
667,0.0093603389999684
668,0.00933583998952107
669,0.0091414245659846
670,0.00918028399706094
671,0.00907087892901552
672,0.00904907815262578
673,0.00905190414417476
674,0.00904021214956643
675,0.0090077021950296
676,0.00896512925580441
677,0.00902996104921011
678,0.00890942717687278
679,0.00884963335423951
680,0.00907684327413071
681,0.00887716484485353
682,0.00866134268706376
683,0.00848869471879317
684,0.00814463045573921
685,0.00789722907248798
686,0.0076888963977137
687,0.00754134336348866
688,0.00748572770000994
689,0.00758588538974068
690,0.0078012280488272
691,0.00805975582036412
692,0.00812226409433835
693,0.00828534154061606
694,0.00852375532599307
695,0.00859088690212082
696,0.00879858515795855
697,0.00890211289929466
698,0.00887350621278539
699,0.00897337114444242
700,0.00919654902369242
701,0.00919051250610655
702,0.00943429304193342
703,0.00949842816271649
704,0.00975910658176881
705,0.00985934983771567
706,0.0100536398570826
707,0.010235884001187
708,0.0102782488658877
709,0.0104520215938582
710,0.0103876263871044
711,0.0104646770340931
712,0.0105162626102253
713,0.0101857101998927
714,0.0100093767871089
715,0.00956571295449475
716,0.00916612284911723
717,0.00889564791357334
718,0.00885666364923188
719,0.00893990058306718
720,0.00905959521352562
721,0.00903137429547287
722,0.00929414858985626
723,0.00929995722272639
724,0.00928089580911249
725,0.00935692728526102
726,0.00934611281991063
727,0.00952334477932415
728,0.00965882885148547
729,0.00987242662931611
730,0.0101495003803669
731,0.0104532927574107
732,0.0107365323851909
733,0.0110613210452736
734,0.0113015661859025
735,0.0113464190344127
736,0.0114676102171415
737,0.0115373718784541
738,0.0116071335397666
739,0.0116768952010791
740,0.0118599511211142
741,0.0119210003565217
742,0.0119708194860253
743,0.0120206386155289
744,0.0120704577450325
745,0.012085249368578
746,0.0120410771305555
747,0.0120489006571527
748,0.0118894638813898
749,0.0119447106045516
750,0.0119109706321487
751,0.0118093558376533
752,0.0119440631354805
753,0.0117236633094099
754,0.0115986088907751
755,0.0107775396543728
756,0.00995647041797062
757,0.0091354011815684
758,0.00780951644366747
759,0.00663089165440632
760,0.00582897026483472
761,0.00562859961716572
762,0.00584012275560963
763,0.00631381138149256
764,0.00710613885461712
765,0.00780721060215041
766,0.00866984213567318
767,0.0094775322827735
768,0.00994116236697088
769,0.0102885743703345
770,0.0105429062598347
771,0.0106264358055786
772,0.0107335416349404
773,0.0108766266564007
774,0.0107372489103674
775,0.0107163397762581
776,0.0107393005412422
777,0.0105926776703968
778,0.0106651390801737
779,0.0105389992380229
780,0.0106129948328584
