"wavelength","measurement"
380,0.00444639631855144
381,0.00459199722813127
382,0.00463189814906512
383,0.0044324766406801
384,0.00445014842933657
385,0.00494297380485228
386,0.00523990461636716
387,0.00573258326233196
388,0.00599022669985237
389,0.00638133419723001
390,0.0064290851509532
391,0.00637009213932716
392,0.00652644781358528
393,0.0068149177610791
394,0.00711499190939435
395,0.0074349472455068
396,0.00848581271523445
397,0.00961244468487568
398,0.0107390766545169
399,0.0118657086241581
400,0.0127287038650465
401,0.013543361018479
402,0.0142163154646159
403,0.0146880274373861
404,0.01513424767539
405,0.0152925031374958
406,0.0160115062461679
407,0.0165346878735511
408,0.0168075029136478
409,0.0174670685084458
410,0.0185954595535996
411,0.0188889289839823
412,0.0198624941676722
413,0.0204680154364844
414,0.0206730718300778
415,0.0211358523198694
416,0.0213034157841457
417,0.0213570463160234
418,0.0218171014061442
419,0.0215132120237498
420,0.0220080089050484
421,0.0223164041257517
422,0.0225761631459955
423,0.0228328631476557
424,0.0229981612423413
425,0.0227500537829385
426,0.0226334623549127
427,0.0220989182258857
428,0.0214804568549531
429,0.0215001368056928
430,0.0215734422537371
431,0.022473341617815
432,0.0233613633565315
433,0.0242877975335863
434,0.0252354985402983
435,0.0259006996043457
436,0.0261216422086025
437,0.0266641259340599
438,0.0272066096595174
439,0.0277490933849748
440,0.0279690400473499
441,0.0286470030973104
442,0.0293092821096624
443,0.0297834884463716
444,0.0303511116836726
445,0.0309187349209737
446,0.0314863581582747
447,0.0319770062190309
448,0.0324398863295314
449,0.0337655788395204
450,0.0337071410310857
451,0.0336203189697913
452,0.0336527893524365
453,0.0336852597350817
454,0.033717730117727
455,0.0338142482000419
456,0.0338327313419826
457,0.0343569524185758
458,0.034683572414312
459,0.0352848616745135
460,0.0354569756416983
461,0.0350758841271197
462,0.03639519559015
463,0.0352515974678343
464,0.0350903893653471
465,0.0349022534053011
466,0.0346269704913646
467,0.0345034469436417
468,0.0343612680893077
469,0.0339480265103059
470,0.0348094293694449
471,0.0349979918225907
472,0.0352198904789876
473,0.035741226177711
474,0.035875424511926
475,0.0364544696733534
476,0.03586278483501
477,0.0359332337779575
478,0.0360036827209049
479,0.0360741316638524
480,0.0360510786923057
481,0.0352895665144474
482,0.0347339484931927
483,0.0347163568266701
484,0.0337803000244693
485,0.0331617043151166
486,0.0333184238295669
487,0.0336043035583743
488,0.0339123132052726
489,0.0349918852617471
490,0.0352528564072826
491,0.0354872974899837
492,0.0363787236056299
493,0.0360636300988912
494,0.0366515967432574
495,0.0363007438777368
496,0.0366283935844968
497,0.0359868111805749
498,0.0363537549094263
499,0.0355530206318279
500,0.0357721409781271
501,0.0354608037934932
502,0.0360177714970658
503,0.036201824745314
504,0.0359986879579668
505,0.0372055871508555
506,0.0371195917933569
507,0.0373134107668716
508,0.037645952057315
509,0.0377790845937385
510,0.0373050974182805
511,0.0379310519215405
512,0.0377427138009327
513,0.0367410656313766
514,0.0366066188145683
515,0.0360514225007354
516,0.0359180402846727
517,0.0358184330232279
518,0.0357309690816681
519,0.036613350813706
520,0.0372718114356019
521,0.0377822745812374
522,0.038292737726873
523,0.0388032008725086
524,0.0387780823765908
525,0.0388740059900222
526,0.0390829746621141
527,0.0388800289962487
528,0.0392393025641084
529,0.039840413951774
530,0.0398822865237017
531,0.040046628181029
532,0.0399919831525245
533,0.0403776342923388
534,0.0404576924994273
535,0.0400203052518818
536,0.0405023249822035
537,0.0402294217513646
538,0.04006735785497
539,0.0397656442512867
540,0.0401167840820437
541,0.0398334389488648
542,0.0397543863923272
543,0.039973206179773
544,0.0402495226180215
545,0.0399502414437557
546,0.0402075207474759
547,0.0401449537999246
548,0.0400823868523733
549,0.0400198199048219
550,0.0397360121049541
551,0.0399723505066231
552,0.0403181308367493
553,0.0399092193317544
554,0.0396543748378357
555,0.0401341195008736
556,0.0395882444671972
557,0.0394202685399395
558,0.0391984088234578
559,0.0388589281376358
560,0.0392490740894786
561,0.0385440310380936
562,0.0392771300102646
563,0.0386153503952501
564,0.0387680071082116
565,0.0383200787795552
566,0.0380391158542864
567,0.037547277034327
568,0.0377324134719942
569,0.0372068757722126
570,0.0372443539912273
571,0.0371361160407739
572,0.0371827731254307
573,0.0371098860186725
574,0.0373967439479006
575,0.0368333164283208
576,0.036872601275422
577,0.0369118861225233
578,0.0369511709696246
579,0.0369904558167259
580,0.0370297406638272
581,0.0374780688122685
582,0.0371828690328077
583,0.0372275637893176
584,0.0365373524082433
585,0.0363591035294141
586,0.035267004933354
587,0.0345722561621211
588,0.0340849984231982
589,0.0335977406842752
590,0.0331104829453522
591,0.0331659796227545
592,0.0334508744181117
593,0.0334587320827
594,0.0339279706893148
595,0.0337818237128402
596,0.0340886482360292
597,0.0341975019057178
598,0.034296845767187
599,0.0343881496901143
600,0.0345330809952658
601,0.0347590528588906
602,0.034925313737139
603,0.0347210948892083
604,0.0350487607128219
605,0.0348255568377461
606,0.0348380413320399
607,0.0345745440225904
608,0.0340749028116061
609,0.0340920790410842
610,0.0338330195791295
611,0.0335619000874782
612,0.0332361819768408
613,0.032934045948668
614,0.0323851938602496
615,0.0327435095372545
616,0.0322501405198544
617,0.0324230035283759
618,0.0322951261061808
619,0.0323489927656874
620,0.0321732103990733
621,0.032347032861552
622,0.0317304165567537
623,0.0314254123309068
624,0.0311743007483975
625,0.0309231891658882
626,0.0306720775833788
627,0.0306610875772564
628,0.0304835672327195
629,0.030195620023736
630,0.0303554981768711
631,0.0300094994860475
632,0.0300719430442985
633,0.0301824624839753
634,0.0300384664908428
635,0.0301298821214902
636,0.0298525826400547
637,0.0300472777377944
638,0.0297709809830691
639,0.0297798990755458
640,0.0294943431445034
641,0.0292912593041006
642,0.0290609231240454
643,0.0286697000278083
644,0.0282784769315712
645,0.0278872538353342
646,0.0280394374163529
647,0.0278054863196826
648,0.0270962366775826
649,0.0275581811804012
650,0.0271977259408629
651,0.0274194363851838
652,0.026933718106638
653,0.0265123191019793
654,0.0258869959392844
655,0.0260550232469241
656,0.0258301575209461
657,0.0259163555915181
658,0.0261271282526569
659,0.0268210835007558
660,0.0268679100058953
661,0.0269555461657847
662,0.0269221095335964
663,0.0267455674739729
664,0.0264485759877725
665,0.0264951425620353
666,0.0264181930704074
667,0.0264226528100169
668,0.0263023694508857
669,0.0256922522200228
670,0.0257899290536872
671,0.0256787052357109
672,0.0254668243301111
673,0.0254107345617989
674,0.0253424754439318
675,0.0252884356872134
676,0.0251353628046046
677,0.0252583284848933
678,0.0249167452957585
679,0.0248027337743262
680,0.0253432674768096
681,0.0247148033327131
682,0.0242356578769039
683,0.0237418015118383
684,0.0228786002406141
685,0.0223550919393188
686,0.0219182265672102
687,0.0214297789469217
688,0.0213015542062444
689,0.0212742584042218
690,0.0215730930673452
691,0.0218610410724232
692,0.02200638724655
693,0.0222114957003011
694,0.022603868877602
695,0.0226397071308073
696,0.0232289034005707
697,0.023303016965143
698,0.0231646575387386
699,0.0231810811989732
700,0.0238078691589123
701,0.0236711038226287
702,0.0241883803380447
703,0.0244591963637396
704,0.0250997980411629
705,0.0250314295467424
706,0.0255845057364958
707,0.025970140398817
708,0.0262386972943256
709,0.0264982894500647
710,0.0264162729547958
711,0.026427946394036
712,0.0265680308720326
713,0.0256358156803329
714,0.024902495039073
715,0.0235576001509174
716,0.0224113622724731
717,0.0214968568198251
718,0.021254014819356
719,0.0215043068054898
720,0.0217460515576266
721,0.0216990040069602
722,0.022363510063652
723,0.0222193280432678
724,0.0221366202140045
725,0.0221689982684575
726,0.0219860239833685
727,0.0223968814864441
728,0.0227081306514259
729,0.0233536947083872
730,0.0239450597921593
731,0.024684547981486
732,0.0255942275118797
733,0.026446844460158
734,0.0268999543461937
735,0.0272413474631925
736,0.027645589120252
737,0.0278098462269519
738,0.0279741033336519
739,0.0281383604403518
740,0.0288182687735257
741,0.0288308151927552
742,0.0290548131099751
743,0.0292788110271951
744,0.029502808944415
745,0.0294372545044767
746,0.0295045915650115
747,0.0295442651968467
748,0.0291836292493429
749,0.0290804836822019
750,0.0289513126971907
751,0.0290561008412439
752,0.0290720944362549
753,0.0287565741355628
754,0.0282469821069881
755,0.0265387243496332
756,0.0248304665922783
757,0.0231222088349235
758,0.0202835420890424
759,0.0178748747712338
760,0.016061358807554
761,0.0153972763992497
762,0.0159426974681696
763,0.0169060730473387
764,0.018336752696524
765,0.0198685815087156
766,0.0217562436720895
767,0.0234485760140269
768,0.0244982971075121
769,0.0250504611441779
770,0.0257547160792195
771,0.0257529551553482
772,0.0259848854428716
773,0.0262886011073704
774,0.0260102397969697
775,0.0260954559473229
776,0.0259923573653364
777,0.0255353691698955
778,0.0259009425208068
779,0.0253869155938213
780,0.0257370105205311
