"wavelength","measurement"
380,0.00307601860534845
381,0.00300623081418097
382,0.0030691411602147
383,0.00306846567532744
384,0.00310733241831394
385,0.00338744274603387
386,0.00361465455364982
387,0.00384266563770838
388,0.00409327891367066
389,0.0042638894039739
390,0.00432613150496027
391,0.00437383360629042
392,0.00445641272619046
393,0.00462165996449075
394,0.00480814746093787
395,0.00506229694541364
396,0.00572562572393101
397,0.00647955336318992
398,0.00723348100244883
399,0.00798740864170774
400,0.00847763784265624
401,0.00926129514760534
402,0.00967150039143747
403,0.00997301794691374
404,0.0102277247797101
405,0.0103908539751101
406,0.0107943087006616
407,0.0110995624499234
408,0.0113805346476225
409,0.011769603667915
410,0.0125487434279474
411,0.0127725523803334
412,0.0133217290101564
413,0.0138399024337771
414,0.0140502952237605
415,0.0144027112336729
416,0.0144365113614293
417,0.0145205981173741
418,0.0148137914195892
419,0.0146490136774644
420,0.0151656966671215
421,0.0152438651601282
422,0.0154443896927351
423,0.0156899645550118
424,0.0158674490378318
425,0.0155948098570634
426,0.0155985652843274
427,0.0152635276612576
428,0.0148146267554108
429,0.0148438753366533
430,0.0149374529535965
431,0.0155218809822888
432,0.0161583016746818
433,0.0167604047273837
434,0.0175334160899608
435,0.0179682833800769
436,0.0182092751688733
437,0.0185602350153835
438,0.0189111948618937
439,0.0192621547084039
440,0.0193916950320994
441,0.0198351987911632
442,0.0204359623615483
443,0.02067660263381
444,0.0210922597542938
445,0.0215079168747775
446,0.0219235739952612
447,0.0223575009866958
448,0.0225437096449665
449,0.0234953824504216
450,0.0234767875670811
451,0.0233376596670286
452,0.0233265057695531
453,0.0233153518720775
454,0.0233041979746019
455,0.0233172806268155
456,0.023377156121724
457,0.023686335027889
458,0.0238504559723568
459,0.0242562959306122
460,0.0243071326570685
461,0.0241410812826811
462,0.0249162683369995
463,0.0242380865529008
464,0.0240278099086252
465,0.023914731797685
466,0.0235976969329467
467,0.0236127577114367
468,0.0234460313299965
469,0.0232578327683303
470,0.0237990347511423
471,0.0238102627190321
472,0.0239731833944192
473,0.0242776206171547
474,0.0244380479894489
475,0.024822368686685
476,0.0243670595741029
477,0.0244111583054815
478,0.02445525703686
479,0.0244993557682386
480,0.0245003452562347
481,0.0239046545663066
482,0.0235037306157616
483,0.0234246485530729
484,0.0228283862853367
485,0.0223555890640453
486,0.0224996208208791
487,0.0226972841039633
488,0.0228720919750488
489,0.0235588422266122
490,0.0237322591561821
491,0.0239126294848072
492,0.0245567955010879
493,0.0242804840799917
494,0.0246968801452376
495,0.0244000802731688
496,0.0245508953599419
497,0.0241825837749055
498,0.0243661831084155
499,0.0238493649713349
500,0.0240244954657827
501,0.0237972053336267
502,0.0242094427981895
503,0.0243450422731162
504,0.0241505699361447
505,0.0248965017260406
506,0.0248552919537718
507,0.025033152266637
508,0.0251896188628946
509,0.025230546934521
510,0.024871798982614
511,0.0252572806542844
512,0.0251624743341093
513,0.0244976999939558
514,0.0244125980659855
515,0.0240329291301324
516,0.023933434949394
517,0.0238665737244779
518,0.0238236845519807
519,0.0242657743985499
520,0.0247910562006349
521,0.0251006548217955
522,0.0254102534429561
523,0.0257198520641167
524,0.0256692406307284
525,0.0257203123031888
526,0.0258745810605232
527,0.0257114678808503
528,0.0259009659533401
529,0.026280353545912
530,0.0262933496465449
531,0.0263669624361963
532,0.0263308080636616
533,0.0265463195872324
534,0.0266047836783757
535,0.026347843139347
536,0.026594336364142
537,0.026497993514944
538,0.0263142237919813
539,0.0261288887669898
540,0.026246551098017
541,0.0260415546491306
542,0.0259024870111749
543,0.0260801574382045
544,0.0262005318476277
545,0.0260458728569361
546,0.0262502365803198
547,0.0262388292835295
548,0.0262274219867391
549,0.0262160146899488
550,0.0260050247292133
551,0.0261963378414039
552,0.0264183192968672
553,0.026136318008161
554,0.0260367271292363
555,0.026286103115706
556,0.0259331226842666
557,0.0258681259348371
558,0.0256789228976841
559,0.0254967458570597
560,0.0257328301286122
561,0.0252956885437345
562,0.025724287228555
563,0.0252969510873844
564,0.0254503774307745
565,0.0250629313607881
566,0.0249362465103028
567,0.0246061620384688
568,0.0247337364045813
569,0.0244271755584271
570,0.024376478638336
571,0.0244144175959068
572,0.0243982421842223
573,0.0243639429744305
574,0.024502465520421
575,0.024151898501737
576,0.0241877668700967
577,0.0242236352384563
578,0.0242595036068159
579,0.0242953719751756
580,0.0243312403435352
581,0.0245819951391875
582,0.0243909681483335
583,0.024526239515226
584,0.0240688216412497
585,0.0239313272006967
586,0.0231911921303136
587,0.0227643415375887
588,0.0224465222102381
589,0.0221287028828875
590,0.0218108835555369
591,0.0218830663647777
592,0.0220928356037438
593,0.022099660918336
594,0.0224361243481274
595,0.0224030302646967
596,0.0225434919689097
597,0.0226328104027721
598,0.0226806368446043
599,0.0227178044488055
600,0.0228874668639299
601,0.0230073998893742
602,0.0231072281400727
603,0.0230098395334227
604,0.0231993349153743
605,0.0230706682845832
606,0.0230459912496064
607,0.022890788921778
608,0.0225710975219098
609,0.0225490042530297
610,0.0223389577602769
611,0.0221597297657272
612,0.0219406934813366
613,0.0218301227139658
614,0.0215008599487335
615,0.0216946978908532
616,0.0214273755247098
617,0.0215522350551028
618,0.0214502223274485
619,0.0215181487756676
620,0.0214281104583181
621,0.021502927798327
622,0.0210652258985415
623,0.0210174664457064
624,0.020828513504201
625,0.0206395605626956
626,0.0204506076211902
627,0.0204098558569118
628,0.0202931342857016
629,0.0202018641898084
630,0.0203214498392132
631,0.0199929370141341
632,0.0200816815036647
633,0.0201626491824995
634,0.0201071239882042
635,0.0202155224061896
636,0.0199422769614477
637,0.0201020925619721
638,0.0198964608264501
639,0.0199539204044652
640,0.0197632525927317
641,0.0196543808086736
642,0.0194842945683227
643,0.019246196867778
644,0.0190080991672334
645,0.0187700014666887
646,0.0187787172376893
647,0.0186079002895459
648,0.0181779559244296
649,0.0184389910039389
650,0.0181887793215183
651,0.0183493858973317
652,0.0181126689712194
653,0.0177519529085872
654,0.0173711579347117
655,0.0175000224530358
656,0.017227141833963
657,0.0173601756169639
658,0.0175238345192885
659,0.0179621675116401
660,0.0180697260012584
661,0.0181083433300798
662,0.0181442750345233
663,0.017978192830874
664,0.0177832222212379
665,0.0178135055160584
666,0.0178038395477581
667,0.0177564566310883
668,0.0177124311942199
669,0.0173715436111438
670,0.0173612902256143
671,0.0172450977175236
672,0.0171116549332459
673,0.0171439229555208
674,0.0171069195977309
675,0.0170582836778374
676,0.0169575488696845
677,0.017020535321457
678,0.0167545000617885
679,0.0166803785731949
680,0.0170305765215739
681,0.0166989644740682
682,0.0163273047141226
683,0.0160298269131657
684,0.0154691864249354
685,0.0150434666038068
686,0.0146891653062575
687,0.0143716576125848
688,0.0141359740530877
689,0.0142129525663976
690,0.0143994765306667
691,0.01465957657226
692,0.0146737095420806
693,0.0148091759884537
694,0.0150886740535601
695,0.0151781091899411
696,0.015517687192982
697,0.0156119954698358
698,0.0154613340882294
699,0.0155723705090539
700,0.0158717638386616
701,0.0158157486976725
702,0.0161241042840303
703,0.0162447500344587
704,0.0166650788119605
705,0.0167294392523367
706,0.017082505028076
707,0.0173510254169895
708,0.0174555772515491
709,0.0176940520294465
710,0.0175948795982858
711,0.0176774448923869
712,0.0177928544505345
713,0.0170636374969062
714,0.0166848366114659
715,0.0157786043721314
716,0.0149153524337985
717,0.0142980596873992
718,0.0140815828958824
719,0.0141964610680796
720,0.0144252004464252
721,0.0143655668762938
722,0.0148006462906038
723,0.0147707369203628
724,0.0146799970311344
725,0.0147028232623567
726,0.0146236001018106
727,0.0148969382785716
728,0.0150827412136472
729,0.0154676194886244
730,0.015902864322091
731,0.016500417196631
732,0.016982796893764
733,0.0175973831069806
734,0.0179933647886948
735,0.0181860749971649
736,0.0184681050778332
737,0.0186180981237263
738,0.0187680911696195
739,0.0189180842155126
740,0.0193064560128243
741,0.019436935515698
742,0.0195408787780489
743,0.0196448220403997
744,0.0197487653027506
745,0.0198268406462588
746,0.01977487074523
747,0.0198260575300422
748,0.019505526532607
749,0.0196223963432096
750,0.0195766689679064
751,0.0194654801072681
752,0.0195571405616889
753,0.0193002001494331
754,0.019156571129478
755,0.0179807489808828
756,0.0168049268322877
757,0.0156291046836925
758,0.0136770060283371
759,0.0119557048169073
760,0.0105531492277857
761,0.0101448892814561
762,0.0104742642351577
763,0.0111937908020916
764,0.0122007041427438
765,0.0132250328465999
766,0.0145151916092093
767,0.0157441446612404
768,0.0163974681125821
769,0.0168601284296001
770,0.0172264840303844
771,0.0173621496580138
772,0.0175657866492554
773,0.0177351893481488
774,0.0175446756631471
775,0.0175064403131656
776,0.017544997315057
777,0.0172836813235304
778,0.0173565585078102
779,0.0171549372936054
780,0.0172685015368222
