"wavelength","measurement"
380,0.00318884177584351
381,0.00318567675051031
382,0.00335804939271487
383,0.00328359675551278
384,0.00340455403464241
385,0.0035031018661593
386,0.00386747638387413
387,0.00409329211985095
388,0.00439981411657166
389,0.00449234627413686
390,0.0046165240563381
391,0.00473181737682665
392,0.00463664785379933
393,0.00493241503252997
394,0.00516898681727744
395,0.00556528237245682
396,0.00627974067393274
397,0.00713243577596324
398,0.00798513087799375
399,0.00883782598002425
400,0.00946629971143657
401,0.0101910417097232
402,0.0111355707621199
403,0.0114341331103968
404,0.0117813966537443
405,0.0119056331390953
406,0.0126744470169644
407,0.0129975661593445
408,0.0133852268991887
409,0.0139962868568128
410,0.0148607726975599
411,0.015416048851967
412,0.0160420334030156
413,0.0168824154562574
414,0.0168475870683872
415,0.01748060384705
416,0.017378828814503
417,0.0176998169949897
418,0.0179677694175307
419,0.0178569544366618
420,0.0184128407471583
421,0.0185924689998379
422,0.0187534598545009
423,0.0189828552664779
424,0.0192368533009929
425,0.0189602112128372
426,0.0189334553686609
427,0.018464885941569
428,0.0179899912359248
429,0.0180890058410971
430,0.0181022752200158
431,0.0188228135212691
432,0.0197505611118331
433,0.0202930710199807
434,0.0212731745412575
435,0.0218019914339776
436,0.0220743051059935
437,0.0225229875391356
438,0.0229716699722777
439,0.0234203524054198
440,0.0236318253012354
441,0.0241979519102269
442,0.0248028921494739
443,0.0252633564730437
444,0.0256981036961741
445,0.0261328509193045
446,0.0265675981424348
447,0.0271857779129854
448,0.0274622392467022
449,0.0285639295702079
450,0.0287293535746747
451,0.0285556475121075
452,0.0285843770384045
453,0.0286131065647016
454,0.0286418360909986
455,0.028667916323085
456,0.0289684604316643
457,0.0292163310060665
458,0.0296175460727533
459,0.029991188866652
460,0.0301575419524414
461,0.0300234944757551
462,0.0309440152018804
463,0.0302061319769732
464,0.0298983346534033
465,0.0298395788881476
466,0.0295011125770184
467,0.0294840421493336
468,0.0294040352369527
469,0.0290570744217072
470,0.0298134922327525
471,0.0298252982320594
472,0.0301263484087109
473,0.0305330109048071
474,0.0307039632681695
475,0.0312906651020842
476,0.0305728717266229
477,0.0306872532506956
478,0.0308016347747684
479,0.0309160162988411
480,0.0308893627045591
481,0.0303145605931358
482,0.0296949087147983
483,0.0298193120020002
484,0.0290223287325027
485,0.0284098012416348
486,0.028669274642449
487,0.028959226127502
488,0.0292147356534235
489,0.0300130623732943
490,0.0302569529254123
491,0.0306566185592724
492,0.031412954499754
493,0.0310110805124946
494,0.031700845064213
495,0.031293815973514
496,0.0314758970034104
497,0.03106581577017
498,0.0312517849718759
499,0.0304610246203603
500,0.0308698139503703
501,0.0306924361823383
502,0.0311156579516931
503,0.0313617672404797
504,0.0311121045638908
505,0.0322114936526099
506,0.0320738991334324
507,0.0323607455080973
508,0.032578661348124
509,0.0327443711462744
510,0.0323044447328558
511,0.0328007673871668
512,0.0327378206591076
513,0.0318759133628366
514,0.0317795445734157
515,0.031270276937455
516,0.0311878486404334
517,0.0311557341050928
518,0.0310933091040157
519,0.0318351528671265
520,0.0324857189379576
521,0.0329410809560646
522,0.0333964429741716
523,0.0338518049922786
524,0.0338297234486642
525,0.0339157192999694
526,0.0341195218765705
527,0.0340269911346434
528,0.0343288079957946
529,0.0349236766083561
530,0.0349747819701185
531,0.0351473897156682
532,0.0350314939295367
533,0.0353346842187714
534,0.0356244488893379
535,0.0351581358951077
536,0.0356027435135676
537,0.035447256506257
538,0.0352208872545961
539,0.0350536878661553
540,0.0353704149991087
541,0.0352484160811287
542,0.0351179848184223
543,0.03538621208027
544,0.0355846567654679
545,0.0354474462185383
546,0.0356917647874384
547,0.0355736253074623
548,0.0354554858274862
549,0.03533734634751
550,0.0350263626741699
551,0.035292697833426
552,0.0356287912812905
553,0.0352154280244909
554,0.0350115670241469
555,0.0353804470670872
556,0.0349011936063398
557,0.0347916502928055
558,0.034610120817779
559,0.0343056658551793
560,0.0348304209297441
561,0.0341109781102014
562,0.0345788672323259
563,0.0341508659795352
564,0.0342586108748759
565,0.0338069916440968
566,0.0335898424766947
567,0.033103828706917
568,0.0333635972264272
569,0.0328862632598595
570,0.0329046167291637
571,0.0329077297646759
572,0.0328822095264612
573,0.0327828523666788
574,0.0330645636518894
575,0.0325748342317918
576,0.032626036706688
577,0.0326772391815841
578,0.0327284416564803
579,0.0327796441313764
580,0.0328308466062726
581,0.0332064217885823
582,0.0329454502140857
583,0.0330154335326195
584,0.0323875391248244
585,0.0321752413263817
586,0.0311972177837305
587,0.0306470035929967
588,0.0301978979502782
589,0.0297487923075596
590,0.029299686664841
591,0.0294064713726379
592,0.0296689312424886
593,0.0296469468417429
594,0.0301309402746795
595,0.0300838725802588
596,0.0302045508708418
597,0.0304002539312178
598,0.0303680792263405
599,0.0303982829927216
600,0.030614284923193
601,0.0307854774613813
602,0.0309433668983682
603,0.0307170317976189
604,0.0310444570437283
605,0.0307979122585545
606,0.0307714620468202
607,0.0306632783587681
608,0.0302929840820731
609,0.0303387605894959
610,0.0300915922571464
611,0.0298970746931217
612,0.029611510731013
613,0.029360790439972
614,0.0288950101198298
615,0.0291300846822183
616,0.0286665759234985
617,0.0288225583572183
618,0.0287060664076763
619,0.0288173102568906
620,0.0285391374023538
621,0.0287520412106121
622,0.0281091333229366
623,0.0279962578756001
624,0.0277682465246892
625,0.0275402351737784
626,0.0273122238228675
627,0.0272064986141533
628,0.0271257013399002
629,0.0270158873696173
630,0.0271338243596585
631,0.0266894559093308
632,0.0267215926747724
633,0.0268613373136468
634,0.0266778330130052
635,0.0268416838007168
636,0.0265124782586276
637,0.0267392785561048
638,0.0264373091729514
639,0.0263988999711487
640,0.0262908756683571
641,0.0260785850093845
642,0.0258460582657095
643,0.0255435266776351
644,0.0252409950895607
645,0.0249384635014863
646,0.0249570248143498
647,0.0247497399541186
648,0.0241493263405767
649,0.0245361876157574
650,0.0243214124852156
651,0.0243843716550674
652,0.0240602238936881
653,0.0235086980059864
654,0.0230508483663972
655,0.0231713851439936
656,0.0228120572614643
657,0.0230923149774797
658,0.023232998831972
659,0.0237898214757942
660,0.023936927259428
661,0.0239986250530775
662,0.023922030448389
663,0.0237781800206582
664,0.0234495520765186
665,0.0235523158493987
666,0.0234864906388216
667,0.0233791732038016
668,0.0234095953469202
669,0.0229348849303059
670,0.0229444891369021
671,0.0227534722052998
672,0.0226934949730114
673,0.022616633738899
674,0.0225576212350659
675,0.0225283683722649
676,0.0224022841505639
677,0.0224874805372536
678,0.0220909896938769
679,0.0220930802493385
680,0.022481989870041
681,0.0220010166386992
682,0.0215744369623969
683,0.0212040963288564
684,0.0204084093396012
685,0.0199033632432283
686,0.0195417203216825
687,0.019050180336182
688,0.0190064750530023
689,0.0190021170450064
690,0.0192655149672494
691,0.0195545028517849
692,0.0197847791094048
693,0.0200300507563633
694,0.0202845578562243
695,0.0203732269274046
696,0.0208681699431617
697,0.0210103002470809
698,0.0208225931364632
699,0.0210154613613911
700,0.0214587092266243
701,0.0213611613471051
702,0.0219693637542951
703,0.0221680071857471
704,0.0226588550562383
705,0.0227238359421589
706,0.0232510370428164
707,0.0235631689567051
708,0.0237972713635477
709,0.0241509823625312
710,0.0240238570972905
711,0.0241111854131851
712,0.0242178783756596
713,0.0234061636349701
714,0.0226876101060034
715,0.0216012052937972
716,0.0205230079818108
717,0.0196814814263299
718,0.0195613545667303
719,0.0196852863269744
720,0.0199216458244599
721,0.0198848832918923
722,0.0204920068509423
723,0.0204425913899929
724,0.0203680437313781
725,0.0204238644560419
726,0.0203566248801749
727,0.0207160088194016
728,0.0209639844669345
729,0.0214731029791728
730,0.0221369641215333
731,0.0227487775962432
732,0.0235903178425876
733,0.024347177670865
734,0.0249805943466991
735,0.025095668360217
736,0.0255353748413722
737,0.0257212380780801
738,0.025907101314788
739,0.0260929645514959
740,0.0265925533587828
741,0.0267078631903204
742,0.0268827328485429
743,0.0270576025067654
744,0.0272324721649879
745,0.0271923439767466
746,0.0271293742252153
747,0.0271956499863611
748,0.0268460821841297
749,0.0267514913011104
750,0.0267796441599036
751,0.0266064943483858
752,0.0268208194789787
753,0.0265097254452163
754,0.0261723365807382
755,0.0245604923208484
756,0.0229486480609585
757,0.0213368038010687
758,0.0187648449732522
759,0.0165526792750256
760,0.0149327545024506
761,0.0144534056875911
762,0.014827164461498
763,0.0157375742861062
764,0.0171033286248145
765,0.0184979220521264
766,0.0200893543417125
767,0.0217198257563404
768,0.0225623572718834
769,0.0233741616826807
770,0.0236426012724392
771,0.0239403557182401
772,0.0240877982190711
773,0.0242469365287932
774,0.0240825212775554
775,0.0240898935998979
776,0.0240019881434869
777,0.023726609638876
778,0.0238095304864211
779,0.0234269653563528
780,0.0236929436632478
