"wavelength","measurement"
380,0.00793106797297882
381,0.00769985551451051
382,0.00779306787598041
383,0.00778303701986257
384,0.00791293813599143
385,0.00852344956326725
386,0.00903775067315721
387,0.00959254958310676
388,0.0101496827458618
389,0.0105851097936785
390,0.0106145889178299
391,0.0106625665648202
392,0.0107800823281493
393,0.0109682913275612
394,0.0113427594114593
395,0.0119452010812727
396,0.0134124310129475
397,0.0149833404343246
398,0.0165542498557017
399,0.0181251592770788
400,0.0190023831775173
401,0.0203032810626059
402,0.0211277237533506
403,0.0214275175127946
404,0.0216127055283382
405,0.0215482971134511
406,0.0220176869576592
407,0.0221252889286918
408,0.0222133774028151
409,0.0225985581080925
410,0.0236034922326037
411,0.0236505820034776
412,0.0242529625793276
413,0.0247342746940513
414,0.0247493815474681
415,0.0249784500549716
416,0.0246814470122717
417,0.024478186463376
418,0.0247695158542965
419,0.0242266375245514
420,0.0247496849382806
421,0.0246275998367844
422,0.0248070269968438
423,0.025023760208102
424,0.025053009469593
425,0.0246155886222704
426,0.0243385336018984
427,0.0236855939074058
428,0.0228619123152048
429,0.0228035405613211
430,0.0228294046203904
431,0.0237182984007631
432,0.0246890762223884
433,0.0257195407445115
434,0.0269760218096643
435,0.027544653992233
436,0.0276634766018194
437,0.0278907777432446
438,0.0281180788846699
439,0.0283453800260952
440,0.0284047524229631
441,0.0289013131647785
442,0.0295308941153933
443,0.0297827662985965
444,0.0302245188717858
445,0.030666271444975
446,0.0311080240181643
447,0.0316444645393889
448,0.0316858997320577
449,0.0329783732434286
450,0.0328467333663522
451,0.0326217664471198
452,0.0325739456380909
453,0.0325261248290621
454,0.0324783040200332
455,0.0324278324341947
456,0.0324852998431481
457,0.032886809564704
458,0.0330646811080316
459,0.0335342382221617
460,0.0335500745626641
461,0.0332601703275369
462,0.0341299158402911
463,0.0332396566460959
464,0.032896499620228
465,0.0326702045201537
466,0.032210600079996
467,0.0321748628775973
468,0.0318490667370566
469,0.0315962054466715
470,0.0321716365600889
471,0.0321486721931112
472,0.0322908787217126
473,0.0327077641074305
474,0.0327735480239681
475,0.033230017682789
476,0.0325123284390866
477,0.032524748636418
478,0.0325371688337494
479,0.0325495890310807
480,0.0325074671394389
481,0.0317559417770852
482,0.0312209646053608
483,0.0311359087843988
484,0.0303942288745326
485,0.0297630733962908
486,0.0300193369091108
487,0.0302164845993976
488,0.0304086966846446
489,0.0311253588806561
490,0.0312447777666163
491,0.031420980478388
492,0.0320455414420037
493,0.0316342495594603
494,0.0320509258804753
495,0.0315716892454646
496,0.0316975321228176
497,0.0311173174805185
498,0.0312105734304046
499,0.030472757615441
500,0.0305641760453468
501,0.0302229459960559
502,0.0305872410836249
503,0.0306383722967286
504,0.0302670131919178
505,0.0311345734577722
506,0.0309957500466216
507,0.0310826264661377
508,0.0312033653064261
509,0.0312660614554149
510,0.0306861166491697
511,0.0310799892345092
512,0.0309397317014251
513,0.0299931695297206
514,0.0298727439351097
515,0.0293419182980689
516,0.0291704390135334
517,0.0290263478850561
518,0.0289042884744861
519,0.0294097031541472
520,0.0298966818926735
521,0.0301945755540557
522,0.0304924692154378
523,0.03079036287682
524,0.0306183915829277
525,0.0306206146438602
526,0.0307305947744059
527,0.0304632144798816
528,0.0306917640663306
529,0.0310918478237307
530,0.0310662537895357
531,0.0311081467207936
532,0.0310345612563257
533,0.0312724132186637
534,0.0313510713702293
535,0.0310710736965385
536,0.0314152787446638
537,0.0313612071444575
538,0.0313395389025773
539,0.0314851534168708
540,0.0319637072342887
541,0.0321200746621198
542,0.0323248052871539
543,0.0327296277145689
544,0.0329453035370699
545,0.032655888193624
546,0.0325975187367211
547,0.0321923549242702
548,0.0317871911118194
549,0.0313820272993685
550,0.0308754428096008
551,0.0308563865713642
552,0.0309844897575857
553,0.0305541877865947
554,0.0303383384338376
555,0.0305152018903056
556,0.0300545467920973
557,0.029885386928209
558,0.0296443107430694
559,0.0293190372149869
560,0.0296274880172663
561,0.0291064396890839
562,0.029553736663482
563,0.0290718958574612
564,0.0291941359184332
565,0.0287413519327387
566,0.0284891505904155
567,0.028124892409653
568,0.0282315664345952
569,0.0278456499349404
570,0.0277817548283675
571,0.0278149417631034
572,0.0277653096356815
573,0.0277175214705746
574,0.0278844659571603
575,0.0275606490686412
576,0.0276286889251742
577,0.0276967287817073
578,0.0277647686382404
579,0.0278328084947734
580,0.0279008483513065
581,0.0282326199686548
582,0.0279940277628263
583,0.0281377881626494
584,0.0276669492763242
585,0.0274079343740571
586,0.0265340493994359
587,0.0259717775698484
588,0.0255090389647169
589,0.0250463003595854
590,0.0245835617544539
591,0.0246066827246387
592,0.0247411489696299
593,0.0247361729939054
594,0.0250187381384456
595,0.0249534184598444
596,0.02505430139667
597,0.0251760403797897
598,0.0252284640932795
599,0.0252834486354324
600,0.0254634932639409
601,0.0255348288225443
602,0.025598393936408
603,0.0254746389479658
604,0.0256687687108917
605,0.0255887094501728
606,0.0256554063398083
607,0.0258678186436848
608,0.0259782591708325
609,0.0263967747334524
610,0.0264890089389437
611,0.0264825823278234
612,0.0261371810843696
613,0.0256081780254049
614,0.0249020104982345
615,0.024750279673474
616,0.0241681724813799
617,0.0241596011408948
618,0.0239764827756725
619,0.0239523446701738
620,0.0237419515849893
621,0.0238485868893004
622,0.0232797296797485
623,0.0231401470681036
624,0.0228868729644619
625,0.0226335988608202
626,0.0223803247571784
627,0.0222945255807391
628,0.0221237310092486
629,0.0219864654905733
630,0.0221135346988103
631,0.0217128382302724
632,0.0217340962407038
633,0.0217115098273646
634,0.0216247083569152
635,0.0216502381798049
636,0.0213835705108654
637,0.0214989620398592
638,0.0212944252673981
639,0.0213277396645514
640,0.0211285425376515
641,0.0209988569744948
642,0.0207678340685315
643,0.0204933241856779
644,0.0202188143028243
645,0.0199443044199706
646,0.0199135527031241
647,0.0197497304463653
648,0.0192656327485302
649,0.0195813059149978
650,0.0193340896774501
651,0.0194676825234097
652,0.0191640018887655
653,0.0187856997150776
654,0.0183852606143856
655,0.0184949335693496
656,0.0182361987225336
657,0.0183710356942684
658,0.0185917568226266
659,0.0190391757478579
660,0.019143079434722
661,0.0192334742426183
662,0.0192608960476129
663,0.0191043839662667
664,0.0189515911100442
665,0.0188918977868995
666,0.0188576651515764
667,0.0188962663193709
668,0.0188120956301536
669,0.0183986062927923
670,0.0184212664049348
671,0.0182776861613897
672,0.0181408448072726
673,0.0181651492498749
674,0.0181175545995708
675,0.0180244969665976
676,0.0179222096256976
677,0.0179988260814826
678,0.0176911802972146
679,0.0176267205383632
680,0.0179531287470303
681,0.0175545132197025
682,0.0171649377401135
683,0.0167526609877401
684,0.0161222578592495
685,0.0155821922563599
686,0.0151520990204518
687,0.0147469035262204
688,0.0144816629282902
689,0.0144354343303068
690,0.0145897927074041
691,0.0148168002393383
692,0.0147665750570772
693,0.0148704684049553
694,0.0150867399471131
695,0.0150799371096868
696,0.0153510098799526
697,0.0154396020266312
698,0.0152308203023696
699,0.0152487677522539
700,0.0155121612754616
701,0.015450607412496
702,0.0157583116176297
703,0.0158962873725906
704,0.0162834086500179
705,0.0163789195751299
706,0.0167066765638391
707,0.0169693640697333
708,0.0170423100937483
709,0.0173121925286572
710,0.0171262117073146
711,0.0171202138388468
712,0.0171342771251087
713,0.0163282832956004
714,0.0158007824815198
715,0.0148383088730862
716,0.0139344367434528
717,0.0133316635925363
718,0.0131238378804234
719,0.0131567149282139
720,0.013376636516295
721,0.0133005821587331
722,0.0137441970772185
723,0.0136766616289027
724,0.0136100627751295
725,0.0136372576666756
726,0.0135978581756498
727,0.0138435405126638
728,0.0140571939682864
729,0.0144639386547007
730,0.0149558794626473
731,0.0156048553308074
732,0.0161542704431841
733,0.0167894275432469
734,0.0172159322313286
735,0.0174240406715383
736,0.0177707456677796
737,0.0179813232087679
738,0.0181919007497562
739,0.0184024782907445
740,0.0188063643481565
741,0.018945452768092
742,0.0190909678143445
743,0.0192364828605971
744,0.0193819979068497
745,0.0194747104087535
746,0.0194416929972432
747,0.0194960219305397
748,0.019228655370589
749,0.0193357629033771
750,0.0193035071444328
751,0.0191852115171295
752,0.0193796248537074
753,0.0190977749721782
754,0.0189190512926213
755,0.0176916289763919
756,0.0164642066601626
757,0.0152367843439332
758,0.0132474680304821
759,0.0114857451593023
760,0.0101463152974338
761,0.00973169340757032
762,0.0100303293027535
763,0.0106763922249788
764,0.011784039425817
765,0.0128371621861763
766,0.0141641588960198
767,0.0154436432454742
768,0.0161589025349946
769,0.0166754450298766
770,0.0170624188910041
771,0.0172210278259535
772,0.0174511038580766
773,0.0175714065886964
774,0.0174243521197677
775,0.0173912667798162
776,0.0173866777550055
777,0.0171643167595055
778,0.0172682779336025
779,0.0170895600238615
780,0.0172395410912378
