"wavelength","measurement"
380,0.0149328975594075
381,0.014337765653363
382,0.0139534431998582
383,0.013611242616627
384,0.0135267741109456
385,0.0141579603710741
386,0.0148154452988224
387,0.0154641619865046
388,0.0160335688779192
389,0.0164215113906839
390,0.0163286943103033
391,0.0161271158258849
392,0.0160852431472561
393,0.0161422695878562
394,0.0164224912841949
395,0.0170357410785969
396,0.0188120605022277
397,0.0207569897200089
398,0.0227019189377901
399,0.0246468481555712
400,0.0257554103204302
401,0.0272956394435464
402,0.0281538223550848
403,0.0283870255528359
404,0.0282913248535782
405,0.0281417866651312
406,0.0285323214864368
407,0.0286566011980358
408,0.028648109248144
409,0.0289790311503794
410,0.0301607980543253
411,0.0301154133380756
412,0.0308177961665185
413,0.0312815942957184
414,0.0312257719796475
415,0.031419651587831
416,0.0310016421537109
417,0.0307672558121869
418,0.0310351749916072
419,0.0304109366056235
420,0.0309113921711762
421,0.0307681799916917
422,0.0310006152291255
423,0.0310462751879083
424,0.0311617167106965
425,0.0306094453329392
426,0.0301730538352886
427,0.0294333064767054
428,0.0283889924178769
429,0.0282949344176346
430,0.0282375597169503
431,0.0291262871610926
432,0.0301506467916537
433,0.031149568956675
434,0.0324240344482217
435,0.0330445898950383
436,0.0333280074780248
437,0.0338490174832956
438,0.0343700274885665
439,0.0348910374938373
440,0.0349589920881444
441,0.0355857116514921
442,0.0365319083759535
443,0.036701554998964
444,0.0372244347909129
445,0.0377473145828619
446,0.0382701943748109
447,0.0388637281182091
448,0.0389481563266202
449,0.0405130193824824
450,0.0402743037211485
451,0.0400453651627997
452,0.0399047138818097
453,0.0397640626008196
454,0.0396234113198295
455,0.0397303486739506
456,0.039655690229495
457,0.040120581532947
458,0.0402712694537964
459,0.0409201691857311
460,0.0408565284423602
461,0.040467744929165
462,0.0416004038693197
463,0.0404984752461804
464,0.0400750925607236
465,0.0397169284579726
466,0.0392062904739185
467,0.0390846569862631
468,0.0387442725318971
469,0.0383607667127066
470,0.0391274061036196
471,0.039098018818671
472,0.0392588081364102
473,0.0397625137989976
474,0.0398930622484916
475,0.0404576750622234
476,0.0396999731134521
477,0.0396922601915021
478,0.0396845472695521
479,0.0396768343476021
480,0.0396311914989274
481,0.0386302312745979
482,0.0380477359015842
483,0.0378974529129278
484,0.0368591365439445
485,0.0360296016338051
486,0.0362531259399879
487,0.0364600844829858
488,0.036774294059047
489,0.0377300266036854
490,0.0380208788077642
491,0.0383692205193574
492,0.0393154771176828
493,0.0389368132327478
494,0.0395051189268242
495,0.0390690064770671
496,0.0393061849335309
497,0.0386721855935061
498,0.0388983494164885
499,0.0380743079449054
500,0.0382794024237909
501,0.0379299297568833
502,0.0385310415836708
503,0.0387238627451601
504,0.0384624215135171
505,0.0397139252251312
506,0.0395866243213634
507,0.0399404305827918
508,0.040221536531842
509,0.0403141716276172
510,0.0397828580940613
511,0.0404792933107451
512,0.0404479922942779
513,0.0393294295429448
514,0.0392675117233206
515,0.0387036980255887
516,0.0385507071320944
517,0.0385902617675133
518,0.0385357290700725
519,0.0394693623895084
520,0.0404086230012188
521,0.0410369206152825
522,0.0416652182293461
523,0.0422935158434097
524,0.0422995251343956
525,0.0425350951913443
526,0.0429947837906061
527,0.0428265292652254
528,0.0432357787189957
529,0.0440479825316485
530,0.0441965338716393
531,0.0443885223295121
532,0.0444222880650325
533,0.0449587402357414
534,0.045214878912844
535,0.0448280956397491
536,0.0453878706380387
537,0.0451776598446865
538,0.0449324988795513
539,0.0446964894183512
540,0.0449927916798223
541,0.0447807121299358
542,0.0445693794002981
543,0.0448740327515992
544,0.0452637399905175
545,0.0450147922639567
546,0.0454172459107295
547,0.0454860578461303
548,0.0455548697815312
549,0.045623681716932
550,0.045461889653051
551,0.0457363493711078
552,0.0462467110384856
553,0.0458500504110244
554,0.0457591286100954
555,0.046260464748772
556,0.045689300074681
557,0.0455752413261951
558,0.045315609219764
559,0.0448798734667119
560,0.0454673278012563
561,0.0446384674380413
562,0.0453864611131364
563,0.0446988257196382
564,0.0448993289555607
565,0.0442007307049181
566,0.0439351317541103
567,0.0434545096895975
568,0.0436564624533867
569,0.0430513304963763
570,0.0429730893683866
571,0.043033109176442
572,0.0429239356650345
573,0.0428880301469775
574,0.0430993687763329
575,0.0424922705629462
576,0.0425639232265899
577,0.0426355758902336
578,0.0427072285538774
579,0.0427788812175211
580,0.0428505338811648
581,0.0433362943597099
582,0.0430562797636634
583,0.0431842902741385
584,0.0424300340642336
585,0.0422290092574139
586,0.0408797482918519
587,0.0401641044836033
588,0.0395702824327074
589,0.0389764603818114
590,0.0383826383309154
591,0.038544057552876
592,0.0388867642548915
593,0.0389412709126394
594,0.039630955292252
595,0.0396114684537111
596,0.0398961502935664
597,0.0402435859647828
598,0.0403595567367884
599,0.040505661502399
600,0.0409008061583189
601,0.041134820831973
602,0.0414464023122455
603,0.0412918261131833
604,0.0416995204342694
605,0.0415190490089924
606,0.0414805088109459
607,0.0412854155202995
608,0.0407185158725829
609,0.0407491149538457
610,0.0403562199377606
611,0.0401262149903574
612,0.039769112917014
613,0.0396157112811844
614,0.0390409018063589
615,0.0394916562245208
616,0.0389741041411864
617,0.0393021018493227
618,0.0392451204922059
619,0.039323294637956
620,0.0392046959713446
621,0.0394545255840285
622,0.0387140865959974
623,0.0386282826093509
624,0.038356368318409
625,0.038084454027467
626,0.0378125397365251
627,0.0377578524346784
628,0.0376617240030166
629,0.0374721593848316
630,0.0378597370073972
631,0.0373842775869545
632,0.0375439205346899
633,0.0378349311472665
634,0.0378377395337564
635,0.0380799055934037
636,0.0376927579917502
637,0.0380435489578853
638,0.037750494003217
639,0.0379409125952932
640,0.0376366347730642
641,0.0375077441430377
642,0.0372586203621779
643,0.0368808458241084
644,0.0365030712860389
645,0.0361252967479693
646,0.0361571494466882
647,0.0359434560012094
648,0.0351710244929049
649,0.0357980325598656
650,0.0354096393828648
651,0.0358302284718508
652,0.0354003441832759
653,0.0348562319440229
654,0.0342381269271922
655,0.0346139977604558
656,0.0341683225738141
657,0.0345201245328733
658,0.034950430575014
659,0.0358996919419565
660,0.0362305507325483
661,0.0364271586680518
662,0.0365609638318735
663,0.0364211083836039
664,0.0361494236035821
665,0.0362467512178681
666,0.0363364848402642
667,0.0363602309640712
668,0.0363672332620989
669,0.0356891299407017
670,0.0358942224179827
671,0.0358111089678719
672,0.0355878950899937
673,0.0357801000605821
674,0.0358331309263378
675,0.0358243620829608
676,0.0357741834399307
677,0.0360490186641915
678,0.0356072880650986
679,0.0356371995530218
680,0.0364759157482196
681,0.0358333136602363
682,0.0352135879807005
683,0.0346514288090846
684,0.0335762456390729
685,0.0327167712891717
686,0.032067209880395
687,0.0314709630161114
688,0.0311864925763065
689,0.0314262562391823
690,0.0319101368297938
691,0.032614781335365
692,0.0328229043042329
693,0.0333836737658157
694,0.0341410065004277
695,0.0344663239332118
696,0.0354776538351555
697,0.0361743306944674
698,0.0361427278163908
699,0.0366602430990685
700,0.0377488347679689
701,0.0379690492022087
702,0.0392343364901571
703,0.0398931764842927
704,0.0412745948736323
705,0.0419092153265735
706,0.043315857651987
707,0.0445359315947211
708,0.045270037016359
709,0.0465962807175456
710,0.0469428359709842
711,0.0476808406505661
712,0.0485231246150934
713,0.0471406791373576
714,0.0465094018973471
715,0.0445588734768833
716,0.0428022780901125
717,0.0418506568961861
718,0.0419559054883525
719,0.0430155441641439
720,0.0443145304015592
721,0.0447468966819226
722,0.0470481493622966
723,0.047531671452999
724,0.0480391749862442
725,0.0490457802746679
726,0.0497132752536625
727,0.0514082660867236
728,0.0530002166335098
729,0.0553348661635601
730,0.0577520765626397
731,0.0608629889512574
732,0.0637817401539879
733,0.0670091527455346
734,0.0695418682770705
735,0.0712470956351235
736,0.073317017305899
737,0.074979808133329
738,0.076642598960759
739,0.078305389788189
740,0.0808035807587322
741,0.0822308752431304
742,0.0837217705155986
743,0.0852126657880668
744,0.086703561060535
745,0.0876605613789999
746,0.0885045406055584
747,0.0895257314828309
748,0.0891380794543563
749,0.0901877585035924
750,0.0906896264165525
751,0.09088999663804
752,0.0923307052602887
753,0.092013353001093
754,0.0915958906629773
755,0.0863846658008884
756,0.0811734409387995
757,0.0759622160767106
758,0.0670252023296231
759,0.0589728274294417
760,0.0528140746215378
761,0.051315896413761
762,0.0532276722759642
763,0.0568338896013107
764,0.0625388401568622
765,0.0681682479582518
766,0.0749701818715413
767,0.081604821019528
768,0.0854753696788763
769,0.0883814237637789
770,0.0907264392512944
771,0.0918872628463169
772,0.0932477460131848
773,0.0943912417514412
774,0.0939618494907123
775,0.094357676415364
776,0.0948298423494734
777,0.0938529728728158
778,0.0950890804752004
779,0.0941192328234578
780,0.0954791404029465
