"wavelength","measurement"
380,0.0363333025012134
381,0.035067705094903
382,0.0353813103170305
383,0.0341770123049857
384,0.0343310070299946
385,0.0358183938441254
386,0.0372674274710106
387,0.0395093555192812
388,0.0412181673525391
389,0.0429534087840248
390,0.0427102419602477
391,0.0429898410238337
392,0.0429338848703665
393,0.0439331107632
394,0.0450001868767796
395,0.0472027785222977
396,0.0531912455815046
397,0.059732670217438
398,0.0662740948533714
399,0.0728155194893048
400,0.0771936462965032
401,0.0828992239753563
402,0.0869699886209325
403,0.089499669616256
404,0.0909789809255263
405,0.0918228739173647
406,0.0946823297564771
407,0.0961801815371139
408,0.0978183846653088
409,0.100352284498857
410,0.106391963444596
411,0.106852390549462
412,0.111344100815357
413,0.113997757043106
414,0.115724962426377
415,0.117676073054021
416,0.117557317373183
417,0.117833626252439
418,0.119403536982658
419,0.118059416045134
420,0.121040911617375
421,0.121372424057332
422,0.122436354505594
423,0.12306928680644
424,0.124846815944668
425,0.1227146148452
426,0.121633168395861
427,0.118462208605542
428,0.114951437220726
429,0.114351444600167
430,0.114600678580365
431,0.118357656890579
432,0.122355276330724
433,0.126815596566186
434,0.131263858812348
435,0.134816224424126
436,0.136000759635076
437,0.138065459120509
438,0.140130158605942
439,0.142194858091375
440,0.143301255316911
441,0.145325597020699
442,0.148880657121506
443,0.149778809257454
444,0.151804183035166
445,0.153829556812878
446,0.15585493059059
447,0.157760112640909
448,0.15794559714647
449,0.163568361800622
450,0.16236139625946
451,0.161881636803882
452,0.161139050949261
453,0.160396465094641
454,0.159653879240021
455,0.159486326356641
456,0.159625137918497
457,0.160539233823744
458,0.161566846872588
459,0.163816593910798
460,0.163949515690847
461,0.162625935743271
462,0.167304484419124
463,0.162843496632854
464,0.161060449925764
465,0.159727159084621
466,0.158498231582601
467,0.157709690130973
468,0.156369057297919
469,0.15523998865603
470,0.158471215833908
471,0.158592805040224
472,0.159413051181725
473,0.161871185332328
474,0.162692081365122
475,0.165418092812531
476,0.162195955056163
477,0.162430186142036
478,0.162664417227908
479,0.16289864831378
480,0.162861754228391
481,0.158814771817477
482,0.156778613296049
483,0.155752945123288
484,0.151859021666613
485,0.147892451230033
486,0.1486248096414
487,0.149621040249783
488,0.151414086141484
489,0.155123159224315
490,0.155797876482031
491,0.156967781488907
492,0.161100196160483
493,0.159143598220474
494,0.161756507163127
495,0.159539063769853
496,0.160364014799837
497,0.157884076216057
498,0.158545574780513
499,0.155081567906457
500,0.155411326467045
501,0.153982267140319
502,0.15631331547355
503,0.156800796753887
504,0.155057046426849
505,0.159776024013836
506,0.1589407056024
507,0.160063097398531
508,0.160643776112111
509,0.16092270814486
510,0.158237610933463
511,0.160052797815811
512,0.159793578018633
513,0.154797530492822
514,0.153971649801002
515,0.151241267855743
516,0.150098659393793
517,0.148947691419621
518,0.148507017543984
519,0.151553250489873
520,0.154027439240706
521,0.155934660024962
522,0.157841880809219
523,0.159749101593476
524,0.15887148767221
525,0.159109784612325
526,0.159894814565789
527,0.158856165249546
528,0.159439706812485
529,0.162337275776343
530,0.161924264487912
531,0.162353064564857
532,0.161940112444229
533,0.16336322220332
534,0.163938394317315
535,0.161867840481815
536,0.163525288888096
537,0.162336926682473
538,0.161122173886429
539,0.160246626699695
540,0.160944276353078
541,0.159852201411465
542,0.1584108533363
543,0.159435223379854
544,0.160207245235053
545,0.15944374047845
546,0.160791582322611
547,0.160673351024757
548,0.160555119726903
549,0.160436888429049
550,0.159530471015946
551,0.160414776477969
552,0.161955154779927
553,0.160292862626868
554,0.15963387954754
555,0.161411204514826
556,0.158938339546553
557,0.158573354087705
558,0.15754263773116
559,0.156400188820843
560,0.157515904513545
561,0.154884208629791
562,0.157495720385827
563,0.155369553309771
564,0.156193689689284
565,0.154118404462746
566,0.152804507994184
567,0.151116949237934
568,0.151711934477924
569,0.149969525451248
570,0.149915735490401
571,0.150191661951391
572,0.150339508272266
573,0.150066354040438
574,0.151352210901721
575,0.149084319955071
576,0.149630911573459
577,0.150177503191847
578,0.150724094810234
579,0.151270686428622
580,0.15181727804701
581,0.153771228563805
582,0.153002609244097
583,0.154060996617198
584,0.151631152665608
585,0.151314177274885
586,0.146618936312865
587,0.143945810938764
588,0.142217274185162
589,0.140488737431561
590,0.13876020067796
591,0.13933959105751
592,0.141001188017693
593,0.141402978984243
594,0.144029053297194
595,0.144097023918359
596,0.14501377837735
597,0.146098410136032
598,0.146683180063951
599,0.147167342606785
600,0.149001311127367
601,0.149794994097294
602,0.150861943859061
603,0.150586508538868
604,0.152458968027848
605,0.151330227270406
606,0.151986374404157
607,0.150970334377342
608,0.149434333631022
609,0.149389702001971
610,0.148365266462977
611,0.147579735242712
612,0.146458184541135
613,0.145828783486741
614,0.144276390330485
615,0.146745062355426
616,0.14419747198096
617,0.145553207694291
618,0.14528827140679
619,0.14625132430198
620,0.145805164482879
621,0.146557125383705
622,0.144228756888149
623,0.14377480282275
624,0.142989366062243
625,0.142203929301736
626,0.141418492541229
627,0.14133085086272
628,0.141200205017897
629,0.140715970768467
630,0.141747019629271
631,0.140067882860007
632,0.140955889588417
633,0.142106894648144
634,0.142155163929738
635,0.143027697570997
636,0.141459977351389
637,0.143313042377977
638,0.142276947442247
639,0.143206300523919
640,0.142188906559077
641,0.141830721756324
642,0.140713246068987
643,0.139691488319523
644,0.138669730570059
645,0.137647972820595
646,0.138097268719803
647,0.13757307119003
648,0.134485368446596
649,0.136930637209394
650,0.135777445991848
651,0.137353061642121
652,0.135729156032664
653,0.133872883031958
654,0.131745073296014
655,0.133107240564691
656,0.131745787491179
657,0.133147239101503
658,0.134653207355169
659,0.138816326272968
660,0.140050731889156
661,0.140558422128633
662,0.141614295206951
663,0.141230743486105
664,0.140570886163453
665,0.140984349574507
666,0.14098898207512
667,0.141523180135802
668,0.141734179737672
669,0.139168362419279
670,0.140470898462946
671,0.140335985355852
672,0.139155100269412
673,0.139425110815478
674,0.140213725774229
675,0.140217170508454
676,0.139939308126
677,0.141080782221784
678,0.13917846307811
679,0.139932289736036
680,0.142798300065856
681,0.140085628769014
682,0.138012232664712
683,0.135626047365164
684,0.131465983068312
685,0.12783600184106
686,0.12563775143128
687,0.122903185983221
688,0.122263104322575
689,0.122336088828433
690,0.123686348000291
691,0.126159073072819
692,0.12696119561766
693,0.127628972810919
694,0.129668602362448
695,0.130505062699904
696,0.13308726860038
697,0.134953520777348
698,0.133883166808067
699,0.134777699994721
700,0.137604290296689
701,0.137501735171581
702,0.141058457272071
703,0.142263271004235
704,0.145767323826754
705,0.147037527437868
706,0.150811746530092
707,0.153602486224808
708,0.15488623695985
709,0.158074615399056
710,0.157995283769399
711,0.159153053549843
712,0.160813597636261
713,0.15532457430245
714,0.15246181224019
715,0.144856802503262
716,0.13782286003572
717,0.133272296919988
718,0.132747972183782
719,0.134201476701115
720,0.137026729320187
721,0.137484257214476
722,0.142874980163253
723,0.143027549267619
724,0.143347228519489
725,0.144760379162567
726,0.145044898099166
727,0.148824490175058
728,0.151393258754643
729,0.156578203626523
730,0.162078519625271
731,0.168921009216769
732,0.175976297008153
733,0.183380559948345
734,0.188977840700758
735,0.192200977315805
736,0.196584531236504
737,0.199761179974982
738,0.202937828713461
739,0.20611447745194
740,0.211351545501233
741,0.213711435522336
742,0.216733131083744
743,0.219754826645153
744,0.222776522206561
745,0.224422142637034
746,0.225401225388987
747,0.227454499853004
748,0.225784426283518
749,0.228400564816523
750,0.228559861936652
751,0.22903460794844
752,0.232340978130753
753,0.23214004440685
754,0.229823771998605
755,0.216661790609278
756,0.203499809219951
757,0.190337827830624
758,0.168184781098724
759,0.147691205590677
760,0.131907531668609
761,0.127417430500885
762,0.131733025585106
763,0.140864559011185
764,0.154428078467036
765,0.168399687360302
766,0.18475407918771
767,0.200935156626512
768,0.210535684187158
769,0.218572984849953
770,0.224769438989518
771,0.227231225950553
772,0.230200072992316
773,0.233796078290854
774,0.232292350606715
775,0.233418962622222
776,0.233870984184622
777,0.232016860151542
778,0.235396715035154
779,0.23277558932708
780,0.235723591011004
