"wavelength","measurement"
380,0.0951294918039577
381,0.0905818867593921
382,0.0885121466949103
383,0.0863737677796872
384,0.0855249923518765
385,0.0885569882665942
386,0.0924370852482613
387,0.0957241440518936
388,0.099265186872814
389,0.101681903250165
390,0.0998828259706131
391,0.0983317770911898
392,0.0971073755410782
393,0.0970932890879308
394,0.097206578979267
395,0.100749894038545
396,0.110758448196556
397,0.121384573608757
398,0.132010699020959
399,0.14263682443316
400,0.148756231563771
401,0.15529815388184
402,0.158863182538676
403,0.159116481837081
404,0.158834701706652
405,0.156280729100295
406,0.156951926737402
407,0.156768834673298
408,0.156178498310997
409,0.15763431492487
410,0.162741597167784
411,0.160812503430942
412,0.165267836097991
413,0.166389689299319
414,0.165276060820818
415,0.165945246224576
416,0.163532710259551
417,0.160856041992059
418,0.161750326222771
419,0.159185478989689
420,0.160317977407445
421,0.159400070116648
422,0.159829670825406
423,0.160536414231787
424,0.160387573288091
425,0.156534096089791
426,0.154344403704373
427,0.149818279434976
428,0.144587323779475
429,0.143224168746595
430,0.143040998887415
431,0.14697334915242
432,0.152281005994146
433,0.156610660394699
434,0.163285251515495
435,0.166235668585607
436,0.167374870133441
437,0.169531651308497
438,0.171688432483552
439,0.173845213658608
440,0.174556535663041
441,0.177449363755338
442,0.180227874854089
443,0.181568786122452
444,0.184055074185272
445,0.186541362248091
446,0.189027650310911
447,0.190726280675832
448,0.191954670769586
449,0.198635108704444
450,0.197466053026692
451,0.196183093337861
452,0.195571360629826
453,0.194959627921791
454,0.194347895213756
455,0.193672186397535
456,0.193717158668136
457,0.195107578879304
458,0.196453571129383
459,0.199071464596228
460,0.198675437604822
461,0.196800131175132
462,0.202096462435152
463,0.196611427036402
464,0.193868941362631
465,0.192028258499959
466,0.190030364268291
467,0.188248055370071
468,0.186933279850335
469,0.184941641880408
470,0.188570463672445
471,0.188050898232089
472,0.18902839367039
473,0.191460691891425
474,0.191408623323249
475,0.194793507594291
476,0.190272796987758
477,0.190275475507484
478,0.190278154027211
479,0.190280832546938
480,0.190175004146273
481,0.18554136040224
482,0.182192618795495
483,0.180645000480785
484,0.175951411294255
485,0.171464524708411
486,0.172823421194872
487,0.173782572675676
488,0.175448677520781
489,0.179803315803022
490,0.181067608245497
491,0.182645513767385
492,0.186953672967193
493,0.184271416701755
494,0.187206583068866
495,0.184982784605979
496,0.185679275311525
497,0.182356725118019
498,0.183269439882751
499,0.178919687812067
500,0.179898709392352
501,0.177880530807492
502,0.180465567558578
503,0.180929542105543
504,0.179285389960023
505,0.184809182398957
506,0.183747837444558
507,0.18439980836667
508,0.185410813671576
509,0.185602750629823
510,0.182485099954294
511,0.185014472348708
512,0.183862516784989
513,0.178240562529583
514,0.177169432814693
515,0.173771445679407
516,0.172434391776505
517,0.171589191529352
518,0.171070347167454
519,0.174042126093625
520,0.177316279545272
521,0.179397216140775
522,0.181478152736278
523,0.183559089331781
524,0.182330049599286
525,0.182636994906721
526,0.183021462744633
527,0.18178748422699
528,0.183190225829839
529,0.185799174291282
530,0.185700022456172
531,0.186287502741562
532,0.185139270576999
533,0.186761303914264
534,0.187644443057578
535,0.185254448997471
536,0.187006289481811
537,0.185733791659136
538,0.184016043185336
539,0.182405672545663
540,0.183279057568351
541,0.181664369143842
542,0.180639918932024
543,0.181679862280242
544,0.182176411245882
545,0.181290332411547
546,0.182828292457934
547,0.182496646320976
548,0.182165000184018
549,0.18183335404706
550,0.180753179808401
551,0.182075013557604
552,0.18358666487577
553,0.182155457099223
554,0.181284008616968
555,0.183030016454236
556,0.180373388830928
557,0.180049959176168
558,0.178751094949969
559,0.177154542916507
560,0.178929764119517
561,0.176233293408328
562,0.179133501689831
563,0.176527625638928
564,0.177537020281807
565,0.174742678516904
566,0.173520065951934
567,0.171383164114546
568,0.172556308582792
569,0.170326501687599
570,0.170303567872415
571,0.170264614677631
572,0.170181571571834
573,0.170417712588012
574,0.171567776792662
575,0.16892781999474
576,0.169273123631141
577,0.169618427267543
578,0.169963730903944
579,0.170309034540346
580,0.170654338176747
581,0.1725063644844
582,0.171300255448
583,0.172176960236147
584,0.169136616938172
585,0.167895896855039
586,0.16215919380463
587,0.159323457269155
588,0.156987093250319
589,0.154650729231484
590,0.152314365212648
591,0.152568936956777
592,0.15416427005418
593,0.154902091708692
594,0.157171386522177
595,0.15676450051335
596,0.158084835922689
597,0.159350020566858
598,0.159254824660354
599,0.159679122213763
600,0.161209796263295
601,0.162493644216892
602,0.163496889791841
603,0.162417537724314
604,0.164295278297334
605,0.163522578344319
606,0.163958374791626
607,0.162710644975131
608,0.160696688378068
609,0.160442628955416
610,0.159187162606512
611,0.158247463148102
612,0.156260706193498
613,0.155664443872054
614,0.153743141318643
615,0.15602666919728
616,0.153524819001007
617,0.154655909961627
618,0.154766282915009
619,0.15491272774141
620,0.154471065464152
621,0.155317649360923
622,0.152166433619095
623,0.151445999996606
624,0.150522961707572
625,0.149599923418539
626,0.148676885129506
627,0.148257528002026
628,0.147700606295197
629,0.146916250837758
630,0.148123381639265
631,0.146322441653002
632,0.147057186943788
633,0.148011252077517
634,0.147838881137162
635,0.148727095710349
636,0.147039211261352
637,0.148855710002558
638,0.147871661366439
639,0.148122324492183
640,0.147699401275524
641,0.146809073563346
642,0.145926086763832
643,0.144532087728777
644,0.143138088693722
645,0.141744089658667
646,0.141889422973653
647,0.14113251139116
648,0.138108366002069
649,0.140778493335374
650,0.139285750251667
651,0.14096926347246
652,0.139017349443071
653,0.137420102207825
654,0.134733676036516
655,0.136018394245872
656,0.134693073496671
657,0.135609386428695
658,0.137895053521558
659,0.141169455100806
660,0.142685033061843
661,0.143622387387789
662,0.144148077579029
663,0.1434218351714
664,0.142302084824353
665,0.143127342084065
666,0.143015937444758
667,0.143375749675204
668,0.142981664556305
669,0.14087103624562
670,0.141589010126287
671,0.141328445975877
672,0.139891875848807
673,0.140704668064656
674,0.140655916758607
675,0.140650653513203
676,0.140826815980516
677,0.141588796179278
678,0.1398729118485
679,0.139662561177364
680,0.14261971716907
681,0.140167970239716
682,0.137382281777709
683,0.135190947056769
684,0.130480474963414
685,0.126881215144086
686,0.123722068694978
687,0.120988405396833
688,0.119713847027105
689,0.119667861102108
690,0.120803422875364
691,0.123272201125063
692,0.122935843144973
693,0.123889754440159
694,0.125796601917471
695,0.126034987950416
696,0.127974977558562
697,0.128964622047343
698,0.127810785799094
699,0.128297156137007
700,0.130316862902696
701,0.12989670884579
702,0.132585375804043
703,0.133307846939401
704,0.136282190691079
705,0.136767575109264
706,0.139916042106065
707,0.141507015019181
708,0.142833147458837
709,0.144591299719581
710,0.144161809858014
711,0.144771841884155
712,0.145232039321711
713,0.13934094908095
714,0.136018777315606
715,0.128613948365967
716,0.121835122662381
717,0.117034547086498
718,0.115919034221887
719,0.116939672044313
720,0.118750956878791
721,0.119074407776995
722,0.122535679391784
723,0.122222753666038
724,0.122602757400542
725,0.12323869735673
726,0.123214127178487
727,0.125977191986225
728,0.128509540368608
729,0.132634919897623
730,0.136983312624698
731,0.143010271235186
732,0.148364138968757
733,0.154819991393474
734,0.159298646228805
735,0.161371789970531
736,0.165181753981366
737,0.167524786698615
738,0.169867819415864
739,0.172210852133113
740,0.176561538807817
741,0.178880298913031
742,0.181112203321292
743,0.183344107729553
744,0.185576012137814
745,0.186111414001168
746,0.186960444587229
747,0.18885510630235
748,0.187376736057078
749,0.188828003445353
750,0.189535871153395
751,0.188579577358097
752,0.191290078795874
753,0.190380982303359
754,0.188547491390775
755,0.177367234159328
756,0.166186976927881
757,0.155006719696434
758,0.135864700545569
759,0.119199775417694
760,0.106476678951544
761,0.103331154498588
762,0.10631811609594
763,0.113477113443869
764,0.124581330667641
765,0.135610042845303
766,0.149587312357944
767,0.162844736113791
768,0.171442157317463
769,0.176801762966477
770,0.18220318966623
771,0.183298711520707
772,0.186973194350074
773,0.189110341959404
774,0.188082641825581
775,0.188727018035984
776,0.188935811386012
777,0.187637747491696
778,0.190290057025882
779,0.187842763858176
780,0.190634788416594
