"wavelength","measurement"
380,0.00855358008039454
381,0.00835756739951392
382,0.00837703243176094
383,0.00837115282121483
384,0.00861416329662153
385,0.00902385766796539
386,0.0097250600789769
387,0.0102046855690251
388,0.0110538966850436
389,0.0114655639334232
390,0.0113199260069478
391,0.011471951799106
392,0.0117273259622594
393,0.0118471801771434
394,0.0123099241689716
395,0.0128387927208598
396,0.0144949094257183
397,0.01610758510919
398,0.0177202607926618
399,0.0193329364761335
400,0.0202685297805497
401,0.0216714688003798
402,0.0224286545187983
403,0.022906220893959
404,0.0230268483418456
405,0.0230654308506233
406,0.0234689323649893
407,0.0236320867293053
408,0.0238867476394028
409,0.0241433564864042
410,0.0253544485706457
411,0.0254606604830687
412,0.0260630158563096
413,0.0264083823587261
414,0.0264367696747993
415,0.0267152247723477
416,0.0264456945724466
417,0.0261392100752357
418,0.026620230795764
419,0.0260289408878811
420,0.0265556749150974
421,0.0264545216998601
422,0.0265390444917034
423,0.0267367141521636
424,0.0268988398744166
425,0.0263358119507356
426,0.0258889307574961
427,0.0253079058616494
428,0.0245579413655692
429,0.0244529088239587
430,0.0243208590783414
431,0.0254444636418351
432,0.0263438834993647
433,0.027343429570556
434,0.0284835198877829
435,0.0290333886220373
436,0.0293540227229721
437,0.0296378030648531
438,0.0299215834067342
439,0.0302053637486152
440,0.0302880493878199
441,0.0307578026001506
442,0.0316191700966268
443,0.0318393635279238
444,0.0323105147210078
445,0.0327816659140919
446,0.0332528171071759
447,0.0338346902599159
448,0.033989701264601
449,0.035261318996129
450,0.0350447401686924
451,0.0348239186766701
452,0.0348108775880018
453,0.0347978364993334
454,0.0347847954106651
455,0.0349284804821278
456,0.0346751378577024
457,0.0351998286199677
458,0.0353442474257583
459,0.0358367972485684
460,0.0358735804688551
461,0.0355482605195234
462,0.0365717506395251
463,0.0355440939972704
464,0.0353154496074665
465,0.0349518499331997
466,0.0344467891536486
467,0.0343368895538155
468,0.0340253717839015
469,0.0336813369636108
470,0.0345291292314091
471,0.0343643805842288
472,0.0345500095893609
473,0.0350292581783197
474,0.0351168446178817
475,0.035655865819269
476,0.034823233728627
477,0.0348824030015122
478,0.0349415722743973
479,0.0350007415472824
480,0.0349923262600839
481,0.034108757717057
482,0.0336340451103983
483,0.0333930366109208
484,0.0325718285551433
485,0.0318122424333179
486,0.032117601007572
487,0.0323304588386599
488,0.032565494262931
489,0.0334885164802368
490,0.0335797447657572
491,0.0338867562608855
492,0.034629030089888
493,0.03414707924827
494,0.0347036957478087
495,0.0341831316948713
496,0.034357258389665
497,0.0335834252972867
498,0.0337910414760601
499,0.0329511645641909
500,0.0331227169034607
501,0.0327695988521149
502,0.033267554995423
503,0.0333052732871068
504,0.0329023012355209
505,0.0339405795552721
506,0.0337840579462541
507,0.0339569500102965
508,0.0341386386244613
509,0.0340785911327878
510,0.0335524207374704
511,0.0339902631029137
512,0.0337804805361542
513,0.0327740353605749
514,0.0326616817673109
515,0.0320002846653305
516,0.0317932912649667
517,0.0316400670285734
518,0.0315450465685417
519,0.0321042453905151
520,0.0327036991823636
521,0.0330832890630546
522,0.0334628789437455
523,0.0338424688244365
524,0.0336311263649881
525,0.0335968593107914
526,0.033754397332598
527,0.0336088279571819
528,0.0337114324992829
529,0.034299592594899
530,0.0341899701660186
531,0.0342233747220212
532,0.0342087773523584
533,0.0344224899453114
534,0.0346191721549448
535,0.034230214721182
536,0.0346178493761802
537,0.0344333087010951
538,0.0343035768442988
539,0.0343695612987958
540,0.0348249789849961
541,0.0349076773256304
542,0.035043031980847
543,0.0353251422122728
544,0.0356953530972576
545,0.0352305413733366
546,0.0353524002071508
547,0.034958169827856
548,0.0345639394485612
549,0.0341697090692664
550,0.033521991704909
551,0.0338569032181692
552,0.0339005056936416
553,0.033405165628911
554,0.0331233723062263
555,0.033423016118316
556,0.0328761901541146
557,0.0327210854021645
558,0.0325570244843558
559,0.0320975117050958
560,0.0324611284668761
561,0.0318321373699034
562,0.032421697886573
563,0.031769712188553
564,0.0319451827185166
565,0.0313591677901163
566,0.0311127022616969
567,0.0306050546482475
568,0.0308540007210152
569,0.0304239550367852
570,0.0302756460574411
571,0.0303429988448547
572,0.0302712631451358
573,0.0301530734045439
574,0.0304183558261882
575,0.0299830679923349
576,0.030045789475848
577,0.0301085109593611
578,0.0301712324428742
579,0.0302339539263873
580,0.0302966754099004
581,0.030626659844121
582,0.0303231603105443
583,0.0304898107189684
584,0.0299171652917079
585,0.0296699891659109
586,0.0286204183805761
587,0.0279944100253024
588,0.0275000135888354
589,0.0270056171523684
590,0.0265112207159014
591,0.0264492270700028
592,0.0266845761008578
593,0.0266233295489962
594,0.0271755978524853
595,0.0269229217906712
596,0.0270787658409422
597,0.0271972813526174
598,0.0272260699167613
599,0.0272613288609384
600,0.0275127694616283
601,0.0276097860733553
602,0.0277448833244057
603,0.0275821616470249
604,0.0277941182403452
605,0.0276393742019753
606,0.0276693096859322
607,0.027771848041812
608,0.0277888708009053
609,0.0281113253921769
610,0.0280498728358981
611,0.0279920214038712
612,0.0275131034196981
613,0.0272444173938724
614,0.026435934380537
615,0.0264990220480558
616,0.0258420640356593
617,0.0258170065056627
618,0.0256930454700566
619,0.0256861343389762
620,0.0255259317723204
621,0.0255099724864795
622,0.0249617108961166
623,0.0247378438766308
624,0.0244747260542038
625,0.0242116082317767
626,0.0239484904093496
627,0.0239309501094424
628,0.0237601504670663
629,0.0236194343926255
630,0.0236183902936004
631,0.0233354285075855
632,0.0232477372057848
633,0.0233531698977142
634,0.0231983811315121
635,0.0232167458102416
636,0.0229563631644695
637,0.0231367203759316
638,0.0229190913367799
639,0.0228919506283518
640,0.0226979825027681
641,0.0224467805976653
642,0.0223338958737331
643,0.0220191207794574
644,0.0217043456851817
645,0.021389570590906
646,0.0213319020791672
647,0.0211602855904322
648,0.0206230052966467
649,0.0210220380030944
650,0.0207175226063682
651,0.0209164766106347
652,0.0205134836981456
653,0.0202058379110858
654,0.0197254585817613
655,0.0198411846207534
656,0.0195616916049558
657,0.0197586403638107
658,0.0200216523166559
659,0.0204876344868802
660,0.0206213897839464
661,0.0205366435508232
662,0.020692209087623
663,0.0204898315589223
664,0.0203257273304038
665,0.020206431044426
666,0.0202118306785287
667,0.0202477677104307
668,0.0201131620106465
669,0.019744988574338
670,0.0197625589796206
671,0.0196556651963921
672,0.0195191725703407
673,0.0194194808179815
674,0.0193889290685744
675,0.019296029602457
676,0.0192951031549544
677,0.0193585016669314
678,0.0190213076674339
679,0.0188713602316115
680,0.0194012880928117
681,0.0188766747962667
682,0.0184607141751943
683,0.0180079595543894
684,0.0173205621429002
685,0.0167409179743295
686,0.0162606310507465
687,0.0158065856004545
688,0.0156379209233433
689,0.0155668021269776
690,0.015676126902585
691,0.0159171709938708
692,0.0159545124766711
693,0.0160361371691139
694,0.0162813632470116
695,0.0162772750821621
696,0.0165108656221218
697,0.0167079088454502
698,0.0164200479692736
699,0.0164486270990038
700,0.0167740874831249
701,0.0166586614899234
702,0.0170471811820846
703,0.0171806200463496
704,0.0174988441702028
705,0.0177546838552665
706,0.0179825318988931
707,0.0183319715800161
708,0.0184221805153975
709,0.0185702380349018
710,0.0185167122306572
711,0.0185128551603643
712,0.0185423302297023
713,0.0176561340487329
714,0.0170918246106623
715,0.0161331918383466
716,0.0151664618171722
717,0.0144882486418932
718,0.0142959834935617
719,0.0144189986565487
720,0.0146695780879125
721,0.014572824058885
722,0.0150339847748467
723,0.0150094047306592
724,0.0149082351302214
725,0.0150046230778454
726,0.0149016679827714
727,0.0151439777329983
728,0.0153491562378182
729,0.0158030573952094
730,0.0163730372309663
731,0.0171893392272211
732,0.0176487098683433
733,0.0183127163913095
734,0.0188053714958029
735,0.0189919610822213
736,0.0194775599567699
737,0.0196876713516611
738,0.0198977827465522
739,0.0201078941414434
740,0.0205833936957085
741,0.0207490320775416
742,0.0208964484828785
743,0.0210438648882153
744,0.0211912812935522
745,0.0212277366597149
746,0.0213481868709216
747,0.0213359796186865
748,0.0211004987777003
749,0.0211541569125791
750,0.0211439764016287
751,0.0209550161213544
752,0.0211916619599963
753,0.0209582129646191
754,0.0207118219619592
755,0.019399819045723
756,0.0180878161294867
757,0.0167758132132505
758,0.0146240861726207
759,0.0127310248015133
760,0.0113275742221032
761,0.0108845956767484
762,0.0111784769101602
763,0.0118848424939728
764,0.0131428976287
765,0.0141496991594287
766,0.0157379230776093
767,0.0169769479426236
768,0.0176967023143409
769,0.0182762596426118
770,0.0188423405304997
771,0.0188377398115839
772,0.0191890660389104
773,0.0193663822671929
774,0.0192775885032188
775,0.0193429350785324
776,0.0191094891882969
777,0.0190220961304202
778,0.0190554512870523
779,0.0188612080108672
780,0.0190254420944438
