"wavelength","measurement"
380,0.0419025419301301
381,0.0400792116681439
382,0.0392934877380666
383,0.0383691819603119
384,0.0386401875874021
385,0.0402486507158024
386,0.042644654355042
387,0.0441197831198289
388,0.0469376810945431
389,0.0482895645808223
390,0.048346029059444
391,0.0482500674299175
392,0.0481217677877692
393,0.0485360746839357
394,0.049566791418766
395,0.0526076502092083
396,0.0587894224058938
397,0.0657028496305972
398,0.0726162768553005
399,0.0795297040800039
400,0.0850159163118124
401,0.0906443554004292
402,0.0945344072621763
403,0.0969455867042827
404,0.0986875027926384
405,0.0984776409453142
406,0.101597700129819
407,0.103304660034799
408,0.104537697929845
409,0.107678449137609
410,0.113207303829843
411,0.114766809907702
412,0.117923397114481
413,0.121564270935247
414,0.121949045941596
415,0.124769279150259
416,0.124025867674649
417,0.123589832945475
418,0.125346127188318
419,0.123969899918642
420,0.126650429899356
421,0.127091270654772
422,0.127650714722888
423,0.128963509031195
424,0.129613146890564
425,0.126923379721561
426,0.126385739485119
427,0.122395859742239
428,0.118769536834076
429,0.117780442570577
430,0.118689857793592
431,0.122460762746584
432,0.126534311577443
433,0.130432354034885
434,0.13586183999712
435,0.138850447603876
436,0.140383273973877
437,0.142501206035996
438,0.144619138098114
439,0.146737070160233
440,0.147453062726102
441,0.149553125337928
442,0.153837749716229
443,0.153865069713212
444,0.156074130627602
445,0.158283191541992
446,0.160492252456382
447,0.162605614883135
448,0.16242088627623
449,0.168732060727572
450,0.167466303071689
451,0.167121473604222
452,0.166302193922408
453,0.165482914240595
454,0.164663634558781
455,0.165017371759257
456,0.164208004109236
457,0.165773858557176
458,0.16668801533357
459,0.16893855460595
460,0.168802366947413
461,0.167392683654519
462,0.172540735317432
463,0.167070357805519
464,0.166202518775047
465,0.16478753399719
466,0.162540877462474
467,0.16182602421279
468,0.160978609271226
469,0.159691093795338
470,0.162669473183383
471,0.162757288196136
472,0.163694764146528
473,0.166134405883742
474,0.166975733218815
475,0.16989004621947
476,0.166438369036481
477,0.166722114757978
478,0.167005860479475
479,0.167289606200972
480,0.166845357814332
481,0.163323334782378
482,0.16064471604562
483,0.159872562807257
484,0.15578800279136
485,0.151498450992634
486,0.152652069499761
487,0.15362386593848
488,0.154804639906382
489,0.158761390408674
490,0.160188521645208
491,0.161270613748821
492,0.165017001896934
493,0.163100703658256
494,0.165787311226986
495,0.163749413114554
496,0.164672100823194
497,0.161813557699227
498,0.162238553515672
499,0.158755449628466
500,0.159200624198661
501,0.157682167500332
502,0.159889366699698
503,0.160462086122247
504,0.158993199355661
505,0.163715512665469
506,0.162907661846637
507,0.163787098355926
508,0.164488196663345
509,0.164885338373565
510,0.161755756096265
511,0.164340452536889
512,0.163030271568411
513,0.158418999670006
514,0.157551505835994
515,0.154434805491524
516,0.15325517050626
517,0.152702777144054
518,0.15185287262308
519,0.154901482271479
520,0.157689187270953
521,0.159552084638226
522,0.161414982005498
523,0.16327787937277
524,0.162672210254489
525,0.162478197516998
526,0.163542427470582
527,0.162397243506743
528,0.16326765723229
529,0.165399469326046
530,0.165607903199172
531,0.165928625856716
532,0.165668783413574
533,0.167154938333982
534,0.167270781415522
535,0.165560485644693
536,0.167171692593366
537,0.165910945202527
538,0.164406651665619
539,0.163712067441925
540,0.164182929640013
541,0.163019136657749
542,0.161758668152554
543,0.1624803213501
544,0.163579577614041
545,0.16265828274387
546,0.164226793076776
547,0.163974924383404
548,0.163723055690033
549,0.163471186996661
550,0.162801772689992
551,0.16373215282348
552,0.165242843192332
553,0.163598720304513
554,0.162730097470018
555,0.164595881636864
556,0.161873775629057
557,0.161733899339959
558,0.160806559118465
559,0.158843188821893
560,0.16084891705978
561,0.158045473147278
562,0.161004400435124
563,0.158233604923905
564,0.159275147038278
565,0.156874378657479
566,0.155713258294119
567,0.153818884722966
568,0.154938829341915
569,0.153069162489617
570,0.152887864523936
571,0.15316904474837
572,0.153107115800337
573,0.153117789884043
574,0.154135975837207
575,0.152182539311241
576,0.15262082000963
577,0.153059100708019
578,0.153497381406408
579,0.153935662104798
580,0.154373942803187
581,0.156518196306921
582,0.155613979854538
583,0.156650351457021
584,0.154125606191172
585,0.15370088695333
586,0.148915581475143
587,0.14655167760655
588,0.144736606643434
589,0.142921535680317
590,0.1411064647172
591,0.141520153065616
592,0.143111032701992
593,0.143557188782062
594,0.146056338841673
595,0.146087199546455
596,0.146985440743788
597,0.148547331045089
598,0.148673355692047
599,0.149370420743933
600,0.151258970029174
601,0.152098727670566
602,0.153110387826574
603,0.152321793246902
604,0.154402860501802
605,0.153807001465019
606,0.153976966997605
607,0.153160444892023
608,0.151580871266353
609,0.151509136889381
610,0.150186320944046
611,0.149664614126523
612,0.147828165903731
613,0.147818959114837
614,0.146182547440026
615,0.148060337863757
616,0.146095665052265
617,0.147182760413032
618,0.14745515695133
619,0.147805562653903
620,0.14753140104276
621,0.148595304148022
622,0.145840161189917
623,0.145573174388636
624,0.144803415525388
625,0.14403365666214
626,0.143263897798892
627,0.143193382972242
628,0.142616719713846
629,0.142425632955582
630,0.143389696332486
631,0.141367897436432
632,0.142558704403921
633,0.14335954196051
634,0.143532817454823
635,0.144929059578983
636,0.142989656444041
637,0.144666261733397
638,0.144027451385652
639,0.144557018087223
640,0.1434996788416
641,0.143033833584798
642,0.142480293112757
643,0.14135403342179
644,0.140227773730824
645,0.139101514039857
646,0.13883279560184
647,0.138700253627791
648,0.135597498435127
649,0.138466320603125
650,0.136949535598086
651,0.138750562717991
652,0.136866845997311
653,0.135138946204545
654,0.132719437932036
655,0.134093113444446
656,0.132445038387537
657,0.134227179364811
658,0.135896598036706
659,0.139599887563627
660,0.141088558651848
661,0.141973060480495
662,0.142605004884796
663,0.142302552925036
664,0.141509391779149
665,0.141920520184228
666,0.14242467717729
667,0.142935650267831
668,0.142925032784779
669,0.140477425143856
670,0.141065991414217
671,0.141070678307183
672,0.140307092145654
673,0.140905337817309
674,0.140678120935719
675,0.141441547569912
676,0.141062862965192
677,0.142138623321402
678,0.140448372756075
679,0.140345293917814
680,0.143695817987388
681,0.14073692864982
682,0.138761519403385
683,0.136043429683145
684,0.132137213892974
685,0.128581118926207
686,0.126030637034794
687,0.123547939507991
688,0.122444984609392
689,0.12294635931854
690,0.123869937845053
691,0.126220992427684
692,0.126899484745471
693,0.128001739836169
694,0.130575918969767
695,0.130667720883964
696,0.133780473499125
697,0.135298267730902
698,0.134328277321998
699,0.135129306028325
700,0.138006286593158
701,0.138042872806222
702,0.141286537319958
703,0.142602680801274
704,0.146331603038466
705,0.147298547748613
706,0.150549892288641
707,0.153668783715876
708,0.155149759062712
709,0.158649277048048
710,0.158444042730166
711,0.159352821650287
712,0.160787495605187
713,0.155499991626301
714,0.153006035418441
715,0.145130748739939
716,0.138067785483854
717,0.133162551639176
718,0.132912590105
719,0.134341160094245
720,0.137306930037153
721,0.137344990786698
722,0.142493206686386
723,0.143126870414615
724,0.14343599001893
725,0.14478939995111
726,0.145259802041911
727,0.148715036769993
728,0.151567633665113
729,0.157209322384261
730,0.162430271596748
731,0.169558841116684
732,0.176558505730028
733,0.183800360665371
734,0.18965707726019
735,0.192808078869232
736,0.197194968512752
737,0.200250808489729
738,0.203306648466706
739,0.206362488443683
740,0.21158596342248
741,0.214540737912179
742,0.217767413640939
743,0.220994089369699
744,0.22422076509846
745,0.225091622207214
746,0.226586449403834
747,0.228181979303735
748,0.227474970609215
749,0.228627810933706
750,0.229959823108102
751,0.229532464579478
752,0.233341694977061
753,0.232547502949439
754,0.230533447028779
755,0.21729114421369
756,0.204048841398602
757,0.190806538583514
758,0.168376168195581
759,0.147995069091405
760,0.132171345647217
761,0.128074317717415
762,0.132091782574507
763,0.141181869644536
764,0.154864057439744
765,0.168381591063998
766,0.185364266284747
767,0.202063464870724
768,0.211755307843596
769,0.219234083416546
770,0.22605644424694
771,0.228003445783621
772,0.231301236792072
773,0.234679210907721
774,0.23329494379711
775,0.23424980778387
776,0.234903807363082
777,0.232675331836413
778,0.235822645142864
779,0.23275570007976
780,0.236872580736706
