"wavelength","measurement"
380,0.00165164535827998
381,0.00162683010096494
382,0.00168305514507261
383,0.00165753262009745
384,0.00175042616473872
385,0.00185014223562609
386,0.00200044277343092
387,0.00211442433011481
388,0.00225670483349954
389,0.00241079003705642
390,0.00241190462716151
391,0.00245163720290337
392,0.00248827879107423
393,0.00261157277129488
394,0.00274852893821462
395,0.00290923798725953
396,0.00329575158236663
397,0.00372949806202091
398,0.00416324454167518
399,0.00459699102132945
400,0.00490113265580604
401,0.00535123684579157
402,0.00566101235775106
403,0.00586382279606038
404,0.00607312307414199
405,0.00614850534804481
406,0.00643148060169922
407,0.00665601730216491
408,0.00682781826604102
409,0.00708563665177708
410,0.00756928214073638
411,0.00773928051320728
412,0.00803663396111834
413,0.00840468172236972
414,0.0084927198493505
415,0.00872073733197034
416,0.00875399696259183
417,0.00882012722917535
418,0.00905472317273289
419,0.0089296929232763
420,0.00921506857665945
421,0.00926628434065877
422,0.00939324893676243
423,0.00956913997793429
424,0.00963252565179072
425,0.00958719401656759
426,0.0095302630202558
427,0.00936158085124948
428,0.00909788476962479
429,0.00911185473003441
430,0.00925492558070716
431,0.00956567903786561
432,0.0100161185256045
433,0.0103935889512664
434,0.0109309117138999
435,0.0112101376258622
436,0.0113750870900279
437,0.0116146173439009
438,0.011854147597774
439,0.012093677851647
440,0.0122205041496907
441,0.0125290584361808
442,0.0129369300668692
443,0.0131021255417026
444,0.0134029926085149
445,0.0137038596753271
446,0.0140047267421394
447,0.0143187955787975
448,0.0144577188035087
449,0.0151111801338231
450,0.015117399687313
451,0.0150784181901401
452,0.0150925100455396
453,0.015106601900939
454,0.0151206937563385
455,0.0152204420916245
456,0.0152156691207519
457,0.0154879049712594
458,0.0156013640166682
459,0.0159115375864699
460,0.0159639019683567
461,0.0158497329256299
462,0.0163841051565662
463,0.0160188854429763
464,0.015872004029669
465,0.0158228536996385
466,0.0156290271769226
467,0.0156676275412785
468,0.0155625033810003
469,0.0154832276086835
470,0.0158865446388697
471,0.0159206903365049
472,0.0160628848221129
473,0.0162949025945277
474,0.0164421759737075
475,0.0167479768361931
476,0.0164011242055897
477,0.0164628111943401
478,0.0165244981830905
479,0.0165861851718409
480,0.0166044643664788
481,0.0162336530614946
482,0.0160508217770224
483,0.0160323308653554
484,0.0156304801448866
485,0.0153533864846743
486,0.0154864436055137
487,0.0156427962028703
488,0.0158123718396867
489,0.0162653997710919
490,0.0164558723184542
491,0.016621429024009
492,0.0170540903609597
493,0.016916676951185
494,0.0172334106591273
495,0.0170556867876011
496,0.0171468808779578
497,0.0169361014822462
498,0.0170843347920855
499,0.0167660027148857
500,0.0168997402238028
501,0.0167961797452228
502,0.0171348615753418
503,0.0172580328804936
504,0.0171595504903593
505,0.0177669383048178
506,0.0177438726941941
507,0.0179062800316347
508,0.0180732344067269
509,0.0181412239987493
510,0.0179082816267321
511,0.018265652993718
512,0.0182633862693107
513,0.0177822003989854
514,0.0177876000000235
515,0.0175515868428341
516,0.0175103820926216
517,0.0175468077723564
518,0.0175674939632438
519,0.0179881281585959
520,0.0184033043804905
521,0.0186974606995695
522,0.0189916170186486
523,0.0192857733377277
524,0.0192554988100444
525,0.0193754892091849
526,0.0195687105105122
527,0.019494237074833
528,0.0196804172206617
529,0.0200422918442724
530,0.0200982836166672
531,0.0201874726676874
532,0.020165912934958
533,0.0204274129571771
534,0.0204966118847902
535,0.0203112064506241
536,0.0205628337235851
537,0.0205040106150507
538,0.020420572764907
539,0.0203903814710657
540,0.0205969388071471
541,0.0205331384182146
542,0.0205173070921536
543,0.0206767808983018
544,0.0208399492693261
545,0.0206945407571979
546,0.0208276822667167
547,0.020784516240045
548,0.0207413502133732
549,0.0206981841867015
550,0.0204713912794903
551,0.0206700942593258
552,0.0207923511196323
553,0.0206098501613031
554,0.0204956217769796
555,0.0207213524164473
556,0.0204586896047763
557,0.0204100691572265
558,0.020257848367455
559,0.0201011110587291
560,0.0203246040162504
561,0.0199546405150863
562,0.020312425203564
563,0.0200052296990356
564,0.0200984133012463
565,0.0198038041812642
566,0.0197299530031482
567,0.0194697024931592
568,0.0195702236432619
569,0.0193108023676194
570,0.0192812232234963
571,0.0193376115325378
572,0.0193130496330426
573,0.0192793813303564
574,0.0193866122761071
575,0.0191584933928754
576,0.019176103761712
577,0.0191937141305485
578,0.0192113244993851
579,0.0192289348682216
580,0.0192465452370582
581,0.0194390889018564
582,0.0193087259834171
583,0.0193596283347736
584,0.0190378072598624
585,0.0189371993246361
586,0.0183541854865528
587,0.0180524386396243
588,0.0178117940003313
589,0.0175711493610384
590,0.0173305047217455
591,0.0173711909452974
592,0.0175099335477839
593,0.0174952158851694
594,0.0177721952703803
595,0.0176983907554792
596,0.0178196898506688
597,0.0178889695542856
598,0.0179155906068828
599,0.0179360621194203
600,0.0180708097650806
601,0.0181377901393225
602,0.0182115173500296
603,0.0181294333085872
604,0.0182557588287095
605,0.0181340964996812
606,0.0181588837720829
607,0.0181115287070707
608,0.0179128255921519
609,0.0179415313528887
610,0.0178208804682056
611,0.0176966027653319
612,0.0175186456606915
613,0.0173712303235309
614,0.0170552119916958
615,0.017142884928704
616,0.0169146118325814
617,0.0170258162731678
618,0.0169366480369552
619,0.0169612720119679
620,0.0168820435478046
621,0.0169528618947541
622,0.0165808430340026
623,0.0165244490418951
624,0.0163932916217957
625,0.0162621342016963
626,0.016130976781597
627,0.0160814850407982
628,0.0160047166881397
629,0.0159231193593152
630,0.0160099573056794
631,0.0157676962694396
632,0.0157988536204934
633,0.0158722389168384
634,0.0158008918914485
635,0.0158485808223008
636,0.0156635055288567
637,0.0157698144511481
638,0.01556519009328
639,0.0156202015853743
640,0.0154690822779938
641,0.0153609536731269
642,0.0152157458540924
643,0.0150308741611817
644,0.014846002468271
645,0.0146611307753603
646,0.0146991554993348
647,0.0145670785733313
648,0.0142153311839641
649,0.0144378704079333
650,0.0142344381153284
651,0.0143094494618381
652,0.014090212107686
653,0.0138402663479086
654,0.0135404869658087
655,0.0136148848981167
656,0.0134173810093114
657,0.0135051846175048
658,0.0136318959492949
659,0.0139637306025868
660,0.0140114723368683
661,0.0140160553422886
662,0.0140193035749603
663,0.0138925486356312
664,0.0137586961236653
665,0.0137693842439242
666,0.0137279608466891
667,0.0136714574003284
668,0.0136454324731614
669,0.0133803237633783
670,0.0133791628344609
671,0.0132665746871711
672,0.0131756280863048
673,0.0131966042834424
674,0.0131644027684127
675,0.0131119672471909
676,0.0130494239743374
677,0.0131044747132919
678,0.0129069675782852
679,0.0128428931952243
680,0.0131205382285625
681,0.0128750438889651
682,0.0125944115178321
683,0.0123758999612921
684,0.0120061619521117
685,0.0117068620640693
686,0.0114743385151097
687,0.0113079895204953
688,0.0112029776660708
689,0.0112901460221687
690,0.0114903247049209
691,0.0117148995521766
692,0.0118175744044932
693,0.0119504804184292
694,0.0122414141407561
695,0.0123231294948812
696,0.0126407057369762
697,0.0128204392581448
698,0.0127698345892308
699,0.0129066244881936
700,0.0132056937372942
701,0.0132293385789559
702,0.0135790361548688
703,0.0137422600456143
704,0.0141120350331918
705,0.0142303291122911
706,0.0145649725036231
707,0.0148491184342243
708,0.0149938275614378
709,0.0152621159419399
710,0.0152053870952938
711,0.0153021641329965
712,0.0154225166898834
713,0.0148661500287722
714,0.0145658260536478
715,0.0138649284527568
716,0.0131576636654128
717,0.0127366762162919
718,0.0126222537718039
719,0.0127386040917044
720,0.0129388846522732
721,0.0129056595587182
722,0.0132832438388911
723,0.0132934010258254
724,0.0132639471431471
725,0.0132933886003819
726,0.0132799932166846
727,0.0135364387053972
728,0.013730110645238
729,0.01402846401126
730,0.0144282671607124
731,0.0149192455236092
732,0.0154029299776922
733,0.0159117560763808
734,0.0162528649926696
735,0.016427756667287
736,0.0166968609929554
737,0.0168166124669188
738,0.0169363639408821
739,0.0170561154148455
740,0.017343836946997
741,0.0174329535129873
742,0.0175239984647686
743,0.0176150434165499
744,0.0177060883683312
745,0.0178008481791229
746,0.0177218221533328
747,0.0177383010530084
748,0.0174960496085055
749,0.0175855699915746
750,0.0175001783558585
751,0.0173986881785171
752,0.0175184349556555
753,0.0172771721517148
754,0.0171073559080465
755,0.0160500806527834
756,0.0149928053975204
757,0.0139355301422574
758,0.0122428064820544
759,0.0107329595345955
760,0.0096439451097868
761,0.00936294132715722
762,0.00965450251109262
763,0.0102758860552698
764,0.0111830896729932
765,0.0120348492034647
766,0.0131259521367236
767,0.0141746730248065
768,0.0147350922629848
769,0.0151181545976489
770,0.0154222113540006
771,0.0155728106034829
772,0.0156906919189162
773,0.0158266001794224
774,0.0156145792348758
775,0.0156180826986849
776,0.01561821890658
777,0.0153824617230844
778,0.0154675964139538
779,0.015277731071541
780,0.0154202870860417
