"wavelength","measurement"
380,0.104254766094926
381,0.100654390416761
382,0.0966051659216474
383,0.0938820672011711
384,0.0936236434162639
385,0.097931576045977
386,0.102567312607468
387,0.107539819973374
388,0.110879610723735
389,0.114184754104416
390,0.113028698020622
391,0.110299197900086
392,0.110607224679054
393,0.110223334793639
394,0.111434965489175
395,0.114808875571442
396,0.12659902100729
397,0.138881384830321
398,0.151163748653353
399,0.163446112476384
400,0.171823323147721
401,0.180549190839471
402,0.185338577750062
403,0.18591729038475
404,0.186050065105559
405,0.183558721608889
406,0.185388285288129
407,0.185165670631686
408,0.185084646181294
409,0.186407671716075
410,0.193441522065114
411,0.193443408680187
412,0.19711889501684
413,0.200901771058892
414,0.201074045972922
415,0.201784547052364
416,0.199308420242231
417,0.197236564020039
418,0.199555797207299
419,0.195608576409961
420,0.198592212514457
421,0.19779295342831
422,0.199680386790863
423,0.199967541260624
424,0.199815879954279
425,0.196523459113548
426,0.19480349489422
427,0.189845778896967
428,0.183018798398944
429,0.182043517234753
430,0.18227745870337
431,0.188003661511372
432,0.193684599438492
433,0.200562465128187
434,0.20864374474049
435,0.213029141293033
436,0.215226698019197
437,0.218661746508804
438,0.222096794998412
439,0.225531843488019
440,0.227105166608891
441,0.230519998248667
442,0.235968491757498
443,0.238562948207417
444,0.241562841415115
445,0.244562734622812
446,0.247562627830509
447,0.252006852137134
448,0.252787286013438
449,0.263268652361146
450,0.26178479011272
451,0.260800826139449
452,0.259843389307796
453,0.258885952476143
454,0.25792851564449
455,0.259212702339576
456,0.258180895439471
457,0.260750905943029
458,0.262825386796712
459,0.266338443014093
460,0.267171544983703
461,0.265409071798323
462,0.272115503374865
463,0.26473984459428
464,0.262451825048905
465,0.260662166759401
466,0.257544015342756
467,0.256087967411415
468,0.255108132364009
469,0.25151714145846
470,0.257839227314272
471,0.256701304436955
472,0.258693870718581
473,0.262394925552584
474,0.263993350900137
475,0.267936978450201
476,0.262226811740402
477,0.262356348762378
478,0.262485885784354
479,0.26261542280633
480,0.26245608829859
481,0.2564109198353
482,0.252503919000263
483,0.251822206179885
484,0.243641746653889
485,0.23860400906657
486,0.239770363643521
487,0.241531895432331
488,0.243091084647042
489,0.250041481875896
490,0.251933471841429
491,0.253813035140213
492,0.260560362406274
493,0.257230955560972
494,0.261884269027569
495,0.258888580959043
496,0.260345777588378
497,0.256123911234555
498,0.257631709034156
499,0.25177042444126
500,0.253310301962423
501,0.25118368528613
502,0.254917996873018
503,0.255574843280155
504,0.252859429396567
505,0.26193319973078
506,0.260714911320108
507,0.262673950102594
508,0.263936812051696
509,0.264295964006035
510,0.259956878953729
511,0.264163899685102
512,0.26344681788951
513,0.255286208630413
514,0.254147627374411
515,0.249230803248926
516,0.247218448926419
517,0.246978126688346
518,0.245655709798228
519,0.2506282605767
520,0.255025049425889
521,0.258511753758123
522,0.261998458090356
523,0.265485162422589
524,0.264642403054269
525,0.264498524456919
526,0.266436203215397
527,0.26562980465393
528,0.266455992582675
529,0.270592345963687
530,0.270271602634175
531,0.271592772892018
532,0.271437688754329
533,0.27277528442136
534,0.274084480863003
535,0.271120831636956
536,0.274737189700356
537,0.272600320231846
538,0.270804362108977
539,0.268658744692452
540,0.270465436886099
541,0.269147386810856
542,0.26707659272581
543,0.268996603214264
544,0.270902518479321
545,0.268967894878559
546,0.270773934528552
547,0.270822108626626
548,0.270870282724701
549,0.270918456822776
550,0.269594083118651
551,0.271166566914603
552,0.274147683648925
553,0.272159103632324
554,0.27084476196816
555,0.274446156358311
556,0.270143124793343
557,0.270177948661501
558,0.26852843899293
559,0.266282520972812
560,0.269635586327278
561,0.265076658410361
562,0.270642039099166
563,0.266739178007839
564,0.268502754854035
565,0.265871340723048
566,0.264173866742186
567,0.260597718560075
568,0.262695676334233
569,0.260490145882552
570,0.260307218274405
571,0.260874685381105
572,0.261456554324374
573,0.261076943534816
574,0.263318414056136
575,0.260106051865516
576,0.260822461533982
577,0.261538871202449
578,0.262255280870915
579,0.262971690539382
580,0.263688100207848
581,0.267276236945936
582,0.265619144211886
583,0.26692288102591
584,0.262642075211146
585,0.262224372058855
586,0.254288069839301
587,0.25017706525748
588,0.247086224781812
589,0.243995384306143
590,0.240904543830475
591,0.241780704419204
592,0.2443330544939
593,0.245196546224674
594,0.24895036009417
595,0.248723347201197
596,0.250489510021596
597,0.252100333124799
598,0.253359353918575
599,0.253186101576179
600,0.256679606446808
601,0.257199995737714
602,0.259391416840806
603,0.258207303942129
604,0.260708305874959
605,0.25972630443194
606,0.260418312051671
607,0.259554638898183
608,0.256092007821447
609,0.256895399357139
610,0.254734997411867
611,0.253920845088854
612,0.25147061894811
613,0.250445073470968
614,0.247415911395624
615,0.251489602559483
616,0.247692904183858
617,0.249395123716151
618,0.249146361296348
619,0.250237931642418
620,0.250146739587816
621,0.25205886231323
622,0.247377655548945
623,0.246917343498973
624,0.24570659004985
625,0.244495836600727
626,0.243285083151604
627,0.242962642357436
628,0.241825345827567
629,0.241812096184091
630,0.243367116540168
631,0.23992903258482
632,0.241551464908466
633,0.243374559037261
634,0.243421279701773
635,0.245202368263713
636,0.242929796300155
637,0.245214754136736
638,0.243924245164552
639,0.244447318025536
640,0.243172503074197
641,0.242386860647709
642,0.241370533241787
643,0.239553660224173
644,0.237736787206558
645,0.235919914188943
646,0.237350848542938
647,0.235864123679812
648,0.230788121246137
649,0.235142560299258
650,0.233010363089284
651,0.235859885169917
652,0.233003661413282
653,0.23002259940697
654,0.226184379876164
655,0.228142463486435
656,0.225397560758604
657,0.227615787126304
658,0.230346186696018
659,0.236431948013079
660,0.238827595653165
661,0.240143497116738
662,0.241312669312594
663,0.241466040132049
664,0.239449583282288
665,0.240923420755505
666,0.240825868646434
667,0.241590217520683
668,0.241125088255942
669,0.238191030652317
670,0.238604315536706
671,0.237823226266883
672,0.237505440269853
673,0.238094373881005
674,0.23889408870521
675,0.23822017436374
676,0.239287894394872
677,0.239902443461727
678,0.237148698665692
679,0.237932766600973
680,0.242004365040113
681,0.238970837043513
682,0.234919517491702
683,0.23095629956532
684,0.223405902728959
685,0.217858573126295
686,0.213935229875518
687,0.208940723771059
688,0.207596081558746
689,0.207208236098011
690,0.210123822600709
691,0.213541166960001
692,0.214584155597839
693,0.216303305024536
694,0.218498188292351
695,0.219844886521362
696,0.223382505145533
697,0.225804365477497
698,0.222873683707674
699,0.223606329563751
700,0.227930964505403
701,0.226315354727224
702,0.231595410831959
703,0.233331057941837
704,0.237599459704739
705,0.238889764604214
706,0.243277801334691
707,0.246705459007625
708,0.248356735842219
709,0.251783102847229
710,0.25114014831444
711,0.250468655212029
712,0.253349424803688
713,0.243627883249243
714,0.239295422455072
715,0.227623010063114
716,0.215461911755645
717,0.20742019389471
718,0.20549942490147
719,0.207490515411032
720,0.210687610291445
721,0.211748615866614
722,0.216937496909365
723,0.218169714046209
724,0.217037766845407
725,0.218020621777367
726,0.218262551907368
727,0.222156892970495
728,0.225083697433713
729,0.232647802709857
730,0.239372485464036
731,0.248234654426344
732,0.257262867553265
733,0.266563271783579
734,0.273969037265404
735,0.2772877828275
736,0.282566275666101
737,0.286161335496829
738,0.289756395327556
739,0.293351455158284
740,0.299642899721924
741,0.302577332835351
742,0.305921473668253
743,0.309265614501154
744,0.312609755334056
745,0.313841045881208
746,0.314598608297651
747,0.31680290007777
748,0.314560694643812
749,0.317217139776825
750,0.317476785838599
751,0.315987902301406
752,0.321420326163877
753,0.320317015428493
754,0.317044576932462
755,0.299097837365974
756,0.281151097799485
757,0.263204358232997
758,0.233329608021958
759,0.205932245976383
760,0.185413218700054
761,0.179971073998037
762,0.185042812841859
763,0.197062743467533
764,0.214368725182757
765,0.232235512900639
766,0.255139984014437
767,0.276857694578436
768,0.289704264150461
769,0.298899606686417
770,0.305878178505883
771,0.310133415881333
772,0.313723689953004
773,0.317857919078407
774,0.315786095441681
775,0.317160781694753
776,0.317899038323897
777,0.31481330695311
778,0.319715998918316
779,0.316580538925354
780,0.320482189545308
