"wavelength","measurement"
380,0.000630518727726202
381,0.000626642599123086
382,0.000641947120568494
383,0.000623010899633073
384,0.000666343476348789
385,0.000708932160685048
386,0.000718163938466796
387,0.000809217466309613
388,0.000842373729349124
389,0.000868516331086644
390,0.000891779609903961
391,0.00089085272328823
392,0.000906528816512314
393,0.000928828506638293
394,0.000963994313092642
395,0.00102146143663275
396,0.00112958094488168
397,0.00126138700358196
398,0.00139319306228224
399,0.00152499912098252
400,0.00165724514568945
401,0.00175194560378808
402,0.00183704424369704
403,0.00187332490806704
404,0.00191907076872573
405,0.00192884629048961
406,0.00198469090130696
407,0.00202222198301729
408,0.00208031691134108
409,0.0021350157421385
410,0.00225808791730153
411,0.00228196383932833
412,0.00235583647654408
413,0.00246258903779528
414,0.00245601042657355
415,0.002503647632744
416,0.00250082694558772
417,0.00252811092406232
418,0.0025590393245191
419,0.00247240251963521
420,0.0025700265349922
421,0.00258865036276983
422,0.00263848076784357
423,0.00266380752707365
424,0.00266111360227395
425,0.0026486359507538
426,0.00263393007530916
427,0.00256178749208352
428,0.00249302891867573
429,0.00250365037369352
430,0.00255775653320934
431,0.0026415633096242
432,0.00277860595872532
433,0.00292514614666926
434,0.00306396024533956
435,0.00314807892043381
436,0.00316638396254554
437,0.00321580735322986
438,0.00326523074391418
439,0.00331465413459849
440,0.00331668328933576
441,0.00339501481786894
442,0.00351566915189597
443,0.00358559410515027
444,0.00366851527236926
445,0.00375143643958826
446,0.00383435760680725
447,0.00392212863413204
448,0.00393159596088548
449,0.00411272255614561
450,0.0040870174032949
451,0.00407574791801536
452,0.00406018276992827
453,0.00404461762184118
454,0.00402905247375409
455,0.00402243234335602
456,0.00397626836481602
457,0.00409663645076971
458,0.00406166134970855
459,0.00413027695000177
460,0.00411873900860152
461,0.00407176520602228
462,0.00420107582332962
463,0.00406708931127569
464,0.00403285435588199
465,0.00400300172669193
466,0.0039477230925025
467,0.0039559443121473
468,0.00392206971174744
469,0.00386134533011501
470,0.00397111286213718
471,0.00395342893846567
472,0.00398069912123347
473,0.00402252705378671
474,0.00404375505169862
475,0.00409515147976392
476,0.00400890632724884
477,0.00402256733067046
478,0.00403622833409209
479,0.00404988933751371
480,0.00402101751683331
481,0.00394907455872759
482,0.00389630901483057
483,0.00391167114701775
484,0.00386791100889265
485,0.00383736516804823
486,0.00389650987143186
487,0.0039475098233524
488,0.00397341358131554
489,0.00405336243003248
490,0.00408688124747352
491,0.00410595977390215
492,0.00419246895781502
493,0.0041395011526413
494,0.00419924465697966
495,0.00410971104878537
496,0.0041362840833891
497,0.00405365797866584
498,0.00406207849472799
499,0.00396369992007518
500,0.00398342496872168
501,0.00393462335518247
502,0.00400876183952349
503,0.00402082842363703
504,0.00397164661596519
505,0.00410704207776628
506,0.00408956194828871
507,0.00411632916362087
508,0.00415452407970169
509,0.00415144980274981
510,0.00411180657019938
511,0.00418579159848474
512,0.00418338723848049
513,0.00405989187011994
514,0.00404700679180952
515,0.00400351445902108
516,0.00398729450121309
517,0.0040002332942151
518,0.00399193543352582
519,0.00408228771331958
520,0.004176560556094
521,0.0042277667971172
522,0.00427897303814039
523,0.00433017927916358
524,0.00429499985388568
525,0.00432026086943707
526,0.00433688583069908
527,0.00431265231711989
528,0.00437199278670881
529,0.00441085868948619
530,0.0044268174673453
531,0.0044350826387088
532,0.00443774695009078
533,0.00448719022073966
534,0.00450900276944539
535,0.00449088880370247
536,0.00455931237724606
537,0.0045850749286197
538,0.004654626057311
539,0.00474997236033639
540,0.00492366222084081
541,0.00506558427834102
542,0.0052274441459588
543,0.00530328888056707
544,0.00533959773771918
545,0.00523735309159116
546,0.00514280844988344
547,0.00499582409252791
548,0.00484883973517238
549,0.00470185537781685
550,0.0045955399057278
551,0.00459127804694769
552,0.00456772095485425
553,0.00449757803596741
554,0.0044304895752327
555,0.00444194118322543
556,0.00438481205713216
557,0.00435053640211212
558,0.00430112920602826
559,0.0042644587830113
560,0.00429976731151958
561,0.00421478809538366
562,0.00428602912898214
563,0.0042112813829854
564,0.00420801015947555
565,0.00412904014137302
566,0.0040956394818202
567,0.00402913120977188
568,0.00405274789056363
569,0.00398870506919807
570,0.00397324898880285
571,0.00396902616293626
572,0.00397250134603518
573,0.00396198928481022
574,0.00402014345054564
575,0.00398250129185831
576,0.00401113034599694
577,0.00403975940013557
578,0.0040683884542742
579,0.00409701750841283
580,0.00412564656255147
581,0.00416630818526902
582,0.00415250573491129
583,0.00416104475277271
584,0.00410621237040845
585,0.00406544691697733
586,0.00391733541157106
587,0.00381647386608452
588,0.00374269426625176
589,0.00366891466641899
590,0.00359513506658623
591,0.00359053441253802
592,0.00364167136603468
593,0.00361836177629521
594,0.00367000588206724
595,0.00364890777933555
596,0.00369637482218816
597,0.00371717418646121
598,0.00375445819782243
599,0.00377095115137606
600,0.0038084188181688
601,0.00383117374144502
602,0.00384922748463643
603,0.00382129690731308
604,0.00385578751605772
605,0.00386161353740869
606,0.00392793641078337
607,0.00400995417888309
608,0.00410813599583631
609,0.00424500482815412
610,0.00431759136780586
611,0.00432877522680313
612,0.00424424150908806
613,0.00411371480515225
614,0.00392251311997715
615,0.00385954686459741
616,0.00376802634551224
617,0.00376014390971533
618,0.00372049258766625
619,0.0037109350431157
620,0.00367876167019064
621,0.0036753983260379
622,0.00356929719945951
623,0.00353487568680008
624,0.00347928556560173
625,0.00342369544440338
626,0.00336810532320503
627,0.00336150751384258
628,0.00332026452220165
629,0.00332985044585403
630,0.00334453398549934
631,0.00329296514439963
632,0.00328237365753458
633,0.00327597867993251
634,0.00325875393331806
635,0.00325856918040464
636,0.0032314132608536
637,0.00324382756334212
638,0.00321267474389191
639,0.00321044426091852
640,0.00318668212732559
641,0.00317375348302626
642,0.00312915657532735
643,0.00308572442800202
644,0.00304229228067668
645,0.00299886013335135
646,0.00297079935831105
647,0.00297642964635586
648,0.00289386651425701
649,0.00295903771331243
650,0.00291335372317171
651,0.00293169600916953
652,0.00288186358353195
653,0.00283189215198931
654,0.00277840903141654
655,0.00278661336325332
656,0.00278372461838651
657,0.00280009893448041
658,0.00284587162375614
659,0.00291533022234689
660,0.00294107626300239
661,0.002935911412596
662,0.00295206284476781
663,0.00292066119822964
664,0.00289023486044935
665,0.00290997452241692
666,0.00288142341025871
667,0.00288840461981106
668,0.00286938400434987
669,0.00281706208944067
670,0.00282595612606276
671,0.00279069788691533
672,0.002779301585517
673,0.00278505871460307
674,0.0027911321528913
675,0.00277650831477977
676,0.00275932362924962
677,0.00278730756425356
678,0.00273425387852158
679,0.00270857914270618
680,0.00278832815080924
681,0.00271210746829505
682,0.00262202927343972
683,0.00257782616316004
684,0.0024605184812289
685,0.00235819342755863
686,0.00229567429672723
687,0.00224771343385738
688,0.00220647528126406
689,0.00222364548207981
690,0.00225001121559228
691,0.00229215353114455
692,0.00230281545276265
693,0.00229053448691387
694,0.00236618260951204
695,0.00237801077068855
696,0.00244797488385757
697,0.00244212911255076
698,0.0024023186803824
699,0.00246117704606273
700,0.00251516409778871
701,0.00250605675141234
702,0.00258666753151656
703,0.00263035776211844
704,0.00272855674121078
705,0.00273341748147154
706,0.00281461245603078
707,0.00289775997003957
708,0.00290580272098323
709,0.00295024405532395
710,0.00292016493755595
711,0.00292873697590321
712,0.00291174867125079
713,0.00276379137606474
714,0.00264314760466424
715,0.00247095219036969
716,0.00230702963262551
717,0.00218892963906378
718,0.0021895496419765
719,0.00219478365588549
720,0.00223375974035692
721,0.00221690827720138
722,0.00229903707047946
723,0.00228217410328895
724,0.0022754587596809
725,0.00228702172259161
726,0.00228530151446843
727,0.00234761415823168
728,0.00239312333889347
729,0.00249997871486569
730,0.00262404055715979
731,0.00276882029779567
732,0.00287409145631485
733,0.00301609420282141
734,0.00312073411509329
735,0.00317982360305942
736,0.00326028971774578
737,0.00332234184836059
738,0.00338439397897541
739,0.00344644610959023
740,0.00354138618027094
741,0.00360401817354994
742,0.00364265580553713
743,0.00368129343752433
744,0.00371993106951152
745,0.0037258859042616
746,0.00372246074693703
747,0.00373865944134708
748,0.00371952731496084
749,0.00372700996347135
750,0.0037351293167127
751,0.00368670616663241
752,0.00374183596323282
753,0.00363973305679888
754,0.00363364000542853
755,0.00334658126819533
756,0.00305952253096213
757,0.00277246379372893
758,0.00233124625560081
759,0.00193857465892271
760,0.00172531059742416
761,0.00166325091604945
762,0.00171529204735055
763,0.00188575309394709
764,0.00215807123319078
765,0.00238404486613374
766,0.00268567347507269
767,0.00294235775018213
768,0.00310490596659651
769,0.00322205284992053
770,0.00329383168272074
771,0.00336894799894316
772,0.00343549231171036
773,0.00342571161864328
774,0.00341252450813488
775,0.0034024720854413
776,0.00344121952615217
777,0.00338961602183814
778,0.00339536960884118
779,0.0033336204535465
780,0.00336126314730255
