"wavelength","measurement"
380,0.010575508650021
381,0.0102031337421077
382,0.0101026781795052
383,0.00988815769116611
384,0.00996133913783337
385,0.0104556612165274
386,0.0109361474668407
387,0.011422483435409
388,0.0119046867977683
389,0.0122164243110266
390,0.0120891242564234
391,0.0120571615271969
392,0.0121134124200677
393,0.0122293270494364
394,0.0125423526271342
395,0.0133441066928385
396,0.0147448753542718
397,0.016359430155598
398,0.0179739849569243
399,0.0195885397582506
400,0.0204189557514254
401,0.021603900038301
402,0.0223054412592254
403,0.0224709159789583
404,0.0225196707174946
405,0.0223641260206098
406,0.0228064417129388
407,0.0228643827499494
408,0.0229641953799292
409,0.0233232728434828
410,0.0242499862911528
411,0.0242429935420744
412,0.0247580202806679
413,0.0251186354999486
414,0.0250539721647518
415,0.0252057647304829
416,0.0248706579736757
417,0.0246395465076752
418,0.0249945329925308
419,0.0244049960019769
420,0.0248933808252839
421,0.0247799237608474
422,0.0249386940568556
423,0.0249920556633919
424,0.025068789498622
425,0.0245176215732743
426,0.0242190367177313
427,0.0235573033925751
428,0.0227826033013434
429,0.0227946256261131
430,0.0228404963166898
431,0.0236885852033632
432,0.0245804053042378
433,0.0254421079862263
434,0.0264390287611333
435,0.0269269482697939
436,0.0271761200760605
437,0.0275782590920133
438,0.027980398107966
439,0.0283825371239188
440,0.028524752286005
441,0.0290100993515478
442,0.0296172348951802
443,0.0298717536116027
444,0.0303214263283686
445,0.0307710990451346
446,0.0312207717619006
447,0.0317433757110395
448,0.0318424153095229
449,0.0329874843428371
450,0.0327489254359156
451,0.0325237044888325
452,0.032451000221727
453,0.0323782959546215
454,0.0323055916875159
455,0.0323334004295531
456,0.0323371060595466
457,0.0326369042861945
458,0.032811834068061
459,0.0333113300097034
460,0.033265327971871
461,0.0328895595729285
462,0.033771279878724
463,0.0328086039202186
464,0.0324908345415104
465,0.0321944585999792
466,0.0317888784466862
467,0.0317192222614673
468,0.0314250115506032
469,0.0312156468979726
470,0.0318717185570657
471,0.0318164884861478
472,0.0319822221007883
473,0.0323684737409822
474,0.0323933319146583
475,0.0328424809416667
476,0.0321451462167328
477,0.0321578472594223
478,0.0321705483021118
479,0.0321832493448013
480,0.032158800662422
481,0.031345751032382
482,0.0307879651071305
483,0.0306432233019566
484,0.0299429660186596
485,0.0293075411065238
486,0.0296355503418343
487,0.0298767772489185
488,0.030235313152606
489,0.0310232290747118
490,0.0312100997615348
491,0.0314771273928632
492,0.0321969564399461
493,0.0318632583961784
494,0.0323096796059002
495,0.0318810264821665
496,0.0320061807483354
497,0.0314665268970655
498,0.0316206429967991
499,0.0309560704687503
500,0.0311283314821977
501,0.030832791031041
502,0.0313659478746686
503,0.0314593440128825
504,0.0311691439147639
505,0.0321490372936038
506,0.032068422031333
507,0.0322882305490824
508,0.0324991378119235
509,0.032541168917799
510,0.0321158883762828
511,0.0326016470597656
512,0.0324250046276795
513,0.0315048764338593
514,0.031468208455746
515,0.0309633179608737
516,0.0308725470677897
517,0.0309029587296776
518,0.0308490591264735
519,0.0315493400895808
520,0.0322144175649399
521,0.0325989999749139
522,0.0329835823848879
523,0.0333681647948619
524,0.0332116607873616
525,0.0334165133481749
526,0.0335491074195967
527,0.0334725775769817
528,0.0337029404505429
529,0.0342084748573691
530,0.0342548297451935
531,0.0343612903755546
532,0.0343117098128786
533,0.0346245276581736
534,0.0347881863424464
535,0.0344322615647744
536,0.0348307080957992
537,0.0346406138420475
538,0.0344317921976482
539,0.0342347592615584
540,0.0344320074467185
541,0.0342518883931099
542,0.0340722694805055
543,0.0342991228746551
544,0.0344978469943972
545,0.0343357976727846
546,0.0346261126200492
547,0.0346483140746746
548,0.0346705155293001
549,0.0346927169839256
550,0.0344578686178646
551,0.0347266451466509
552,0.0351382749481396
553,0.0347940578751439
554,0.0346463448479334
555,0.035027228709888
556,0.0345811640722165
557,0.034547798651455
558,0.0343411287389257
559,0.0340574191365766
560,0.0344421244957333
561,0.0339193623423987
562,0.0344439575611937
563,0.0338844644056432
564,0.034090282234547
565,0.0335119076076661
566,0.0332971122626272
567,0.0327871274254397
568,0.0329605204732018
569,0.0325151581290233
570,0.0324748371747708
571,0.0324929725542422
572,0.032483232033548
573,0.0324378661618113
574,0.0326410731836988
575,0.0322422196227761
576,0.0323829434398679
577,0.0325236672569598
578,0.0326643910740516
579,0.0328051148911434
580,0.0329458387082352
581,0.0333555498138074
582,0.0331426847035163
583,0.0333068551415727
584,0.0326336511051404
585,0.0322917439392474
586,0.031179126424189
587,0.0304930209714121
588,0.0300101316501456
589,0.0295272423288791
590,0.0290443530076126
591,0.0291506093296635
592,0.0295237382562975
593,0.029574013570299
594,0.0301924146271505
595,0.0302444115058239
596,0.0306431995466539
597,0.0309551259705905
598,0.0311369015039756
599,0.0313622070319609
600,0.0317485314585266
601,0.0320816514705264
602,0.0323106803234245
603,0.0322097350726137
604,0.0325320833295079
605,0.0323760652811421
606,0.0324362872835694
607,0.0322263766790466
608,0.0318835358024928
609,0.031903320223349
610,0.0316751405706563
611,0.0314872944802991
612,0.031222056212343
613,0.0310489737066843
614,0.0307239728407027
615,0.0310656084412669
616,0.0307074159487015
617,0.0309047903143819
618,0.0308706135105316
619,0.0309675998164366
620,0.030829670414342
621,0.0309812086299974
622,0.0303846966119226
623,0.0302143176611196
624,0.0299537874629477
625,0.0296932572647757
626,0.0294327270666038
627,0.0292816509548256
628,0.0291764905368849
629,0.0290859817581799
630,0.0294046078022449
631,0.029043374643303
632,0.0293520535566107
633,0.0295637492288006
634,0.0296411168312306
635,0.0298394171406758
636,0.0296448437576431
637,0.0300002529317723
638,0.0298030332397181
639,0.0299228762964686
640,0.0298071823098639
641,0.0297139718834239
642,0.0294923653220109
643,0.0291251988528895
644,0.0287580323837682
645,0.0283908659146468
646,0.0283435486036185
647,0.0282310593346319
648,0.0276771738002244
649,0.028181551373686
650,0.0279518793686513
651,0.0281906931788976
652,0.0279197913648248
653,0.0275405393177195
654,0.0270833942678328
655,0.0274690465365571
656,0.0272667507625781
657,0.0277331294489643
658,0.0281309417966994
659,0.0289005072190937
660,0.0291950302561947
661,0.0293377880824235
662,0.0295134006527055
663,0.0293883151024286
664,0.0292417431014898
665,0.0293476480213089
666,0.0293925906545059
667,0.0294599683550092
668,0.029520534421515
669,0.0290188402903104
670,0.0291423955165413
671,0.0290905829902458
672,0.0289595231614582
673,0.0290368047616775
674,0.0291365950449074
675,0.0291077363088885
676,0.0291230389662189
677,0.0293391958262214
678,0.0289938321156508
679,0.0289797701160232
680,0.0295786301130079
681,0.0290751583851646
682,0.0283352519754454
683,0.0276356847267742
684,0.0265942843827637
685,0.0256448948713449
686,0.0248837742091504
687,0.0242741243039484
688,0.0240945157711565
689,0.0241618300482452
690,0.0245579281067954
691,0.0250313095983096
692,0.025170225807277
693,0.0255202786213844
694,0.026048144090096
695,0.0262719727017022
696,0.0268124903209111
697,0.0270562297820505
698,0.026805095349362
699,0.0270035647521353
700,0.0276678594603394
701,0.0276764995523737
702,0.0284016215590844
703,0.0288218405743907
704,0.0296359976385947
705,0.0299354468263466
706,0.0306347255312882
707,0.0313653138223056
708,0.0316783698371412
709,0.0322732327876541
710,0.032208523234469
711,0.0323295569864709
712,0.0323705408718419
713,0.0308161708113538
714,0.0297902838752027
715,0.0278272925520244
716,0.0261219294154535
717,0.0251676290050587
718,0.0249690498572399
719,0.0253044637202988
720,0.0258847562702494
721,0.0258955533559179
722,0.0267687347474667
723,0.0266831800943264
724,0.0268201628284924
725,0.0270390505348982
726,0.0271911361602941
727,0.0279546020902746
728,0.0288659501877415
729,0.0302535134824062
730,0.0316917803016076
731,0.0335970742908145
732,0.0353557365697348
733,0.037135094941066
734,0.0385248033575708
735,0.0394320909708805
736,0.0405930377087486
737,0.041594910324315
738,0.0425967829398814
739,0.0435986555554478
740,0.0450555197249565
741,0.0458646415140098
742,0.0466457991231994
743,0.047426956732389
744,0.0482081143415785
745,0.0486673917105973
746,0.0488822531951416
747,0.0494418862885792
748,0.0491548951751873
749,0.0495536167188059
750,0.0498271090240706
751,0.0496946734602571
752,0.050481833447521
753,0.0502099380197866
754,0.0494241642407572
755,0.045700075803607
756,0.0419759873664569
757,0.0382518989293067
758,0.0322593407725097
759,0.0269472759202468
760,0.0235931742406883
761,0.0228452911854728
762,0.0238020781084935
763,0.0264359661072747
764,0.0301754685225372
765,0.0340096108958306
766,0.0383959214465722
767,0.0425755937508834
768,0.0451774989771625
769,0.0471305592592344
770,0.0485892033867394
771,0.0494176520837386
772,0.0501563658716533
773,0.0509406960192319
774,0.0507204337006551
775,0.0508921774389371
776,0.0511619732470478
777,0.0506557894091812
778,0.0513364525989408
779,0.0507843905980341
780,0.0514440350821813
