"wavelength","measurement"
380,0.0273616122251736
381,0.0265149403163583
382,0.0264104454568088
383,0.0256393303927364
384,0.0255367860298885
385,0.0266487181780918
386,0.0281809827332855
387,0.0292996379861425
388,0.0301496850324198
389,0.0307578268838377
390,0.0305040764336457
391,0.0303166785472628
392,0.0301320724638053
393,0.0298395473786238
394,0.0309015331059547
395,0.0324496277373199
396,0.0354347388612899
397,0.0390253735084143
398,0.0426160081555387
399,0.0462066428026631
400,0.0481831866531132
401,0.0505637540958978
402,0.0518407554680729
403,0.0520264094436113
404,0.0518248625712429
405,0.0511791622791367
406,0.0515007839650204
407,0.0518602307956612
408,0.0521156585023538
409,0.0526091864877393
410,0.0546592098059821
411,0.0544123948056407
412,0.0553738730239619
413,0.0563879616245651
414,0.0561223648761945
415,0.0568819974023272
416,0.0561480589650471
417,0.0555363694957399
418,0.0561350761898975
419,0.0552842518908799
420,0.055918993764484
421,0.0559072053659009
422,0.0562029892847316
423,0.0562554196791713
424,0.0563614179959589
425,0.0551335650846786
426,0.0546154726379389
427,0.0528919567483986
428,0.0513310984871254
429,0.0511598682306637
430,0.0512270898598554
431,0.0532666360879177
432,0.0552654301740869
433,0.05694456014981
434,0.058937891319474
435,0.0598478501563297
436,0.0607115930020878
437,0.0615110356409693
438,0.0623104782798509
439,0.0631099209187325
440,0.0635363908959912
441,0.0642923906264794
442,0.065877198553155
443,0.0659201920636112
444,0.0669254858494513
445,0.0679307796352913
446,0.0689360734211314
447,0.0700318160090539
448,0.0698996369988582
449,0.0727106162076913
450,0.0720958016588528
451,0.0715071759416745
452,0.0712929755086207
453,0.0710787750755668
454,0.0708645746425129
455,0.0708549047190572
456,0.070989433568481
457,0.0714873617289519
458,0.0719565636462417
459,0.0731062665428745
460,0.0730314899023263
461,0.072319425004465
462,0.0741885431510033
463,0.0720190860785341
464,0.0712013357196105
465,0.0705751409690826
466,0.0697303256343947
467,0.0693372577805553
468,0.0689632402596874
469,0.0683836621842589
470,0.0697210073204273
471,0.0694273816862034
472,0.0700896320650513
473,0.0704933130884407
474,0.0707942248623059
475,0.071859562949673
476,0.0703780154885893
477,0.0703437241936603
478,0.0703094328987313
479,0.0702751416038023
480,0.0700925173832025
481,0.0684313071886053
482,0.0669906110383457
483,0.0666393052895316
484,0.0650692700951495
485,0.0637746783512697
486,0.0643287134828474
487,0.0649416865143507
488,0.0656442210386857
489,0.0671325768599311
490,0.0678008387580283
491,0.0681342766046247
492,0.0696388775855554
493,0.0689902570528019
494,0.0699603417304022
495,0.0689954753658244
496,0.0692930890690214
497,0.0680984661359957
498,0.0684140653515063
499,0.0667850963148852
500,0.0670001482005015
501,0.0662217633616121
502,0.0673731194573573
503,0.0676317644918919
504,0.0667524846001734
505,0.0689686585337034
506,0.0687486542677697
507,0.0691460168788838
508,0.0695774004026521
509,0.0696914028286249
510,0.0684632456831128
511,0.0694175480233936
512,0.0690282146113155
513,0.0670662512411309
514,0.0666548593016628
515,0.0655062048962263
516,0.0651360261206079
517,0.0651449932961913
518,0.0648582048729471
519,0.0663614536342675
520,0.0674285216620542
521,0.0680992733668006
522,0.0687700250715469
523,0.0694407767762932
524,0.0690694325369947
525,0.0693800904135054
526,0.0695008468482235
527,0.0692047328479985
528,0.0696803969154237
529,0.0704900525521487
530,0.0704697907822678
531,0.0707286082162242
532,0.0704497741594966
533,0.0709776270532955
534,0.0712818545387218
535,0.0705622070173963
536,0.0711612968736178
537,0.0705461702532861
538,0.07005229315513
539,0.0695949117235902
540,0.0697613883055523
541,0.0692618542720109
542,0.0686987260127034
543,0.0691265530701943
544,0.0695729860989275
545,0.06910083303008
546,0.0696686799954335
547,0.0696701541775989
548,0.0696716283597641
549,0.0696731025419295
550,0.0691563997074293
551,0.0700210288758664
552,0.0705243847656798
553,0.069751721352437
554,0.0695516599674327
555,0.0702566210148597
556,0.0692658925736314
557,0.0690744672910572
558,0.0687582122213931
559,0.0683071007224437
560,0.0690493268672284
561,0.0678401932016838
562,0.0690667498731532
563,0.067853380898243
564,0.068156009541548
565,0.0671315655543778
566,0.0666842624394364
567,0.0658444510712328
568,0.0658346712927742
569,0.0650991632514633
570,0.0648852345407058
571,0.0648950253081407
572,0.0650607134158144
573,0.0649914112266075
574,0.065303545639282
575,0.0645653769586274
576,0.0648485572599546
577,0.0651317375612819
578,0.0654149178626091
579,0.0656980981639363
580,0.0659812784652636
581,0.0670029376127917
582,0.0665673271743056
583,0.0671228422672208
584,0.0653776814058288
585,0.0647746261042123
586,0.0624874747957245
587,0.0609072326148821
588,0.0599609520359373
589,0.0590146714569926
590,0.0580683908780479
591,0.0582285284886054
592,0.0589813605382443
593,0.0590941916607398
594,0.060357896983621
595,0.0604659824251551
596,0.0614252868087551
597,0.0619993973891936
598,0.0622504201287367
599,0.0627015595559457
600,0.063578319022299
601,0.0641945332332943
602,0.0647526037526367
603,0.0646246261752462
604,0.0653815060840438
605,0.0649124151736959
606,0.0649413816213159
607,0.0646889585003064
608,0.0639017286172765
609,0.0637877336425672
610,0.0632765492552594
611,0.0630347754447351
612,0.0624783151440979
613,0.0622328617913959
614,0.0615507068044395
615,0.0623915545023406
616,0.0614645074586383
617,0.062047593317753
618,0.0618924861075696
619,0.0621068337157087
620,0.0617416814363005
621,0.0622268110631159
622,0.0610557328695828
623,0.0607082599249397
624,0.0600954635976222
625,0.0594826672703046
626,0.0588698709429871
627,0.0586470599646572
628,0.0584145995658912
629,0.0581635460643379
630,0.0587006977618047
631,0.0582135569402721
632,0.0586061049593771
633,0.0591272440313288
634,0.0592653702632926
635,0.0599046060188177
636,0.0592060465301964
637,0.0599460340395663
638,0.0595823842153176
639,0.0597815293672434
640,0.0596391981031899
641,0.0594707202861549
642,0.0589576727703082
643,0.0582127318685787
644,0.0574677909668493
645,0.0567228500651199
646,0.0567258886401612
647,0.0566212138997035
648,0.0554029509363383
649,0.0564284860732858
650,0.0559729423792509
651,0.0564555925265399
652,0.0559103318772482
653,0.0550956581395568
654,0.0542863067411851
655,0.0550572464271126
656,0.0550752933190507
657,0.0554568873537714
658,0.0563046181852598
659,0.0579256684934677
660,0.058529924633591
661,0.0588536918814825
662,0.0593265451201224
663,0.0591783479694491
664,0.0588458806860189
665,0.0591664090190153
666,0.0589206634744951
667,0.059171990754683
668,0.0593471196706658
669,0.0583794069954665
670,0.0584327404439417
671,0.0584843216346411
672,0.0581514466948942
673,0.0582940260809798
674,0.0585988483325039
675,0.0585268809280282
676,0.0584778350300949
677,0.0589769996949838
678,0.0582226598051069
679,0.057968299452054
680,0.059319223810068
681,0.0582529722190623
682,0.0566989630063739
683,0.055232587092276
684,0.053028124759994
685,0.0510996146480389
686,0.0495172568311871
687,0.048201322687229
688,0.047812519260299
689,0.0478180985309257
690,0.0483387433943745
691,0.0493024651629391
692,0.0492996790348436
693,0.0497672231077398
694,0.0504733568922213
695,0.0507487899562936
696,0.0517014018311067
697,0.0520973492780289
698,0.051336832213152
699,0.0512895305021236
700,0.0524290401043231
701,0.0521691265918398
702,0.0535684122876143
703,0.0539566023551075
704,0.0551213616461048
705,0.0554645356921415
706,0.056629940979641
707,0.0573982795073033
708,0.0580222540680133
709,0.0587644326039083
710,0.0583598825104274
711,0.0581501297029353
712,0.0580970644754835
713,0.0550318116244352
714,0.0529794533946448
715,0.0491305196204962
716,0.0456225132077651
717,0.0439162374774308
718,0.0435035753298199
719,0.0436385956173107
720,0.044201985705279
721,0.0441995337211558
722,0.0455167915441935
723,0.0452060451111311
724,0.0451176452010333
725,0.045324131771445
726,0.0452446147610279
727,0.0462400699105494
728,0.0476190568230602
729,0.0497435375983164
730,0.0519911270397426
731,0.0547489610587096
732,0.0577243817377455
733,0.0605199145634393
734,0.0625081651327417
735,0.0638790731727186
736,0.0655623367834827
737,0.0671294037617721
738,0.0686964707400615
739,0.0702635377183509
740,0.0721827297434506
741,0.0733538121721433
742,0.0745207766243965
743,0.0756877410766498
744,0.0768547055289031
745,0.0774489761751596
746,0.0778381770318821
747,0.0783923111299594
748,0.07764356419652
749,0.0785278972871014
750,0.0786490008579922
751,0.0783562738571715
752,0.080001090897362
753,0.0793019941244299
754,0.078075410675297
755,0.0721355087951624
756,0.0661956069150279
757,0.0602557050348933
758,0.0510299594635754
759,0.0424453671276866
760,0.0369612618100047
761,0.0359026633379251
762,0.0373979498803108
763,0.0412693970125773
764,0.0470208310861866
765,0.0530440371221631
766,0.0597372579584434
767,0.0664540776347894
768,0.0707229351708103
769,0.0735237045137078
770,0.0760523147796453
771,0.0774477387623921
772,0.0788116072988327
773,0.0796824407780208
774,0.0794846006424651
775,0.0797598674256815
776,0.0801255775573201
777,0.0791594232993491
778,0.0805299813849158
779,0.0795802412687145
780,0.0801820967619637
