"wavelength","measurement"
380,0.00214696511917427
381,0.00216953881757557
382,0.0021946492546498
383,0.00216246069864719
384,0.00218373998024902
385,0.00240366105159026
386,0.0025151084081391
387,0.00270511122859379
388,0.00285280965918425
389,0.002980739072047
390,0.00296204967147741
391,0.00302098950819248
392,0.00305155075544222
393,0.00309474510743418
394,0.00325863129493227
395,0.00343601640525402
396,0.0038366280114134
397,0.00427888437496299
398,0.00472114073851259
399,0.00516339710206218
400,0.00543078391852395
401,0.00580843828196457
402,0.00605917040443779
403,0.00613678099233205
404,0.00621757331642985
405,0.00622017290370764
406,0.00634310655163984
407,0.00638261303288108
408,0.00645430145379238
409,0.00662767116995368
410,0.00690823972890084
411,0.00694559236319219
412,0.00712059892943
413,0.00729501548469702
414,0.00727398466963114
415,0.00740858345255426
416,0.00732649048492791
417,0.00729071758469947
418,0.007371662549618
419,0.00723866452530136
420,0.00742371127157044
421,0.00739618832590417
422,0.00749828077523066
423,0.00760451324160169
424,0.00759756212003097
425,0.0074339928275425
426,0.00739822994029178
427,0.00722093911928793
428,0.00696085615126361
429,0.00699605097434072
430,0.00702807685244052
431,0.00731133330897957
432,0.00763312728573541
433,0.00793567377055345
434,0.00831280167089112
435,0.00853083863566638
436,0.00858912383348223
437,0.00869505622837326
438,0.00880098862326429
439,0.00890692101815532
440,0.00892701720592276
441,0.00908761205835871
442,0.00931445501676183
443,0.00942062871288857
444,0.00958621275354827
445,0.00975179679420796
446,0.00991738083486766
447,0.0100985931288252
448,0.0101499259749866
449,0.0105841339913794
450,0.0105226955745088
451,0.0104776727385182
452,0.0104907544166776
453,0.010503836094837
454,0.0105169177729964
455,0.0104995343670042
456,0.0105110613193055
457,0.0107394214799071
458,0.0107772987981249
459,0.0109659782025398
460,0.0110087788364107
461,0.0109058338023253
462,0.0112328082089575
463,0.0109482888723681
464,0.0108325084810338
465,0.0107867380507838
466,0.0106249472864198
467,0.0106309597036856
468,0.0105803981884719
469,0.0105050301922725
470,0.0107419856318512
471,0.0107283517159167
472,0.0108226047724021
473,0.0109588968292812
474,0.0110158912865282
475,0.0111860930851368
476,0.0109597105938527
477,0.0109950469494991
478,0.0110303833051456
479,0.011065719660792
480,0.0110421980537132
481,0.010802226136856
482,0.0106572580171687
483,0.010633798826078
484,0.010397928303713
485,0.0102431296969651
486,0.0103424215604136
487,0.0104717345394444
488,0.0105539691716694
489,0.0108544240195522
490,0.0109246663206428
491,0.0110198450190508
492,0.0112702739000196
493,0.0111601698823591
494,0.0113186955583543
495,0.0111728727776887
496,0.0112099374402273
497,0.0110187198909536
498,0.0110920209368076
499,0.0108105326307301
500,0.0108825995164082
501,0.010740669719903
502,0.0109277589523494
503,0.0109553713631512
504,0.010850495643552
505,0.0112135376151421
506,0.0111768575761549
507,0.0112188037047119
508,0.0113221773866119
509,0.011329660094157
510,0.011158943996354
511,0.0113435972606036
512,0.0112822223839758
513,0.0109571295967755
514,0.0109168011284031
515,0.0107254733451317
516,0.0106585549647776
517,0.0106491246435502
518,0.0106282545363963
519,0.010794225854552
520,0.0110244377805418
521,0.0111585734119312
522,0.0112927090433206
523,0.01142684467471
524,0.0113432779476324
525,0.0113946054988557
526,0.0114549567342474
527,0.0113548226106183
528,0.0114337851956857
529,0.0115827941272501
530,0.0116267522266103
531,0.0116468954077295
532,0.0116131292329171
533,0.0117411673688695
534,0.0117855313266496
535,0.011678730038593
536,0.0118285942992059
537,0.0118023432647502
538,0.0118113942355532
539,0.0118566934493366
540,0.0120749508985613
541,0.0121439262858078
542,0.0122315508739057
543,0.0123447030065878
544,0.0124151069316542
545,0.0122794488544785
546,0.012250348980217
547,0.0121166774008874
548,0.0119830058215577
549,0.0118493342422281
550,0.0116938742881353
551,0.0117272593193469
552,0.0117651283323386
553,0.0116531695826388
554,0.0115492266723977
555,0.0116323707030565
556,0.0114853365494603
557,0.011437469873849
558,0.0113594319007959
559,0.0112217217603815
560,0.0113743778727355
561,0.0111785169649791
562,0.0113530733273681
563,0.0111735704250987
564,0.0112033734621325
565,0.0110323338487614
566,0.0109721967614496
567,0.010800750960768
568,0.0108474587401777
569,0.0106852512118735
570,0.0106538731270357
571,0.0106819025367759
572,0.0106813173340033
573,0.010673721784643
574,0.0107636457640522
575,0.0106454167013631
576,0.0106971664257814
577,0.0107489161501996
578,0.0108006658746179
579,0.0108524155990361
580,0.0109041653234544
581,0.0110468556445427
582,0.0110056279826616
583,0.0110687542637087
584,0.0108589191231804
585,0.0107640673491702
586,0.0103918165804444
587,0.010118264987535
588,0.00992616431219479
589,0.00973406363685457
590,0.00954196296151435
591,0.00955501198011966
592,0.00963527108259471
593,0.00964390876133773
594,0.00979189681988378
595,0.00977543513855227
596,0.00988198736224939
597,0.00995016302869375
598,0.010033702197212
599,0.0100631859283572
600,0.0101882088393278
601,0.0102398135163957
602,0.010304672622062
603,0.0102611239473767
604,0.0103338954161151
605,0.0103044325162545
606,0.01036595801218
607,0.0104543548400935
608,0.0104854917186141
609,0.0106407473414199
610,0.0106594756772463
611,0.010661638893428
612,0.0105327081940623
613,0.0103223920874265
614,0.0100468773277948
615,0.0099916698030202
616,0.00981556183168664
617,0.00983460901686054
618,0.00977118037507078
619,0.00978975762836875
620,0.00969789468640251
621,0.00972894250863503
622,0.00951554412754262
623,0.00945840956376453
624,0.00934327986911119
625,0.00922815017445785
626,0.00911302047980452
627,0.00907150933376942
628,0.00899332958099601
629,0.00896881732120738
630,0.00903983127093693
631,0.00890239575976404
632,0.0089216037171005
633,0.00894825080443665
634,0.00889996384706292
635,0.0089415400650612
636,0.00885902343404057
637,0.00893506474103085
638,0.00883904396467747
639,0.00886717438222265
640,0.00880527621504469
641,0.00878019096768828
642,0.00866900066400722
643,0.00854112959908069
644,0.00841325853415415
645,0.00828538746922762
646,0.00827334417406399
647,0.00821890998894102
648,0.00803404552399973
649,0.00819695807183262
650,0.0081030488830367
651,0.00816264458330563
652,0.00804705809810821
653,0.00789777558876789
654,0.00773149603586467
655,0.00778054208363757
656,0.00772744097036345
657,0.0078051165765688
658,0.00789943827957545
659,0.00811454390373783
660,0.00819843129814712
661,0.0082251136341137
662,0.00826991969507386
663,0.0081998863766727
664,0.00813288213246305
665,0.00816286796289086
666,0.00813613665468845
667,0.00814866360992409
668,0.00811835260890187
669,0.00798157504642795
670,0.00799333367117715
671,0.0079192755375321
672,0.00789575001799288
673,0.00789075220925555
674,0.00789779270478485
675,0.0078579541094882
676,0.00780301269807659
677,0.00785592984079332
678,0.00773535390254728
679,0.00768563323864579
680,0.0078238575166594
681,0.00767891349212047
682,0.00747511742355931
683,0.0072767587551201
684,0.00695562623062416
685,0.00670366475926842
686,0.00646382614917017
687,0.00625352419633109
688,0.00614765611289153
689,0.00614272061531274
690,0.00618110250564898
691,0.00627632211590386
692,0.00626475543070032
693,0.0062929832465652
694,0.00637991206783532
695,0.0063867184976243
696,0.00647038958941357
697,0.00646772427197627
698,0.00634995873428733
699,0.00636283351960616
700,0.00643711624748556
701,0.00637716348904867
702,0.00650621730428195
703,0.00656199163414213
704,0.00671738440392961
705,0.00669966481394687
706,0.00683921158849382
707,0.00693740681728805
708,0.00692084593466996
709,0.00700059676629016
710,0.00690466761594657
711,0.00688606522171495
712,0.00684988390540093
713,0.00647694089186414
714,0.00620025928387924
715,0.00574552764042542
716,0.00532674920320734
717,0.00503661948787749
718,0.00492473958787735
719,0.00492022240659987
720,0.00497550626743195
721,0.00492155979483392
722,0.00506008916062208
723,0.0050040566214732
724,0.00498034181895124
725,0.00496026117423243
726,0.00491100535603175
727,0.0049962126702985
728,0.00509905450719061
729,0.00524941977207963
730,0.00547669039292254
731,0.00571891906539299
732,0.0059406564687937
733,0.00619687712286395
734,0.00641024498085723
735,0.0065317299289946
736,0.00662455237259407
737,0.00671801388946283
738,0.00681147540633159
739,0.00690493692320035
740,0.00710831865504069
741,0.00716363000484001
742,0.0072198766318254
743,0.00727612325881078
744,0.00733236988579617
745,0.00737792108167304
746,0.00736775550940819
747,0.00738896079911663
748,0.00730594423366496
749,0.00733711912486293
750,0.00729271507875933
751,0.00724207480376741
752,0.00735326058656953
753,0.0071348416479564
754,0.00714089436503807
755,0.00666953698019796
756,0.00619817959535785
757,0.00572682221051773
758,0.00494511322305767
759,0.00420289416580552
760,0.00366884715921016
761,0.00341612645026321
762,0.0034622601179235
763,0.0036787392015779
764,0.00417571061182378
765,0.00461892243833737
766,0.00519066335500312
767,0.00571799707272944
768,0.00606720308964824
769,0.00626961990706761
770,0.00641476758706776
771,0.00648720628471859
772,0.00656763660974899
773,0.00665482301370569
774,0.00656736836812026
775,0.0065649357142992
776,0.00655671246216225
777,0.00648291823592203
778,0.00650709394821766
779,0.00645518355923232
780,0.00649519508683358
