"wavelength","measurement"
380,0.00840475365134165
381,0.00803735504380019
382,0.00784714960697376
383,0.0076556561998164
384,0.00772547861618032
385,0.00798608175100699
386,0.00831237141388782
387,0.00867414894410567
388,0.00899518184844485
389,0.00905755879339788
390,0.00898371179234665
391,0.00883691284418328
392,0.00877695964266745
393,0.00867105268158786
394,0.00905752471146421
395,0.0094457518970501
396,0.0102292791035138
397,0.011189710914134
398,0.0121501427247543
399,0.0131105745353745
400,0.0136430239146357
401,0.0143257103902164
402,0.0147399730747935
403,0.0147626284666985
404,0.0146812116457015
405,0.0145351299189632
406,0.0147031976719131
407,0.0147069511645951
408,0.0146731050854737
409,0.0149178409770084
410,0.0154189694566291
411,0.0152950688880255
412,0.015715214301096
413,0.0159327128025956
414,0.0157979615998477
415,0.0158967362279802
416,0.0157555493850229
417,0.0155528869497636
418,0.015667621333958
419,0.0152878779123433
420,0.0156194527466815
421,0.0157549964624313
422,0.01568714766673
423,0.015865503677637
424,0.0157735722441301
425,0.0155527235959493
426,0.0152934498649617
427,0.0148955792740737
428,0.0144696757933008
429,0.0144950506504011
430,0.0145139586263535
431,0.0150065227326368
432,0.0155114801080628
433,0.0159078216903219
434,0.0165994361567123
435,0.0169359879423226
436,0.0170458898294462
437,0.0172728035557892
438,0.0174997172821322
439,0.0177266310084751
440,0.0177678383129376
441,0.0180388254693367
442,0.018529918852575
443,0.0185661227875172
444,0.0188305565267441
445,0.019094990265971
446,0.0193594240051979
447,0.0196838103680847
448,0.0197103290110582
449,0.0203007662068057
450,0.0202241251659852
451,0.0201376413747473
452,0.0201120521033005
453,0.0200864628318537
454,0.0200608735604069
455,0.020014382099803
456,0.0198481599665299
457,0.0202201980491366
458,0.0203102739824663
459,0.0205108505065562
460,0.0205763022979975
461,0.0202967254682151
462,0.0208518143349434
463,0.0203536474839904
464,0.0200816102757785
465,0.0198034165445089
466,0.0196499069369264
467,0.0195225266119861
468,0.0194595512845255
469,0.0192272319103335
470,0.0195560311793573
471,0.0195860967702892
472,0.0196858197322924
473,0.0198637380762884
474,0.0198945323807679
475,0.0201871682550152
476,0.0197216854421405
477,0.019715642177664
478,0.0197095989131874
479,0.0197035556487108
480,0.0197403580558612
481,0.0192422367571391
482,0.0188333014308678
483,0.0188537098807269
484,0.0182503402768094
485,0.0179880011285803
486,0.0180898507775003
487,0.0182986661634211
488,0.0184988831521122
489,0.0189991374694807
490,0.0190520212030402
491,0.0192651952433312
492,0.0196639594799405
493,0.0194522700241026
494,0.0197576312114575
495,0.0194659036159584
496,0.0195250346293512
497,0.0191876213153293
498,0.0193387004991109
499,0.0189874506047656
500,0.0190651151827293
501,0.018832906909055
502,0.019239387586521
503,0.0193083214606537
504,0.01909694417406
505,0.0197443684310504
506,0.019766503692775
507,0.0198906054856884
508,0.0200204059163174
509,0.020180907528651
510,0.0199067109220342
511,0.0203197521030837
512,0.0201519440000948
513,0.0197253628415871
514,0.0196121794785816
515,0.0194085996425259
516,0.0194416047187149
517,0.0195527452201851
518,0.0195425421984107
519,0.0199983090651987
520,0.0204715928785608
521,0.0207851162968615
522,0.0210986397151622
523,0.0214121631334629
524,0.0213857042070185
525,0.0215439823415715
526,0.0217719410990079
527,0.0217671715175421
528,0.021901969799863
529,0.0222862472266321
530,0.0223256317803616
531,0.0225167583755389
532,0.0224682993236049
533,0.0227355508276882
534,0.0228523576410254
535,0.0226875274572398
536,0.0228856096534121
537,0.0227179736995765
538,0.0226184608944634
539,0.0225354450896372
540,0.0225766108423494
541,0.022520481342893
542,0.0224269084856242
543,0.0224672908965485
544,0.0226539973908168
545,0.02250972993178
546,0.0227364533788055
547,0.0227507457435849
548,0.0227650381083644
549,0.0227793304731438
550,0.0226950836468461
551,0.0229086482014074
552,0.0231431688720431
553,0.0229550977264561
554,0.0228091165408168
555,0.0230662224257627
556,0.0227195503873415
557,0.0226997343844099
558,0.0225535664303132
559,0.0223249480745503
560,0.0226229465430743
561,0.022176398602416
562,0.0225245687437875
563,0.0220767184352769
564,0.0221985856230875
565,0.0218049817870008
566,0.0215236074361666
567,0.0211470332524558
568,0.0212347342162293
569,0.0208738594243519
570,0.020846042862236
571,0.0207788463170211
572,0.0206970969106899
573,0.0206786295039948
574,0.0206878359573174
575,0.0205349895487402
576,0.0205914331908753
577,0.0206478768330105
578,0.0207043204751457
579,0.0207607641172809
580,0.020817207759416
581,0.0210686152781835
582,0.0208989650911188
583,0.0209110372582777
584,0.0205063997842265
585,0.0202545341217524
586,0.0195128054325058
587,0.019019731892566
588,0.0186861092218217
589,0.0183524865510773
590,0.0180188638803329
591,0.0180654844546325
592,0.0183348841726325
593,0.0183523560710887
594,0.0187160134644906
595,0.0187755151440413
596,0.0189983766120937
597,0.019234971936031
598,0.0193481819147222
599,0.0195118447964993
600,0.0197434530738493
601,0.0199883636861452
602,0.0201740536110589
603,0.0200483176232158
604,0.0203043405120694
605,0.0200584193194142
606,0.0201371231792587
607,0.019997618034414
608,0.0197572912024331
609,0.019706377884408
610,0.0195447087488015
611,0.0193759609096233
612,0.0192082326603844
613,0.0191609871132444
614,0.018894712608315
615,0.0191005697197333
616,0.0188318594996446
617,0.0189850550805423
618,0.0188928215338291
619,0.0190513802963733
620,0.0188892674684025
621,0.0190491550098514
622,0.0186267656468518
623,0.0184955768936916
624,0.0183140158165091
625,0.0181324547393266
626,0.0179508936621441
627,0.017916374808582
628,0.0177707573780926
629,0.017776990713086
630,0.017941038399848
631,0.0177770968603523
632,0.017944682710743
633,0.0180783299494392
634,0.0180976890124446
635,0.0182337263759404
636,0.0181381379330511
637,0.0182677924565481
638,0.0181459655323219
639,0.0181749160169445
640,0.0181192005733385
641,0.0180239383925638
642,0.0179597496831292
643,0.0177076855715953
644,0.0174556214600614
645,0.0172035573485275
646,0.0170301674780219
647,0.0169812059303129
648,0.0166087132173916
649,0.0169088639894834
650,0.0168168320011445
651,0.0169550121364958
652,0.0167380688480948
653,0.0165568447524138
654,0.0163348435089412
655,0.0165252349166393
656,0.0163335041134774
657,0.0165677809094578
658,0.0168098704134322
659,0.0172627646008747
660,0.0175021381798059
661,0.0174774331181135
662,0.0176260125194127
663,0.0175721557625404
664,0.0174199020425388
665,0.0174249247145132
666,0.0175305391764697
667,0.0175561641876727
668,0.0176757709932332
669,0.0172253423644496
670,0.0173114524780686
671,0.0172884637905292
672,0.0172194083612085
673,0.0172733011973548
674,0.0172869232999223
675,0.0173110918303427
676,0.0173509372769811
677,0.0174532079608147
678,0.0173650596838965
679,0.0172699065011729
680,0.0176930028090785
681,0.0173636118981828
682,0.016997356352246
683,0.016611889706708
684,0.0159735207923547
685,0.0154484953480827
686,0.0150449560917398
687,0.014874815461681
688,0.0148284394325554
689,0.0149538334307087
690,0.0152203028247633
691,0.015634417872357
692,0.0158334938787498
693,0.016270668860073
694,0.0167761913206767
695,0.0169829766685204
696,0.0175036898195512
697,0.0178396134085778
698,0.0178585213182791
699,0.0181967491360551
700,0.0188488177197263
701,0.0190416557855069
702,0.0197023590386203
703,0.0202457568945275
704,0.0210241016023542
705,0.0213791868700809
706,0.0221481997608289
707,0.0227445208706739
708,0.0231773688811803
709,0.0238127888535631
710,0.0239554860466628
711,0.0242654209504911
712,0.0244119613517912
713,0.0235222898400993
714,0.0227268628836576
715,0.0214593155618239
716,0.0202719409868366
717,0.0196850097180703
718,0.0198278532975347
719,0.0201486814942799
720,0.020823085855975
721,0.0208487819853585
722,0.0218407581267969
723,0.0218592055609582
724,0.022012978688557
725,0.0224351887515722
726,0.0226611051124578
727,0.0235301807868218
728,0.0244356009403526
729,0.025757907682834
730,0.0271738296183523
731,0.0289456437619453
732,0.0305672927044884
733,0.0323924423229121
734,0.0336585992373593
735,0.0347332717865233
736,0.0359528398613028
737,0.0369587984768821
738,0.0379647570924615
739,0.0389707157080408
740,0.0405878600288768
741,0.0413840264085886
742,0.04223113846385
743,0.0430782505191113
744,0.0439253625743727
745,0.0444523934926809
746,0.0447971010625459
747,0.0453027968770248
748,0.0452882090426641
749,0.0456914492361303
750,0.0459926260648829
751,0.0459025565664465
752,0.0467921544776687
753,0.0465158043534658
754,0.0458785228548626
755,0.0423462156986607
756,0.0388139085424589
757,0.035281601386257
758,0.0298345096312506
759,0.0249562874526675
760,0.0219218603014277
761,0.0214166598718326
762,0.022205717147051
763,0.0248079057564961
764,0.0283582184894703
765,0.031931038571476
766,0.0358959861662808
767,0.0397916839353494
768,0.042426328410519
769,0.0443037101841118
770,0.0457975116871045
771,0.0463003219559088
772,0.0471490809518096
773,0.0478532915039125
774,0.047721797232092
775,0.048002566807991
776,0.0482879702547712
777,0.0477837165504615
778,0.0485180994588472
779,0.047962122456395
780,0.0483574304002536
