"wavelength","measurement"
380,0.00248868577929083
381,0.00245066207389245
382,0.00251118352974529
383,0.00246141041701341
384,0.00257193080017867
385,0.00272413184416674
386,0.00286813681567955
387,0.00311891609736748
388,0.00331309011028514
389,0.00351475493091998
390,0.00347569345979768
391,0.00355151416827928
392,0.0035819822609742
393,0.00370336486131905
394,0.0038616326658951
395,0.00410904526161439
396,0.00458839636987586
397,0.00515045177801279
398,0.00571250718614972
399,0.00627456259428665
400,0.0066235218248825
401,0.00711417436200577
402,0.00749036494211734
403,0.0076728322471401
404,0.00776790422418223
405,0.00782983034727204
406,0.00806511028965423
407,0.0082546373149235
408,0.00839409993512282
409,0.00864741733424659
410,0.00915429785940085
411,0.0093151965155003
412,0.00961658685004237
413,0.00995739699348196
414,0.0100236910694484
415,0.0102436134412253
416,0.0102244199106647
417,0.0102562568334733
418,0.0105080351937597
419,0.0103789275637378
420,0.0107144926145367
421,0.0107585226634054
422,0.0109093875813825
423,0.0110407942223099
424,0.0111766272701535
425,0.011041562820461
426,0.0109874734981043
427,0.0107349256920488
428,0.0104060917611035
429,0.0104505167532974
430,0.0105366173619393
431,0.0109495726144382
432,0.0113749844703963
433,0.0117918989231004
434,0.012364910085389
435,0.0126552783810623
436,0.0128452656102224
437,0.0130973723342538
438,0.0133494790582852
439,0.0136015857823166
440,0.0136717511197118
441,0.013984803190361
442,0.014374755607404
443,0.0144967707419465
444,0.0147939360094495
445,0.0150911012769524
446,0.0153882665444553
447,0.0156711176987573
448,0.015768109040626
449,0.0164085626186423
450,0.0163511481871558
451,0.0162816302436429
452,0.0162689724000741
453,0.0162563145565053
454,0.0162436567129364
455,0.0162761886807553
456,0.0163119867390843
457,0.0165921940211235
458,0.0166950242020632
459,0.0170050121724684
460,0.0170613448778894
461,0.0169017088081569
462,0.0174284704394511
463,0.0169718408825045
464,0.0167764077440268
465,0.0167170326627602
466,0.0165189336020046
467,0.0165217552148214
468,0.016375262588404
469,0.0162485923765849
470,0.0166433623706738
471,0.0166204589402726
472,0.0167629982768356
473,0.016986103326865
474,0.0170614892684214
475,0.0173221359048877
476,0.0169499572633117
477,0.0169791945979217
478,0.0170084319325316
479,0.0170376692671416
480,0.0169993348925583
481,0.0165843762206324
482,0.0163017559676637
483,0.0162560948412122
484,0.015831504503581
485,0.0155814615953211
486,0.0157339130649024
487,0.0158707674452293
488,0.0160272705998529
489,0.0164596958675807
490,0.0166499723809562
491,0.0167887560299101
492,0.0172075297301901
493,0.0170267314589668
494,0.0173052721734752
495,0.0170784739778133
496,0.0172022857424488
497,0.0169090928899353
498,0.0170441240591413
499,0.0166420784858554
500,0.0167829696319896
501,0.016676506027657
502,0.0169715241189429
503,0.0170608631623548
504,0.0169457117525282
505,0.0175279486090297
506,0.0174338464741627
507,0.0175060256892293
508,0.0176154309457828
509,0.0176123008394456
510,0.0173097520962961
511,0.0175842431119612
512,0.0174117312600054
513,0.0169479452634997
514,0.0168691747605277
515,0.0165728013039832
516,0.0164875868334821
517,0.0164553902111058
518,0.0164001099503197
519,0.0167210038182137
520,0.0170371966234793
521,0.0172344512903324
522,0.0174317059571855
523,0.0176289606240385
524,0.0174918893701249
525,0.0175628302295295
526,0.017597579647023
527,0.0175097104462468
528,0.0176158078873285
529,0.0178057169720259
530,0.0178321365918846
531,0.0178404950115487
532,0.0177838637693143
533,0.0179734606798173
534,0.0180073267290812
535,0.0177916854377666
536,0.0179935927173808
537,0.0178645499204328
538,0.017752675279127
539,0.0176437620963625
540,0.0177335411828479
541,0.0176096746789561
542,0.0175038355006757
543,0.0175576725142979
544,0.0176890845137558
545,0.0175397402106251
546,0.0176617850374657
547,0.0176150710715853
548,0.0175683571057049
549,0.0175216431398246
550,0.0174587001034882
551,0.0175636312747659
552,0.0176596712389093
553,0.0175057084182902
554,0.017420149300424
555,0.0175844590633425
556,0.0173563943886922
557,0.0173546059853056
558,0.0171920897719681
559,0.0170545625701303
560,0.0172495396147633
561,0.0169319313552907
562,0.0172063732476628
563,0.0169418824186152
564,0.0170207426891344
565,0.0167644940362533
566,0.0166772234922106
567,0.0164689940466947
568,0.0165952562877885
569,0.0163751265062965
570,0.0163496701845688
571,0.016364855165924
572,0.0163568520013453
573,0.0162960398494359
574,0.0164118818798338
575,0.0161890065623739
576,0.0162259995041122
577,0.0162629924458504
578,0.0162999853875887
579,0.016336978329327
580,0.0163739712710653
581,0.0165497460062829
582,0.0164771421783956
583,0.0165641269534456
584,0.0162729974587776
585,0.0162400182269886
586,0.0158037299022239
587,0.015602962971828
588,0.015439717555553
589,0.0152764721392781
590,0.0151132267230031
591,0.0151705043190822
592,0.0153012372546369
593,0.0152821510216369
594,0.0154472430548969
595,0.0153642783818395
596,0.0154429598636021
597,0.0154515084959583
598,0.0154066613097184
599,0.0154064843345282
600,0.0154644745924769
601,0.0155527201352505
602,0.0155752559316959
603,0.0154892613188539
604,0.0156013304642089
605,0.0155172366958401
606,0.0154809314712387
607,0.0153991620654903
608,0.0151778091848055
609,0.0151387875527747
610,0.0150227410174288
611,0.0148878466585968
612,0.0147589325959903
613,0.0146852010976616
614,0.0144463269080742
615,0.0146069789786833
616,0.014422756347496
617,0.0145509700541069
618,0.0144858904809599
619,0.0145183885024276
620,0.0144332605647071
621,0.0144880792206617
622,0.0141697718506041
623,0.0141639968194994
624,0.0140179013069152
625,0.013871805794331
626,0.0137257102817468
627,0.0136645166107622
628,0.0135763750431106
629,0.0135253165967927
630,0.0136327731257917
631,0.013445549880855
632,0.0135095719896871
633,0.0135690649659443
634,0.0135723893489136
635,0.0136078239538189
636,0.0134902368425836
637,0.0135860638145974
638,0.0134508469373312
639,0.0135065945799745
640,0.0133890404605967
641,0.0133486169651135
642,0.0132452770240873
643,0.0131405796198292
644,0.013035882215571
645,0.0129311848113129
646,0.0129517042778719
647,0.0129348660833027
648,0.012654878515923
649,0.0128608187657625
650,0.012669004423085
651,0.0127424615453465
652,0.0125749885395024
653,0.0123410755300693
654,0.0120752658481599
655,0.0121379593703455
656,0.0119975965414531
657,0.0120458558237222
658,0.0121455632945899
659,0.0124270650498813
660,0.0124794272379203
661,0.0125133294559033
662,0.0125106720321204
663,0.0124170573242574
664,0.0122788229929162
665,0.0123152298818117
666,0.0122819059304741
667,0.0122720159922207
668,0.0122465964220683
669,0.0120048165122966
670,0.012025484816947
671,0.0119180850813455
672,0.0118744487836739
673,0.0118784263157068
674,0.0118721238070733
675,0.0118237086538006
676,0.0117511292669465
677,0.0118185984445289
678,0.0116564951944865
679,0.0115722071067518
680,0.0118437753600602
681,0.0115648928102333
682,0.0112988247440184
683,0.0109987464723304
684,0.0105231723972039
685,0.0101532189153509
686,0.00982054445517802
687,0.0095643937006744
688,0.00944736878714166
689,0.00957377464973867
690,0.00976726840012189
691,0.0100106632434695
692,0.0101435803553051
693,0.0102189871507959
694,0.0104314841187178
695,0.010436253458681
696,0.0106023946987995
697,0.0106395131821815
698,0.0104831360507949
699,0.0105328016034443
700,0.0106908311403375
701,0.0105886439485146
702,0.0107345669121987
703,0.0107610543961185
704,0.0109362292157322
705,0.0108839409578412
706,0.0110507519035243
707,0.0111524648304974
708,0.0111345930250093
709,0.0112416052289696
710,0.011106243146432
711,0.0111119057015092
712,0.0111466986508061
713,0.0107506982214615
714,0.010546286819822
715,0.010059681519999
716,0.00966247020833723
717,0.00936402551434686
718,0.00925072651697931
719,0.0092852585408073
720,0.00938580890145094
721,0.00927382216350284
722,0.00953662734549589
723,0.00948929428209832
724,0.00946034686010092
725,0.00946347285928007
726,0.00943293103436336
727,0.00954293458434798
728,0.00963608131202199
729,0.00979668915869102
730,0.0099480180259789
731,0.010198408499219
732,0.010416465635613
733,0.0106384763011605
734,0.0108052251999534
735,0.0108395716429455
736,0.0109500851904015
737,0.0109655529571553
738,0.0109810207239091
739,0.0109964884906629
740,0.0111469651131093
741,0.0111388531884105
742,0.0111528523966567
743,0.0111668516049029
744,0.011180850813149
745,0.0111836966957722
746,0.0111582379031065
747,0.0111632148031502
748,0.0109931890436308
749,0.011001792501529
750,0.0109694903531821
751,0.0108804810452565
752,0.0109654760192096
753,0.0107497923931406
754,0.0106777781544446
755,0.00988294571819124
756,0.0090881132819379
757,0.00829328084568456
758,0.00709932962318966
759,0.00598098874132042
760,0.00522633535913633
761,0.00503709771613683
762,0.00522470018678948
763,0.00564586368693312
764,0.00638142188277294
765,0.00704057834908677
766,0.00783586908567811
767,0.00862978938238722
768,0.00905668531478286
769,0.00935824968414526
770,0.00960194673589502
771,0.00969118149203373
772,0.00976285646980154
773,0.00989192938161731
774,0.00979426510590409
775,0.00977591901185709
776,0.0097974866347096
777,0.00964772861139029
778,0.00970223676773258
779,0.00957188809726657
780,0.00967750576866144
