"wavelength","measurement"
380,0.00237912593360755
381,0.00244750816376467
382,0.00246760295604626
383,0.00234775291122817
384,0.00233246143367877
385,0.00244843705006371
386,0.00257966613343125
387,0.00286375398877473
388,0.00288329383332485
389,0.00295198577538227
390,0.00299744932099464
391,0.00310113244975694
392,0.00313377625593727
393,0.00323787560786438
394,0.00320020518874115
395,0.00356273242162941
396,0.00399648251302854
397,0.00446286335057848
398,0.00492924418812842
399,0.00539562502567835
400,0.00568322749712775
401,0.00597437283987741
402,0.00639894391156316
403,0.00646685547797884
404,0.00656326035999765
405,0.0066526335292783
406,0.00674095468597552
407,0.00687627890878914
408,0.00705204189893149
409,0.00724523714587499
410,0.0075522942538735
411,0.00769479715083299
412,0.00792837468752817
413,0.00816200384132834
414,0.0081546675942404
415,0.00827786240989696
416,0.00817995367948562
417,0.00819793492104689
418,0.00837959935486617
419,0.00826897056553669
420,0.00848539475761215
421,0.00855119980651563
422,0.00866961889547007
423,0.00879578012367183
424,0.00884767150780336
425,0.00874836092561189
426,0.00876441255787114
427,0.00854299917666214
428,0.00834069623437365
429,0.00837176294556897
430,0.00844056905372865
431,0.00896239404407348
432,0.00934368284668427
433,0.00978186395527509
434,0.0101709665711849
435,0.0105395271895152
436,0.010654520204319
437,0.0109835491932579
438,0.0113125781821969
439,0.0116416071711358
440,0.0119299654266957
441,0.0121961128554
442,0.0126937842975932
443,0.013000169387171
444,0.0134559055029463
445,0.0139116416187216
446,0.0143673777344969
447,0.0148610644367109
448,0.0150212087239957
449,0.0157799666908353
450,0.0157486223253609
451,0.0157394674604965
452,0.0157307321551189
453,0.0157219968497413
454,0.0157132615443637
455,0.0156942244806168
456,0.0155299429027269
457,0.0155966336951689
458,0.0156227618770358
459,0.0156564043449588
460,0.0155813118928039
461,0.0153622120481182
462,0.015706657940246
463,0.0151017947158185
464,0.0149162830967484
465,0.0147634958858706
466,0.0144979409956005
467,0.014485744173228
468,0.0142958348394816
469,0.0141634389561974
470,0.0144234033672534
471,0.0143647636587591
472,0.0143915829927643
473,0.0145684489910299
474,0.014546692669409
475,0.0146635922120327
476,0.0143395964872994
477,0.0143523292818783
478,0.0143650620764572
479,0.0143777948710361
480,0.0142826531999784
481,0.0139608503901463
482,0.0137801851250294
483,0.0137120689962563
484,0.0134704276519604
485,0.0132421603734102
486,0.0134692807682799
487,0.0135991021474732
488,0.0137580108850493
489,0.0141924021939095
490,0.0143547875636518
491,0.0145356837466448
492,0.0149199060542386
493,0.0148170235455946
494,0.0150764208544013
495,0.0149106204208297
496,0.0150380710280826
497,0.0148672524671318
498,0.015009888930366
499,0.0147577101563839
500,0.0149581972082903
501,0.0148816470516532
502,0.015281804766118
503,0.015410845358083
504,0.0152895561991623
505,0.0159061555555061
506,0.01585232773515
507,0.015965043381546
508,0.0160742264687466
509,0.0161448477552772
510,0.0158922212728754
511,0.0161585904525424
512,0.0160206837598033
513,0.0156943671698835
514,0.0156093833673408
515,0.0154218471381114
516,0.0153703435474625
517,0.0154018474259266
518,0.0153641875502738
519,0.0156590398279616
520,0.0159585690639719
521,0.0161353266435115
522,0.016312084223051
523,0.0164888418025906
524,0.0163887412402922
525,0.0164880303628408
526,0.0165618181569635
527,0.0164482918279115
528,0.0165310599611964
529,0.0167727932536356
530,0.0167601367735311
531,0.0168266847970825
532,0.0168001851251848
533,0.0169752765731273
534,0.0171019852339665
535,0.0168577113248845
536,0.0171165299500098
537,0.0170311776947641
538,0.0169454287065843
539,0.0168799837674371
540,0.01709379443758
541,0.0170290858198845
542,0.0169763613694273
543,0.017124130168232
544,0.0172219620647903
545,0.0170772109764072
546,0.0172263578643572
547,0.0172173498072682
548,0.0172083417501792
549,0.0171993336930901
550,0.0170902335538397
551,0.0172671883103531
552,0.0174352588677295
553,0.0173304515363243
554,0.0173011346977734
555,0.0174899302657597
556,0.0173136265015684
557,0.0173373345848232
558,0.0173248529847342
559,0.0172280803807936
560,0.0175260561095998
561,0.0172046086995438
562,0.0176002328969196
563,0.0173716101483014
564,0.0175111209918019
565,0.0173569168230081
566,0.0173701233617861
567,0.0172456933941532
568,0.0174212574408183
569,0.0173482143370595
570,0.0173714759611085
571,0.0174850136803792
572,0.0175946524809162
573,0.0176150796419587
574,0.0178028174012835
575,0.0176523590337513
576,0.0177926912602386
577,0.0179330234867258
578,0.0180733557132131
579,0.0182136879397004
580,0.0183540201661876
581,0.0186684342297568
582,0.0186460441555937
583,0.0188728054537522
584,0.0186214020693264
585,0.0186950595307887
586,0.018375993756991
587,0.0183203390612865
588,0.018250645328728
589,0.0181809515961695
590,0.0181112578636111
591,0.0182889929036816
592,0.0184723221706369
593,0.018554688879497
594,0.0188399440821964
595,0.0188242699697288
596,0.0189844593516021
597,0.0190649705061424
598,0.0191346216677525
599,0.0192034531948765
600,0.0193396870495397
601,0.0195568373524564
602,0.0197051597148096
603,0.019595843336136
604,0.0198641907646308
605,0.0197168635157364
606,0.0197926035812296
607,0.0197681979567821
608,0.0196053306303025
609,0.0196975980412494
610,0.0196767398158478
611,0.0195724562190491
612,0.0194691956756823
613,0.0193532135105738
614,0.0191159375285276
615,0.0194034527371222
616,0.0191692568679372
617,0.0193178282827601
618,0.0193144514303987
619,0.0193363929686396
620,0.0193279303059904
621,0.0194168372803898
622,0.0190802912069536
623,0.0190854709979483
624,0.0189385880948016
625,0.018791705191655
626,0.0186448222885084
627,0.0186581057601049
628,0.0185901710824656
629,0.0185378239964115
630,0.0187090587799729
631,0.0184669687127861
632,0.0185784813913546
633,0.0186684121390438
634,0.0186747360517711
635,0.0187420245390632
636,0.0186428478565642
637,0.0187930881992219
638,0.0187398348749884
639,0.0188076960627511
640,0.0187099838855151
641,0.0186332829455589
642,0.0185462914011049
643,0.0184747928201725
644,0.01840329423924
645,0.0183317956583075
646,0.0183801225771265
647,0.0184838207004247
648,0.0181370372179174
649,0.0184248512992125
650,0.0182118221436491
651,0.0183550097912771
652,0.0182076479962821
653,0.0178580914746935
654,0.0175249898376808
655,0.0177744176917027
656,0.0175536589281806
657,0.0177439888404996
658,0.0179116667265316
659,0.0183053178159182
660,0.0184838500124419
661,0.0185527096159749
662,0.0186217993649017
663,0.0184766965872117
664,0.0183376709213679
665,0.0184246545412433
666,0.0184735350638253
667,0.0184979499258575
668,0.0185054562112349
669,0.0181753834656746
670,0.0183133688365882
671,0.0182451971542108
672,0.018248767235281
673,0.0181910390399946
674,0.0182860676953283
675,0.0182491937342725
676,0.0182602759614328
677,0.0184085464795935
678,0.0182567755018346
679,0.0181744788509416
680,0.0186167140050402
681,0.0183361673545965
682,0.0178615443031319
683,0.0174774421492159
684,0.0168277641531919
685,0.0162668560444619
686,0.0158556128654953
687,0.0155187507835695
688,0.015478428978468
689,0.0156562130158547
690,0.0160098455750082
691,0.0164690078107076
692,0.0166432032393976
693,0.0168460576979076
694,0.017128942291086
695,0.0171764362515982
696,0.0174456966107193
697,0.0175256446114512
698,0.0172649247043235
699,0.0173048060201371
700,0.0175423904846003
701,0.0174802342052475
702,0.0177222553685208
703,0.0177369192150289
704,0.0179901366208126
705,0.0179761963761568
706,0.0181973881552227
707,0.0183747692215995
708,0.0183454216290519
709,0.0185195027411213
710,0.0182949813888881
711,0.0182528407278292
712,0.018264769585738
713,0.0176049340992229
714,0.017249778794554
715,0.0164703413951404
716,0.0158485512641331
717,0.0154289445866294
718,0.0152704292040007
719,0.0153444852050461
720,0.0154835878937456
721,0.0153507776265675
722,0.0156942281046469
723,0.0156797668085062
724,0.0156526707252524
725,0.0156711526521029
726,0.0156223095145082
727,0.0158386175505978
728,0.0160095573467383
729,0.0162704608145615
730,0.0165750330719273
731,0.0169914396075007
732,0.017368708323835
733,0.0178033959111036
734,0.0180381288720622
735,0.0181795785866246
736,0.0183313837030494
737,0.0184180396534737
738,0.018504695603898
739,0.0185913515543223
740,0.0189521541022916
741,0.0190387364492716
742,0.0191546395028789
743,0.0192705425564862
744,0.0193864456100934
745,0.0194654828619859
746,0.0194851247239633
747,0.0196094392961513
748,0.0194135019074307
749,0.0196008683888395
750,0.0196752736888561
751,0.0196201724764839
752,0.0199902713148551
753,0.0198170230456987
754,0.0195141187449781
755,0.0181054655441715
756,0.0166968123433649
757,0.0152881591425582
758,0.0130777057384092
759,0.0111642932865637
760,0.00996152309681571
761,0.00980903242823037
762,0.0103985698780685
763,0.0115104538092214
764,0.0129989182308565
765,0.0144761394275379
766,0.0162016793087184
767,0.0177546144195176
768,0.0186907631402924
769,0.0194024568342809
770,0.0199328301376126
771,0.0202442912848908
772,0.0205156276777231
773,0.0208806588025944
774,0.0207710667061343
775,0.0209002666028984
776,0.020958482809167
777,0.0207788594984121
778,0.0211167667780505
779,0.0208255946592188
780,0.021170065772288
