"wavelength","measurement"
380,0.00242072837418444
381,0.00236475197126146
382,0.0024383647282655
383,0.00240350694699019
384,0.00244946531571326
385,0.00261812189700763
386,0.00279764267757545
387,0.00304001337076471
388,0.00319900691781921
389,0.0033326434880444
390,0.00331719662264532
391,0.00339613610188834
392,0.00345115144514103
393,0.00352644011304061
394,0.00370843496063078
395,0.00389411198292772
396,0.00439746289390034
397,0.00492548575192792
398,0.0054535086099555
399,0.00598153146798308
400,0.00638188243252488
401,0.00681680983841047
402,0.00722678206216421
403,0.00736724120891294
404,0.00744590962030972
405,0.00758873790366621
406,0.007769799695979
407,0.00791855269821463
408,0.00813063378483241
409,0.00836884268517198
410,0.00886698379718351
411,0.00896899344701649
412,0.00928252095746567
413,0.00962769233298385
414,0.00966488036821079
415,0.00991852896342569
416,0.00988089238220364
417,0.00990650783057999
418,0.0100244338373393
419,0.00998012974021121
420,0.0102688493928643
421,0.0103742176861162
422,0.0104850576897385
423,0.0106590256011921
424,0.0107400993524633
425,0.0105898153271674
426,0.010565589649403
427,0.0103103611263624
428,0.0100246257861223
429,0.010060508271496
430,0.010110009198936
431,0.0104924021404241
432,0.010920216559877
433,0.0113310095692176
434,0.011858190175496
435,0.0121150097500092
436,0.0122631998908241
437,0.0125088884159463
438,0.0127545769410685
439,0.0130002654661907
440,0.0131381634701392
441,0.0133966576232566
442,0.0137534594178665
443,0.0139652581278902
444,0.0142175805780652
445,0.0144699030282401
446,0.0147222254784151
447,0.0150557656404191
448,0.0151113812153504
449,0.0158060780899771
450,0.0157031286304491
451,0.0156169473208937
452,0.015615055244371
453,0.0156131631678483
454,0.0156112710913257
455,0.0156735698706149
456,0.0156567142357062
457,0.0159534882825481
458,0.0160463919204243
459,0.0163456017166217
460,0.0163877329808894
461,0.0162477331383335
462,0.0168111412462431
463,0.0163376171173336
464,0.0162169492194831
465,0.0160882480854
466,0.015899260454141
467,0.0158935824994543
468,0.0157671386952157
469,0.0156481695398149
470,0.0160610972293602
471,0.0159905960405376
472,0.0161783273411646
473,0.0163721985516961
474,0.0164341922742123
475,0.0167076297183987
476,0.0163305624118104
477,0.0163605866764814
478,0.0163906109411525
479,0.0164206352058235
480,0.0163960828451011
481,0.0160018164480211
482,0.0157474939860187
483,0.0156968960429506
484,0.0152994348753189
485,0.0150214169301899
486,0.0151925378955913
487,0.015323720725904
488,0.0154621771236798
489,0.0159502201110635
490,0.016087727662643
491,0.0162310742904871
492,0.0166439553250027
493,0.0164863862099549
494,0.0167460885167167
495,0.0165377316068609
496,0.0166744272034073
497,0.0163675241228803
498,0.0164714658116116
499,0.0161360664316901
500,0.0162256874094057
501,0.0161354294602353
502,0.0164789498667943
503,0.0165809675865901
504,0.0164413702780689
505,0.0169631063241635
506,0.0169075115091613
507,0.0169946976440097
508,0.0170881065308309
509,0.017073374706826
510,0.016800642022418
511,0.0170848563775555
512,0.016911236469662
513,0.0164659505651289
514,0.0163679871998093
515,0.0161343397730613
516,0.0160054090316938
517,0.0159599979300735
518,0.015956530330979
519,0.0162523874854088
520,0.0165670327467432
521,0.0167503092277591
522,0.0169335857087751
523,0.0171168621897911
524,0.0170440010336122
525,0.0171016544430559
526,0.0171134810015727
527,0.0170345822734296
528,0.0171010708075657
529,0.0173959026822169
530,0.0173776696862924
531,0.0174074036115636
532,0.0173504315275718
533,0.0175331158668073
534,0.0175741857314976
535,0.0173794374032647
536,0.0175671913012598
537,0.0174206722607618
538,0.0172933305096728
539,0.0172054491232489
540,0.0172948134063604
541,0.0171989428852187
542,0.0170847589912078
543,0.0170977812556066
544,0.0172304684194964
545,0.0171353351364496
546,0.0172069492177205
547,0.0171826466802799
548,0.0171583441428393
549,0.0171340416053986
550,0.017017599006068
551,0.0171579689193179
552,0.0172381531033247
553,0.0170695823607966
554,0.0170091011976784
555,0.017154335753076
556,0.0169556209874221
557,0.0168877865637621
558,0.0167896513144766
559,0.0166336919587823
560,0.0168560761629164
561,0.016534739836535
562,0.0168201658106008
563,0.0165819604426359
564,0.016628637296035
565,0.0164034963143872
566,0.0163106936904236
567,0.0161362333369204
568,0.0161845235249634
569,0.0159951444041394
570,0.0159824411831058
571,0.0160124768379333
572,0.0159458340848403
573,0.0159738900870195
574,0.0160430293831446
575,0.0158538003068676
576,0.0158805218286905
577,0.0159072433505135
578,0.0159339648723365
579,0.0159606863941595
580,0.0159874079159825
581,0.0162082858070844
582,0.0161341115039497
583,0.0162044952143216
584,0.0159283049481173
585,0.0159030258796949
586,0.0154959618585115
587,0.0152974934583733
588,0.015117497692516
589,0.0149375019266587
590,0.0147575061608014
591,0.014832308224944
592,0.0149587730705357
593,0.0149029286313191
594,0.0151264848067314
595,0.0150281501546578
596,0.0151279396673178
597,0.015137177496791
598,0.0150830656850938
599,0.0150511423240083
600,0.0151207586413641
601,0.0151946980778452
602,0.0152166316409649
603,0.0151374171571622
604,0.0152621103361673
605,0.0151477331338918
606,0.015156615274378
607,0.0150568065228829
608,0.0148730993708702
609,0.0148302065234298
610,0.0146962804345715
611,0.0145631088709776
612,0.0144141841915919
613,0.0144067518953633
614,0.0141573054684295
615,0.0143385155419433
616,0.0140963687773631
617,0.0142461651765645
618,0.0141685424637821
619,0.014181363711173
620,0.0141102203226037
621,0.014183477527419
622,0.0138916182086106
623,0.013865173302571
624,0.0137151227063131
625,0.0135650721100551
626,0.0134150215137971
627,0.0133753779721212
628,0.0132776894501157
629,0.0132026348691342
630,0.0133356638886261
631,0.0131452507678625
632,0.0131985434265554
633,0.0132578449415215
634,0.0132546111799489
635,0.0133051502717434
636,0.0131870836759844
637,0.0132938856500998
638,0.0131625367069367
639,0.0131988639054638
640,0.01311686913678
641,0.0130510335787626
642,0.0129758067774022
643,0.0128659263985635
644,0.0127560460197249
645,0.0126461656408862
646,0.0126648266170956
647,0.0126535188924833
648,0.0124098843717676
649,0.0125765513010037
650,0.0124109980589806
651,0.0124988331066945
652,0.0123185642086503
653,0.0120973678016205
654,0.0117915702934085
655,0.0118798128906731
656,0.011732166832528
657,0.0118136924390223
658,0.0118804418852496
659,0.0121622795937715
660,0.0122510485533294
661,0.0122374542268572
662,0.0122332772757641
663,0.0121423043587022
664,0.0120251444145262
665,0.01205771263851
666,0.0120556302338712
667,0.01200298603011
668,0.0119674235624592
669,0.0117367925399693
670,0.0117711862657062
671,0.0116698158695701
672,0.0116483141869417
673,0.0116423121165825
674,0.0116606298802307
675,0.0115542365974226
676,0.0115071762693548
677,0.0115727552878746
678,0.0113819755736174
679,0.0113547992039507
680,0.0115959239288248
681,0.0113737742654136
682,0.0110730558691659
683,0.0107837849053471
684,0.0103307399727686
685,0.00994499898727518
686,0.0096890784667828
687,0.00938910646429782
688,0.00931049898383277
689,0.00933754153573235
690,0.00958097877180375
691,0.00982726597308156
692,0.00996802781458582
693,0.0100421728398586
694,0.0102284624302071
695,0.0102492615807894
696,0.0104080200174709
697,0.0104542957644972
698,0.0102929231657591
699,0.010345210362384
700,0.0104997332188885
701,0.0104448382267368
702,0.0105385629258112
703,0.0105613080380933
704,0.0107422158043321
705,0.0106978984218977
706,0.0108484405319134
707,0.0109502761062535
708,0.0108965440064929
709,0.0110358787422182
710,0.0109100064631037
711,0.010895043039725
712,0.0109751436592444
713,0.0105334020150031
714,0.0103408197748277
715,0.00989442015668808
716,0.00952129075424552
717,0.00922767717537447
718,0.00914638539184101
719,0.00914295358932586
720,0.00921942439918222
721,0.00914185413500673
722,0.00938632193610299
723,0.00933680538468868
724,0.00931526666640638
725,0.00932306606828279
726,0.00928163656418672
727,0.0093925711105935
728,0.00949577405971652
729,0.00960421452312253
730,0.00980852725047204
731,0.0100406962105633
732,0.0102429465695937
733,0.0104502403655183
734,0.0105987052153763
735,0.0106383869351414
736,0.0107728973019717
737,0.0107687913405985
738,0.0107646853792253
739,0.010760579417852
740,0.0109637929620523
741,0.0109514501891168
742,0.0109761338817771
743,0.0110008175744373
744,0.0110255012670976
745,0.0109882761350747
746,0.0109679109309701
747,0.0109710368463749
748,0.0107928524234682
749,0.0108468237705906
750,0.010758702811623
751,0.0106944538036623
752,0.0107859120366598
753,0.0105527776048826
754,0.0105280961612804
755,0.00975579954085914
756,0.00898350292043788
757,0.00821120630001663
758,0.00703923401555958
759,0.00592103158485128
760,0.00519418235301803
761,0.00501693005428928
762,0.00517507258663966
763,0.00562611663145614
764,0.00626457578371327
765,0.00698888085116557
766,0.00772670465264333
767,0.00853694765352811
768,0.00897749219676097
769,0.0092248247822617
770,0.00946735822476328
771,0.00955992854119669
772,0.00966052913872191
773,0.00980512522265301
774,0.00972504587860899
775,0.00966377052602422
776,0.00970006408663284
777,0.00956371492831739
778,0.0096171072857063
779,0.00946921181856803
780,0.00961339293676378
