"wavelength","measurement"
380,0.0116764481365356
381,0.0113335540537581
382,0.0109969029929261
383,0.0107617468945451
384,0.0107452877015601
385,0.0111230933674916
386,0.0115706469451988
387,0.012127864766914
388,0.0125377587140809
389,0.0127401789193964
390,0.012638103927045
391,0.0124320605804227
392,0.0123901747085487
393,0.0123085341316839
394,0.0123527067748346
395,0.0128372269787095
396,0.0142975953811721
397,0.0155782017956255
398,0.0168588082100789
399,0.0181394146245323
400,0.0190481653721296
401,0.0198730691601288
402,0.0204606375549638
403,0.0204242450839319
404,0.0203698618005695
405,0.0201342954181018
406,0.0203276802995056
407,0.0202458254584871
408,0.0203437884559993
409,0.0205225687374389
410,0.0213479632567026
411,0.0212626091417786
412,0.0216424167701278
413,0.0221431047158386
414,0.0221031976706977
415,0.0222998580058176
416,0.0220857491973955
417,0.0218230031600241
418,0.0221305457988563
419,0.0217344544544682
420,0.0221280470903431
421,0.0220823539346006
422,0.0222396693726168
423,0.0224926268433767
424,0.0225895067971467
425,0.022085426648576
426,0.0218083928890519
427,0.0212929194891119
428,0.0204776075159479
429,0.0204530630874304
430,0.0206504810904925
431,0.0212742424299636
432,0.021939488680417
433,0.02261764789494
434,0.0235776670234699
435,0.0240057210653353
436,0.0242356278634922
437,0.0246023601498141
438,0.024969092436136
439,0.0253358247224579
440,0.0254203148832267
441,0.025953733852748
442,0.0264276067843348
443,0.0265812388056592
444,0.0269521616942668
445,0.0273230845828743
446,0.0276940074714819
447,0.0280803989152398
448,0.0281566780696929
449,0.0292537710976321
450,0.0289557469718481
451,0.0286988120319094
452,0.028592965702839
453,0.0284871193737686
454,0.0283812730446982
455,0.0284325972004037
456,0.0284272646175575
457,0.0286830162496315
458,0.0288568752824698
459,0.0292011068136818
460,0.0292327641657158
461,0.0289124804014938
462,0.0296305133879799
463,0.0289177117813862
464,0.0284104791070439
465,0.0282506274405272
466,0.0278058525800574
467,0.0277954641701545
468,0.0274762363556961
469,0.0272992124196057
470,0.0278204765380636
471,0.0277512217528325
472,0.0278158690077029
473,0.0281481655613363
474,0.0282052149464108
475,0.0284597908449189
476,0.0279258426032603
477,0.0279040666449001
478,0.0278822906865399
479,0.0278605147281797
480,0.0277311181950496
481,0.0270721848742082
482,0.026581318413296
483,0.0264536925407793
484,0.0257436085839736
485,0.0251786915791406
486,0.0255100744979103
487,0.0257521751289549
488,0.0260086219633824
489,0.0266069671029569
490,0.0268006306422991
491,0.0271406462118858
492,0.0277674750529126
493,0.0274861934438769
494,0.0279682366365185
495,0.0276550023318029
496,0.0277858543179018
497,0.0273389114849195
498,0.0275961908748634
499,0.0270824808517116
500,0.0273356412162243
501,0.0271058310279496
502,0.0278339182814573
503,0.0279751276682796
504,0.02791432779356
505,0.0288673339434875
506,0.0288522107344422
507,0.0290986586201503
508,0.0294885647897938
509,0.0295572200040057
510,0.0293230708968462
511,0.0298234829953406
512,0.0296529272230961
513,0.0291332186540513
514,0.0290400600994564
515,0.0288366874335499
516,0.028867480958891
517,0.0289892561789384
518,0.0291467247740859
519,0.029865255066588
520,0.0307178363723548
521,0.0312784444905374
522,0.0318390526087201
523,0.0323996607269027
524,0.0323832895737919
525,0.0326056965756313
526,0.0328678288189797
527,0.032938848789298
528,0.0333420340711064
529,0.0338690216007035
530,0.0340580770407355
531,0.0343302376052839
532,0.0343222246866853
533,0.0347748896055101
534,0.0350927405750808
535,0.0347806903299688
536,0.035377384138448
537,0.0351758086428388
538,0.035072867955906
539,0.0350104472718124
540,0.0352679523693946
541,0.0350891428608726
542,0.0350334074339671
543,0.0353533669327369
544,0.0356521263910314
545,0.0354475885216909
546,0.0359095962243028
547,0.0359418256591234
548,0.0359740550939441
549,0.0360062845287648
550,0.035915704000932
551,0.0363306919194792
552,0.0366392317556406
553,0.0364250049683755
554,0.0363830907446875
555,0.0368357979596775
556,0.0364326664430335
557,0.0363805633637766
558,0.0361380100764625
559,0.0360034990558782
560,0.0365816224323198
561,0.0359220991182971
562,0.03649434814267
563,0.0360429257960624
564,0.0361498725209614
565,0.0357033313479083
566,0.0354461004111448
567,0.0351421026416579
568,0.0352452805312959
569,0.0349248051380174
570,0.0349072673411531
571,0.0349363450095495
572,0.0349191188283713
573,0.0347876654914267
574,0.0350554275231369
575,0.0345327238235481
576,0.0346775110746467
577,0.0348222983257452
578,0.0349670855768438
579,0.0351118728279423
580,0.0352566600790409
581,0.0357833915746826
582,0.0356115507422099
583,0.0358850883228223
584,0.0353971606201098
585,0.0353254089595048
586,0.0343786434860089
587,0.0339917099506613
588,0.0336753656177699
589,0.0333590212848784
590,0.033042676951987
591,0.0333107140702624
592,0.0335928112400218
593,0.0336897350441696
594,0.0341202881383246
595,0.034235692451092
596,0.0344104862741563
597,0.0346117423020229
598,0.0345934325080322
599,0.0346500352696871
600,0.0350350002600134
601,0.0351805843165557
602,0.0354439037416685
603,0.035317218688337
604,0.0356826749693137
605,0.0355336098142236
606,0.0355990433654479
607,0.0353907311826966
608,0.0349529364687248
609,0.0350367539267748
610,0.0347834847395035
611,0.0344465889414134
612,0.0342443902990969
613,0.0340658049905267
614,0.0337380209590283
615,0.0342280856170772
616,0.0337743678002576
617,0.0340839992517924
618,0.0339380659553545
619,0.0342051924102297
620,0.0340845107360162
621,0.0343255106780076
622,0.0337321666949208
623,0.0336083799424626
624,0.0333980255829202
625,0.0331876712233778
626,0.0329773168638354
627,0.0329030678512874
628,0.0328844098731917
629,0.0328914295985118
630,0.0332295332795638
631,0.0329183384993904
632,0.0332158328438659
633,0.033485904494984
634,0.0335288544184098
635,0.0337720037172093
636,0.0334859054374981
637,0.033833421726895
638,0.0336513740524793
639,0.0337517297331003
640,0.0334333143398718
641,0.0333386726976694
642,0.0329853083180013
643,0.0327337905335783
644,0.0324822727491552
645,0.0322307549647322
646,0.0322380845574621
647,0.0322352065998861
648,0.0316022252221885
649,0.0320739219854859
650,0.0316976410950649
651,0.0319800748239612
652,0.0315917311024456
653,0.0310154959862028
654,0.0304804696175992
655,0.0307615341953315
656,0.0303742664975542
657,0.0306616080038236
658,0.0308161722192092
659,0.0315522246418846
660,0.0317234331439977
661,0.03169929363679
662,0.0317106013241373
663,0.0314042531093947
664,0.0310925136491597
665,0.031110571402797
666,0.0310782839357561
667,0.0310613295937982
668,0.0310414497428452
669,0.0303962098013751
670,0.030580851647686
671,0.0304928259877348
672,0.030390725427665
673,0.0304720318207136
674,0.0305059652223084
675,0.0305833115730132
676,0.0305310600608227
677,0.0309558179651885
678,0.0305927761955514
679,0.0307070314770158
680,0.0316033986765097
681,0.0312703618017957
682,0.0307642194869383
683,0.0303905784149674
684,0.0295117888754405
685,0.0288546713400361
686,0.0284723232603202
687,0.0283311798482933
688,0.028794770806193
689,0.0296507550855992
690,0.0309940561342629
691,0.0325529028847454
692,0.0337281664627195
693,0.034891847020239
694,0.0362557823952115
695,0.0371955320934379
696,0.0386511482170639
697,0.0397061689925942
698,0.0399190774748623
699,0.04088385164278
700,0.0423806456920944
701,0.0427576190626329
702,0.0441729613140823
703,0.0448822500157855
704,0.0463290807193079
705,0.0469664473758634
706,0.0481532811493719
707,0.0494167495339144
708,0.0500264176058214
709,0.0511937010157762
710,0.0512878872728948
711,0.0518088164016937
712,0.0524462800244735
713,0.0510455417001585
714,0.0505676491171401
715,0.0487116761033406
716,0.0470661214139739
717,0.0461376017962154
718,0.0461294328796153
719,0.0468184836696427
720,0.0476226625900472
721,0.0476565062401642
722,0.0491927639409531
723,0.0494056952198589
724,0.0494274832797021
725,0.0499057301394378
726,0.0499829665648354
727,0.0509913518118474
728,0.0519091085545848
729,0.053148706383523
730,0.0544364327272569
731,0.0559872202094483
732,0.0575169988560103
733,0.0592005412949036
734,0.0603914073956561
735,0.0608085469704
736,0.0618480803286199
737,0.0622289455801928
738,0.0626098108317656
739,0.0629906760833384
740,0.0641246298433704
741,0.0644360024740724
742,0.0649341039694392
743,0.065432205464806
744,0.0659303069601727
745,0.0663023237411098
746,0.0662192390809742
747,0.0665490636253922
748,0.0659319452278457
749,0.0666068093067999
750,0.0663986657939274
751,0.0661599398696776
752,0.0671852909881314
753,0.0666431178550517
754,0.0657717056936679
755,0.0610128175881321
756,0.0562539294825964
757,0.0514950413770606
758,0.0440390472746433
759,0.0372145650403249
760,0.032717416666498
761,0.0317848944999884
762,0.0331851963893553
763,0.0365849841969151
764,0.0412962944504442
765,0.046210515830176
766,0.051745238792
767,0.0569696349341228
768,0.0600534974015746
769,0.0625822113733852
770,0.0644450923056239
771,0.0652529805062863
772,0.0661597990871085
773,0.067100345837321
774,0.0669360870827946
775,0.0672164167331897
776,0.0676054029073416
777,0.0667889764993394
778,0.0677517182773459
779,0.067106422933515
780,0.0682736512037056
