"wavelength","measurement"
380,0.000433736966739785
381,0.000438788655228503
382,0.000416253813027521
383,0.000408480996212085
384,0.000447720900104398
385,0.000446635685889478
386,0.000488024140883724
387,0.000573716763235494
388,0.000586739573744541
389,0.000624153854451133
390,0.000640276457078265
391,0.000629712523039093
392,0.000670155825033527
393,0.000709735765936961
394,0.000749085032093084
395,0.000810133937636546
396,0.00091840881688107
397,0.0010379048239989
398,0.00115740083111673
399,0.00127689683823456
400,0.00135660856948536
401,0.00149408411765385
402,0.0016463243777513
403,0.00171389498039275
404,0.00173843314828127
405,0.00176963649165085
406,0.00185938236422368
407,0.00196121200162138
408,0.00202974591849064
409,0.00208929525217082
410,0.00226973519938074
411,0.00234200560416418
412,0.00243877037787668
413,0.00251435391784991
414,0.00252301839551379
415,0.00260525677493404
416,0.00258110287405201
417,0.00262906331624034
418,0.00268485326469423
419,0.00267734451989354
420,0.00275328582147436
421,0.00276181030526767
422,0.00281530596569822
423,0.00286202173933842
424,0.00289365388325164
425,0.00286349735132668
426,0.00283490892927205
427,0.00276953455463274
428,0.00272627205947208
429,0.00273125290066832
430,0.00275672405201154
431,0.00288665179949442
432,0.00298161629597773
433,0.00310046883057763
434,0.00326526033304091
435,0.00334216690100079
436,0.00337279698832765
437,0.00345189168549035
438,0.00353098638265305
439,0.00361008107981575
440,0.00363561589305762
441,0.00373174081432323
442,0.00384754119385792
443,0.00390535674595705
444,0.00400266886451066
445,0.00409998098306426
446,0.00419729310161787
447,0.00430566241697084
448,0.0043471546573721
449,0.00449528828523752
450,0.00449001847910276
451,0.00447524955156646
452,0.0044774679937158
453,0.00447968643586514
454,0.00448190487801448
455,0.00449703794592418
456,0.00448747286597984
457,0.00461295298724657
458,0.00462273271972933
459,0.00473758010143666
460,0.00474118222774611
461,0.00471344722699259
462,0.00485588079733735
463,0.0047355458610914
464,0.00468299262226392
465,0.00468704541406839
466,0.00461888272692177
467,0.00462188035133208
468,0.00459947497984077
469,0.00458020564946331
470,0.00470975185869825
471,0.00470136347334307
472,0.00474042886783906
473,0.00480277976425533
474,0.00483986535392096
475,0.00490523775842982
476,0.00481073652986443
477,0.00483361391184092
478,0.0048564912938174
479,0.00487936867579389
480,0.00484373545030714
481,0.00472581507151261
482,0.0046605104400136
483,0.00465082825247609
484,0.0045694792245085
485,0.00447628022218157
486,0.00455713045519655
487,0.00460017972482522
488,0.0046524520661944
489,0.00477737611581425
490,0.00483633420600881
491,0.00488251534173075
492,0.00501762084843845
493,0.00495157134506276
494,0.00505109803342361
495,0.00497694709981501
496,0.00501528894210863
497,0.00493459506794099
498,0.00496374755962773
499,0.00485530151224526
500,0.00491090336513783
501,0.0048777245191581
502,0.00498377329851531
503,0.00503144586364525
504,0.00495607018935263
505,0.00514564500269136
506,0.00512131427641518
507,0.00513991023899069
508,0.00517025483974689
509,0.00517286482697797
510,0.0050887835371537
511,0.00516421984008138
512,0.00512603955488778
513,0.00498123572681034
514,0.00496704138450781
515,0.00488266825529362
516,0.0048536777165641
517,0.00484163602983357
518,0.00485848531427376
519,0.00492558543343384
520,0.00503281978272746
521,0.00508968014742245
522,0.00514654051211745
523,0.00520340087681245
524,0.00515728906026806
525,0.00518253249921966
526,0.00518701989766217
527,0.00516837846676414
528,0.0051981441861357
529,0.00526105410458933
530,0.00528029806416436
531,0.00525570463289517
532,0.00525543627872467
533,0.00530654867543984
534,0.0053352992150613
535,0.00527708720652514
536,0.00531840058867114
537,0.00530367021246475
538,0.00524502106349337
539,0.00523120263976295
540,0.00526550397385255
541,0.0052447500560546
542,0.00521415214697776
543,0.00524834902885101
544,0.00527949183740772
545,0.00523242015034355
546,0.00526295039712237
547,0.00524653034325339
548,0.00523011028938442
549,0.00521369023551544
550,0.0051841070094971
551,0.0052299798841258
552,0.00525712284412328
553,0.00518818097500647
554,0.00517032803657498
555,0.00521746662688297
556,0.00516642473635994
557,0.00514903406421367
558,0.00511397763631864
559,0.00507794733111741
560,0.0051359020195647
561,0.00503154684740049
562,0.00512513574921014
563,0.00505091991115835
564,0.00506364980432899
565,0.00498147474453012
566,0.00496247869944155
567,0.00490018481615515
568,0.00494717369810916
569,0.00489309599198653
570,0.00488527885751193
571,0.00488933741289932
572,0.00488592324245179
573,0.00488013830438811
574,0.00489760830786892
575,0.00484924635959708
576,0.00486480248480615
577,0.00488035861001522
578,0.00489591473522429
579,0.00491147086043336
580,0.00492702698564244
581,0.00498438081679109
582,0.00495044988262441
583,0.00499087678734484
584,0.00489495753251964
585,0.00488817908002092
586,0.00475776019375739
587,0.00468951158552098
588,0.00464453615218669
589,0.00459956071885241
590,0.00455458528551813
591,0.00457533522973591
592,0.0046275019322012
593,0.0046074964647316
594,0.00465261225877602
595,0.00463881458980123
596,0.00466126808900073
597,0.00467349323778092
598,0.00465944757061775
599,0.00464604050791733
600,0.00467392084905704
601,0.00468897137078677
602,0.00471447408115461
603,0.00467901879599221
604,0.00469822982923439
605,0.00468744377905921
606,0.00467318566399142
607,0.00465841881599169
608,0.00458498115013797
609,0.00459073820652675
610,0.0045665707125222
611,0.00451691535375723
612,0.00448165916487275
613,0.00445583891030397
614,0.00439097160070489
615,0.004409187940205
616,0.00437244715541371
617,0.00441305992217732
618,0.00439480052353217
619,0.00440158487868596
620,0.00437493444970253
621,0.00438608961101587
622,0.00428288256892046
623,0.00430943885152537
624,0.00425384543154182
625,0.00419825201155827
626,0.00414265859157472
627,0.00412464271707416
628,0.0040962545709221
629,0.00409424853291298
630,0.0041319311104353
631,0.00407683761409081
632,0.00409178151005672
633,0.00410216223624876
634,0.00408750523765131
635,0.00410569955667814
636,0.00408199981312544
637,0.0041104274512944
638,0.00405754826112393
639,0.00408971428204473
640,0.00404137427428781
641,0.00404824410078754
642,0.00402913505896335
643,0.00399669010374444
644,0.00396424514852552
645,0.00393180019330661
646,0.00393579150384886
647,0.00393897565445919
648,0.00385866781202268
649,0.00392646649305171
650,0.00386112635766775
651,0.00387324782806207
652,0.00383842970511748
653,0.00375960759156048
654,0.00366930945715294
655,0.0036897156736025
656,0.00366931921808409
657,0.00368827008024937
658,0.00371501283645141
659,0.00380326162202867
660,0.00383061915852407
661,0.0038276186032269
662,0.00382975678996347
663,0.00379161730912586
664,0.00375799493278612
665,0.00377542240828124
666,0.00377549127137759
667,0.00376238055484005
668,0.00376185632090166
669,0.00367231753699124
670,0.00369585530115663
671,0.00366850643690302
672,0.00365920102620393
673,0.00366991756419186
674,0.00366741304312353
675,0.00363210395110794
676,0.00363404817117691
677,0.00365420852741574
678,0.0035942054604854
679,0.00355973425523608
680,0.00364203375471103
681,0.00357047598997855
682,0.00344225685921495
683,0.00337030542418442
684,0.0032125836187519
685,0.00310888243178174
686,0.00300114784207324
687,0.00294375324044882
688,0.00291082468704988
689,0.00292902037167014
690,0.0029939815786814
691,0.00306925392565157
692,0.00309253886424768
693,0.00310367562921262
694,0.00317209506082535
695,0.00316097129073569
696,0.00319693971463844
697,0.0031839229100257
698,0.00314198572806905
699,0.00316197980472925
700,0.00320330684847269
701,0.00317630553041139
702,0.00320075256087731
703,0.00320230997997226
704,0.00325099527042474
705,0.00321153052681498
706,0.00325484109541107
707,0.00328433226604579
708,0.00325640785109874
709,0.00327916413831709
710,0.00321332913187273
711,0.00322354636240081
712,0.00320364545719066
713,0.00309222135766911
714,0.00301415539091267
715,0.00286024042561393
716,0.00276312864510466
717,0.00266074292747979
718,0.00263298828170493
719,0.00264882964414856
720,0.0026654406345948
721,0.00262594255682025
722,0.00268598785964609
723,0.00266347276265618
724,0.00263820592270065
725,0.00263290247017679
726,0.00263413119468146
727,0.00265320736743848
728,0.00269457787466727
729,0.00269537820543143
730,0.00276523451531524
731,0.002824082102657
732,0.00286119138830561
733,0.00291219855668227
734,0.002932490032028
735,0.00295692385401673
736,0.00295711390239245
737,0.00296415768275081
738,0.00297120146310916
739,0.00297824524346752
740,0.0030096695612229
741,0.00302243823385085
742,0.00301989458867846
743,0.00301735094350607
744,0.00301480729833368
745,0.00300939232847548
746,0.00295697705127045
747,0.00298723067438797
748,0.00292196989750672
749,0.00295250129611242
750,0.0029344543496019
751,0.00291887859345564
752,0.00294689193599285
753,0.0028311948832184
754,0.0028353727291845
755,0.00261482695871183
756,0.00239428118823916
757,0.0021737354177665
758,0.00183550230068171
759,0.00156465035387835
760,0.00139437698667517
761,0.00140498829719213
762,0.00143703719518346
763,0.00155963658757148
764,0.00177852953671424
765,0.00195007392438548
766,0.0021645019790429
767,0.00234056683883634
768,0.00244937392784128
769,0.00254763178715452
770,0.00260800535415424
771,0.00262370621739215
772,0.0026324634420297
773,0.00265762921468394
774,0.00265586391703361
775,0.00265818040308037
776,0.00264365116470609
777,0.00262235611687815
778,0.00263812399138571
779,0.0025939308770874
780,0.0026294972897921
