"wavelength","measurement"
380,0.000951194028308065
381,0.000961443019959637
382,0.000966560137000225
383,0.000968254399037416
384,0.0010317770002329
385,0.0010776028304154
386,0.0011423802324209
387,0.00122600933381754
388,0.00130142848306362
389,0.00137104078561409
390,0.00134563387943797
391,0.00138847211329091
392,0.0013989050441421
393,0.00142481955089275
394,0.00154780138463691
395,0.00158077862847852
396,0.00181431691281634
397,0.002014435844959
398,0.00221455477710166
399,0.00241467370924431
400,0.00258320700148784
401,0.00275845901403446
402,0.00293121606420101
403,0.00296275619593797
404,0.00305049508478178
405,0.00307127139404325
406,0.00312742823100174
407,0.00321094954340109
408,0.00329042820282137
409,0.00338009226902701
410,0.00356070839468795
411,0.00358083759507461
412,0.00373747114825172
413,0.0038693353551953
414,0.00387410068276728
415,0.00394111645106097
416,0.00393484176802806
417,0.00391938695034473
418,0.00403264898951253
419,0.00396715026130054
420,0.00406633981577654
421,0.0040712410840826
422,0.00412905636051543
423,0.00419862223003609
424,0.00423904192516485
425,0.00418183433336062
426,0.00417421344867033
427,0.00403833159433024
428,0.00393318258164713
429,0.00396848938556702
430,0.00397178456082692
431,0.00414231216538151
432,0.00430182567396315
433,0.00447533699625277
434,0.00466645662485681
435,0.00483664077249862
436,0.00487485124992533
437,0.00497974880119671
438,0.00508464635246809
439,0.00518954390373948
440,0.00522709024594492
441,0.00535978206729694
442,0.00551964105133175
443,0.00558933485338727
444,0.0057231518771397
445,0.00585696890089212
446,0.00599078592464454
447,0.00610968157637433
448,0.00617570052870426
449,0.00642632240848565
450,0.00641712374353454
451,0.00637996422862569
452,0.00637199293420801
453,0.00636402163979033
454,0.00635605034537264
455,0.0064007150816916
456,0.00635352596691921
457,0.00654595077482562
458,0.00654882411006408
459,0.00669908038414806
460,0.00671446745922076
461,0.00665409357343053
462,0.00688380053845492
463,0.0066873697085263
464,0.0066401184882348
465,0.00661034672711427
466,0.00652456719225335
467,0.00652364014965196
468,0.00646751814614323
469,0.00643902679626404
470,0.00661536316464717
471,0.00661993089714123
472,0.00667905498692625
473,0.006758431289305
474,0.00678059157904749
475,0.00689892506700316
476,0.00679735248842813
477,0.00681361805932704
478,0.00682988363022594
479,0.00684614920112485
480,0.00682704310782368
481,0.00665725350708013
482,0.00657995096512386
483,0.00657090053878464
484,0.00643234443359158
485,0.00629154899307696
486,0.00637582288705745
487,0.00645363703936541
488,0.00649528726019783
489,0.0066885145918632
490,0.00679464342549492
491,0.00682988579596748
492,0.00706163618711533
493,0.00696229781845938
494,0.00709425450105001
495,0.00702323133094956
496,0.00704386748617775
497,0.00696079202497848
498,0.00701193389139129
499,0.00686499340629947
500,0.00694540737633163
501,0.00689017028689894
502,0.00703882714164599
503,0.00705692804689237
504,0.00704729077683914
505,0.00728588628910501
506,0.00725969842620912
507,0.00731399434339943
508,0.00736468124830451
509,0.00736113839573701
510,0.007268194669271
511,0.00740254903378862
512,0.00733174573567346
513,0.00712748843782248
514,0.00710584332690961
515,0.00699373423917779
516,0.00696636555070806
517,0.006957458982862
518,0.00695230056603038
519,0.00707938325575228
520,0.00724663050756472
521,0.00734294335782736
522,0.00743925620809001
523,0.00753556905835265
524,0.0074660579029207
525,0.00753652580112772
526,0.00752823574963758
527,0.00752699946452769
528,0.00757754586124046
529,0.00766956730547627
530,0.00768711890287948
531,0.00769878805092694
532,0.00766911559695708
533,0.00776364730673796
534,0.00782683695025441
535,0.00770578789846437
536,0.00779162918640085
537,0.00776759472350092
538,0.00770703637213722
539,0.00769220305426642
540,0.00772061323572511
541,0.00767658739918945
542,0.00765871024512613
543,0.00768149823197853
544,0.00773653575656102
545,0.00766654383214259
546,0.00774558860343261
547,0.00773327891528734
548,0.00772096922714206
549,0.00770865953899678
550,0.00765711574337719
551,0.00773059280537778
552,0.00775985765524943
553,0.00769807519101049
554,0.00765824550893945
555,0.00773079423061362
556,0.00765359541946427
557,0.00764385864039541
558,0.00758455744989834
559,0.00753253988088259
560,0.00760618924051431
561,0.00748169366559323
562,0.00760848845817048
563,0.00750204987526542
564,0.0075269181216597
565,0.00741215931446376
566,0.00740536224234246
567,0.0072864523948516
568,0.00735155812553063
569,0.00726508367507047
570,0.00723949159596198
571,0.00727397602174243
572,0.00726064219033222
573,0.00725072263395859
574,0.00728692215898373
575,0.00721220303149665
576,0.00723289457729021
577,0.00725358612308376
578,0.00727427766887731
579,0.00729496921467087
580,0.00731566076046442
581,0.00741450047420208
582,0.00737294567308469
583,0.00740700696597471
584,0.0072892921978314
585,0.00728449795000443
586,0.00710360867195587
587,0.00698942867488771
588,0.00692004270023232
589,0.00685065672557693
590,0.00678127075092153
591,0.00679702848482782
592,0.00687836763012342
593,0.00686300377691954
594,0.00694979445635094
595,0.00688914216571834
596,0.00692601913273556
597,0.00695186150369743
598,0.00694999685592662
599,0.00693086201939837
600,0.00695347653147308
601,0.0070034932337407
602,0.00701006002086079
603,0.00697288770349747
604,0.00700953048600751
605,0.00700524891973753
606,0.0069766512109493
607,0.00695943225013564
608,0.00685995446324568
609,0.00684363934797101
610,0.00679378986321094
611,0.00672369064104449
612,0.00667948097292463
613,0.00664512349429805
614,0.00653360943461672
615,0.00658131136440106
616,0.00653084697709881
617,0.00658545226546813
618,0.00656025197033967
619,0.00655746073652272
620,0.0065136238440992
621,0.00657538911764395
622,0.00641040547657027
623,0.00643242786400179
624,0.00635967053218476
625,0.00628691320036773
626,0.0062141558685507
627,0.00619355803369533
628,0.00613732164016672
629,0.00613675946541812
630,0.00618390358836194
631,0.0061038586059309
632,0.0061243792327576
633,0.00614681920259743
634,0.00614921955952313
635,0.00614817484242662
636,0.00612305383496171
637,0.00615567479803771
638,0.00608088747230853
639,0.00611772542558757
640,0.00606267882152705
641,0.00606626261377456
642,0.00600788683105004
643,0.00596121475890767
644,0.00591454268676529
645,0.00586787061462292
646,0.00587226341812404
647,0.00586225469566316
648,0.00575793498940231
649,0.00584977335031527
650,0.00575711006759494
651,0.005793262375394
652,0.00571668988417075
653,0.00559177143962031
654,0.00547578426005131
655,0.00549823447737069
656,0.00544445639217086
657,0.00545597359621729
658,0.00550915569890396
659,0.00566056684922707
660,0.00568470901914131
661,0.00567136985824141
662,0.00568518505987378
663,0.00561532789365065
664,0.00557087563681951
665,0.00559770725109834
666,0.00557600588326532
667,0.00558153097663808
668,0.00553142326989685
669,0.00543233093625046
670,0.00544697336490159
671,0.00541854720112721
672,0.00538231624961466
673,0.00538708861921579
674,0.00539747660469746
675,0.00536782771968508
676,0.00533672440230018
677,0.00537855514162818
678,0.00531562265825954
679,0.00524231121165296
680,0.00538984758052005
681,0.00526237830298756
682,0.00512650594422938
683,0.00501694344977626
684,0.0048010579166722
685,0.00462142533452367
686,0.00449232454094694
687,0.00438202429057779
688,0.00432722223978969
689,0.004375501919372
690,0.00444892702497913
691,0.00461218122095176
692,0.00465714287747581
693,0.0046922165930582
694,0.00480563256934849
695,0.00482329229158209
696,0.00489979205730494
697,0.00490123262515881
698,0.0048385631206864
699,0.00485514328585401
700,0.00493862231397189
701,0.00491334605764201
702,0.00496307725330689
703,0.0049766601223276
704,0.00510427825559333
705,0.00504470946074825
706,0.00513442335194844
707,0.00520951031520358
708,0.00517254927026693
709,0.00522362067479741
710,0.00517247415069382
711,0.00519374004602226
712,0.00521131589394457
713,0.00501009884078935
714,0.00491824125600823
715,0.00471815628763198
716,0.00452553572810482
717,0.00437462865215062
718,0.00435178567346356
719,0.00431194016969505
720,0.00437557328130204
721,0.00432631959109416
722,0.00444388627198394
723,0.00442321858573751
724,0.00440733124273651
725,0.00441848772891695
726,0.00439189600585447
727,0.00445692116490869
728,0.00450314510561764
729,0.00452089458461773
730,0.00463290636271804
731,0.00474256241440818
732,0.00481402347589086
733,0.00492435398901458
734,0.00501889528866858
735,0.00500931765006663
736,0.00506776167308066
737,0.00507636055429307
738,0.00508495943550547
739,0.00509355831671788
740,0.00512569610617585
741,0.00515971276222823
742,0.00516360972365913
743,0.00516750668509002
744,0.00517140364652092
745,0.00517860471350551
746,0.00514714741528019
747,0.00517509687275378
748,0.00508223385677241
749,0.00509775656182107
750,0.00504920951011688
751,0.00503724251579476
752,0.00504908177857859
753,0.00490781947280956
754,0.00490634214161452
755,0.00455382987823474
756,0.00420131761485496
757,0.00384880535147518
758,0.00329925719183557
759,0.00278258316830955
760,0.00244018444336156
761,0.00235012632557649
762,0.00242813974539667
763,0.00264668754433285
764,0.00294087878847829
765,0.00326164027643383
766,0.00361861422312841
767,0.0040032325856338
768,0.00415956624773204
769,0.0043193736359181
770,0.00438398480604213
771,0.00446617769546068
772,0.00448458760798142
773,0.00454717881663877
774,0.00451319351106101
775,0.00450309139344481
776,0.00452037827953179
777,0.00444993760076193
778,0.0044579773194378
779,0.00442138006858943
780,0.00445588933770285
