"wavelength","measurement"
380,0.000385971337549119
381,0.000408321604884304
382,0.000401058321262436
383,0.00037604923870319
384,0.000423945467010931
385,0.00046285810106898
386,0.000466597836989316
387,0.000512823722052988
388,0.000556196240533797
389,0.00063283582387333
390,0.000630048897859744
391,0.000640337716157697
392,0.00065818480848473
393,0.000735423571757501
394,0.00080800306899947
395,0.000816758810080393
396,0.000947261980645741
397,0.0011047850682656
398,0.00126230815588546
399,0.00141983124350532
400,0.0015600854154468
401,0.00171450116007044
402,0.00188581584384426
403,0.00198589257187954
404,0.0020723118114894
405,0.00215424181735362
406,0.00228917140990368
407,0.00243084500273174
408,0.00253659042064606
409,0.00268557497753643
410,0.00290324180513846
411,0.00300144856877638
412,0.00318488328763533
413,0.00336393268331245
414,0.00340553328120704
415,0.00354036040643796
416,0.00356057367401574
417,0.00364248021158936
418,0.00371093074976592
419,0.00370575099343825
420,0.00386817213412407
421,0.00386357353161371
422,0.003931388173759
423,0.00405339855586278
424,0.00411805286021033
425,0.00405607277204921
426,0.00408334784783286
427,0.00396201283614547
428,0.0038647465898709
429,0.00388788043668858
430,0.00394357863694261
431,0.00412514267184825
432,0.00428278720246536
433,0.00441897562788394
434,0.00467039889806934
435,0.00480958859492361
436,0.00488171352062622
437,0.00498853192312038
438,0.00509535032561453
439,0.00520216872810869
440,0.00523550286960007
441,0.00536975410728318
442,0.00553450607601147
443,0.00560874149038897
444,0.00573194330646324
445,0.0058551451225375
446,0.00597834693861177
447,0.00610558724444861
448,0.00616085714787927
449,0.00643361268449644
450,0.00642072583817832
451,0.00642726471407297
452,0.00644041086277075
453,0.00645355701146853
454,0.00646670316016631
455,0.00646289222870423
456,0.00647128023363408
457,0.00666741835564541
458,0.00668847818590812
459,0.00683098462438743
460,0.0068523977143851
461,0.00682753322409076
462,0.00704611247778192
463,0.00688342669109579
464,0.00683425091385644
465,0.00681018368089747
466,0.00673634521998367
467,0.00675846341638122
468,0.0067105554636979
469,0.00668362798164832
470,0.00685655280705861
471,0.00684056469053707
472,0.00692427470627682
473,0.00700539363964271
474,0.00706389752344339
475,0.00719188157950343
476,0.0070514795921768
477,0.00706782355592283
478,0.00708416751966886
479,0.00710051148341488
480,0.00710761404351826
481,0.00693300707991191
482,0.00683241802850286
483,0.00683218863532954
484,0.00668348220467279
485,0.00654784123461109
486,0.00662706556895638
487,0.00670115379482743
488,0.00675598476550026
489,0.00696911707589654
490,0.00705854998618909
491,0.00708889332609045
492,0.0073179938493093
493,0.00724984274205837
494,0.00737448423823699
495,0.00728378935460652
496,0.00732769514316345
497,0.00725836979219353
498,0.00727677506694203
499,0.00713715452532221
500,0.00720690086151517
501,0.00715460886497292
502,0.00730060667852992
503,0.00735510277557806
504,0.00727306890026582
505,0.00754450937377995
506,0.00750696048707923
507,0.00753952378622035
508,0.00759315571341798
509,0.00759043958985593
510,0.0074883483718231
511,0.00761766592608718
512,0.00753008535554055
513,0.00734032872528703
514,0.00730728370642438
515,0.00717695191616006
516,0.00711562324945503
517,0.0071241201601585
518,0.00709861983118717
519,0.00722689055733735
520,0.00739036625850666
521,0.00747672912320429
522,0.00756309198790191
523,0.00764945485259953
524,0.0075971615497288
525,0.00763494184544241
526,0.00761723707643658
527,0.00759823331956124
528,0.00765810481064886
529,0.00774699909217741
530,0.0077615819438826
531,0.00776878896980509
532,0.00776200642763233
533,0.00781680013020145
534,0.00786080200551823
535,0.00777519336455181
536,0.00785496787572901
537,0.0078375706877726
538,0.00775683841922485
539,0.00772115819953928
540,0.00775522154475996
541,0.00771474649734479
542,0.00765620093280509
543,0.00770883585344672
544,0.00774113651159867
545,0.00769860727352647
546,0.00776780092546838
547,0.00775040020558204
548,0.00773299948569569
549,0.00771559876580935
550,0.00766844369667407
551,0.00772201771480974
552,0.00776638884953984
553,0.00769756212733985
554,0.00767159566694478
555,0.00774207000334261
556,0.00766474073817085
557,0.0076340259432039
558,0.00759067006492005
559,0.00755385178144084
560,0.00763152199080043
561,0.00749031048127376
562,0.00762689565987998
563,0.00752472913653803
564,0.00755110756205157
565,0.00744286730770985
566,0.0074237891845717
567,0.00733923316729691
568,0.00737422953996515
569,0.00730108365971265
570,0.007287233269152
571,0.00732186638131796
572,0.0073109104541703
573,0.00729935354994637
574,0.00735347853332316
575,0.0072709710323599
576,0.00729045850849318
577,0.00730994598462647
578,0.00732943346075976
579,0.00734892093689304
580,0.00736840841302633
581,0.00746327096055668
582,0.00744328451180849
583,0.00746982971728015
584,0.00734690170707639
585,0.00736290174954558
586,0.00716423833350862
587,0.00708103799977774
588,0.00700830421556865
589,0.00693557043135955
590,0.00686283664715046
591,0.00690091766213988
592,0.00696283437115734
593,0.0069637098851088
594,0.0070467652704723
595,0.00701470625181198
596,0.00704773479894224
597,0.00707009042088227
598,0.00704444598059625
599,0.00704288264501564
600,0.00709576370649509
601,0.00712449022902867
602,0.00714533195776875
603,0.00709652426371206
604,0.00715409880875097
605,0.00716299772985616
606,0.00711394088703108
607,0.00709494131730685
608,0.0069892085103806
609,0.00698099676181573
610,0.00693189338059762
611,0.00688186637399048
612,0.00683861754573071
613,0.00678816279572326
614,0.00668841653281128
615,0.00675205353112401
616,0.00670378525892947
617,0.00676288096056845
618,0.00674150274720132
619,0.00674276442430956
620,0.00669778245294404
621,0.0067540623710404
622,0.00661127595552975
623,0.00661530013938206
624,0.00654724149667735
625,0.00647918285397265
626,0.00641112421126794
627,0.00640240868384622
628,0.00636378904502212
629,0.00635221917968896
630,0.00640912287062439
631,0.00633832046538194
632,0.00634120650685779
633,0.00639853947223848
634,0.00639871369405364
635,0.0064038629530132
636,0.00638382588397563
637,0.00639845089797172
638,0.00632939218719006
639,0.00637987190833941
640,0.00632887423666461
641,0.00632033548741217
642,0.00627810866123684
643,0.00623585935491393
644,0.00619361004859102
645,0.00615136074226811
646,0.00616805130074582
647,0.00615916824844191
648,0.00604532480390031
649,0.00615518421164963
650,0.00605373605970741
651,0.00611035806038382
652,0.00604078120816746
653,0.00592490227991434
654,0.00578285377861327
655,0.00581656562452625
656,0.00575018023263294
657,0.00578674457862171
658,0.00583398176292655
659,0.00598201253135992
660,0.00603871438390092
661,0.00603617151580406
662,0.0060644506608548
663,0.00599266167925778
664,0.00596295221199265
665,0.00596815220495875
666,0.00596213929780257
667,0.00597090176503357
668,0.00594093404787225
669,0.00583405399671007
670,0.00585535014290046
671,0.00582757059405759
672,0.00580342480104576
673,0.00580126489651028
674,0.00582079745123746
675,0.00579739132275786
676,0.00577052917490651
677,0.00578691433389739
678,0.00571233784316849
679,0.00571357500557291
680,0.0058189184417845
681,0.00568129460404768
682,0.00555237490141325
683,0.0054233976299546
684,0.00519910318524503
685,0.00501808314172598
686,0.00484260908513412
687,0.00472820960010339
688,0.00465633210443924
689,0.00469976705788147
690,0.00479213603869157
691,0.00493047454360112
692,0.00497099898869368
693,0.00501887378158266
694,0.00510656785355977
695,0.00508859949204078
696,0.00517534555941412
697,0.00516459636262116
698,0.00510128346092936
699,0.00510664892905211
700,0.00518009712271669
701,0.00512962222125864
702,0.00517492435646647
703,0.00515364625441267
704,0.00527559688090307
705,0.00520890992547291
706,0.0052733513160413
707,0.00533041784309281
708,0.00529066254881783
709,0.00531787472439036
710,0.00527318113229107
711,0.00528155726238353
712,0.00526840983012333
713,0.00508989213798849
714,0.00496366530720946
715,0.00474961038556791
716,0.00455686816516932
717,0.00439956861144677
718,0.00434358759793482
719,0.00431355459875503
720,0.0043546678590968
721,0.00429150173873467
722,0.00441805791762724
723,0.0044080049900831
724,0.00435168398593142
725,0.0043423839138847
726,0.0043100035246616
727,0.00435359918676844
728,0.00439410074452782
729,0.00442038517243122
730,0.00450131791874397
731,0.00462427854810433
732,0.00468122443083119
733,0.00478690908001268
734,0.00487167814765422
735,0.00487123193218602
736,0.00492598415358209
737,0.00491950586535801
738,0.00491302757713393
739,0.00490654928890986
740,0.00496136551474528
741,0.00498739495031353
742,0.00498957946040993
743,0.00499176397050633
744,0.00499394848060273
745,0.00500702800092498
746,0.00496742461375841
747,0.0049854930477584
748,0.00490125976443373
749,0.00494577544147075
750,0.00490423193602116
751,0.00488402153781474
752,0.00489703865442816
753,0.00473575826265292
754,0.00478567306355932
755,0.00444364862208671
756,0.00410162418061411
757,0.0037595997391415
758,0.00323071726474405
759,0.00275306162349474
760,0.00238924973361503
761,0.00229625332324129
762,0.00238190712501169
763,0.00254341015831239
764,0.00286085527612167
765,0.00318144229300647
766,0.00353819547457807
767,0.0038785056193777
768,0.00412892871768663
769,0.00426366380511681
770,0.00437626412150887
771,0.00440851427422543
772,0.00447066757358409
773,0.00452226111393068
774,0.00449707423454886
775,0.00448159408528314
776,0.0045191177593072
777,0.00444788156546918
778,0.00446062434380105
779,0.00440573106482215
780,0.00442491714092814
