"wavelength","measurement"
380,0.0327656208979724
381,0.0316859779793468
382,0.0307853773121808
383,0.0303014943115458
384,0.0302875563611763
385,0.0315446160149586
386,0.0325655559490725
387,0.0339601775612109
388,0.0351840644142659
389,0.0358317165597031
390,0.0352368725446067
391,0.0346881118875514
392,0.0345905768269841
393,0.0346690943949538
394,0.0349693429317861
395,0.0370657757038953
396,0.0405609247439123
397,0.044459393858924
398,0.0483578629739357
399,0.0522563320889474
400,0.0543314109933204
401,0.0568393911758487
402,0.0581542879776971
403,0.0582887227460371
404,0.0577149954010528
405,0.057319548722237
406,0.0578291988995959
407,0.0575884505648831
408,0.0576077035061237
409,0.0583765934619964
410,0.060375519687663
411,0.059614863034721
412,0.0610076816596049
413,0.0618031629039999
414,0.061335578185959
415,0.0615229992010803
416,0.0605340903593428
417,0.0598115351614694
418,0.0601084009808859
419,0.0587791367414864
420,0.0595771564691262
421,0.0592652769510039
422,0.059641547154711
423,0.0596970607867712
424,0.0596997771319683
425,0.0581870214940174
426,0.0572563079482884
427,0.0559359416223829
428,0.0538370151251589
429,0.0537007101145454
430,0.053810349374749
431,0.0557729702542532
432,0.0575857954651404
433,0.0594665308492597
434,0.0616058030805209
435,0.0629712721249513
436,0.0631645994364059
437,0.0640285349429305
438,0.0648924704494551
439,0.0657564059559797
440,0.0662601263032307
441,0.0670558221733886
442,0.0687929892073734
443,0.0690463175201778
444,0.0701014631949663
445,0.0711566088697549
446,0.0722117545445434
447,0.0733440930734056
448,0.0733773074683149
449,0.0761696337280852
450,0.0754568417753365
451,0.0748267078527052
452,0.0745424409401285
453,0.0742581740275518
454,0.0739739071149751
455,0.0738635105502982
456,0.0739745267344488
457,0.0746847445361019
458,0.0751940042008824
459,0.0762179902845821
460,0.0762737665504296
461,0.0752971663159103
462,0.0772513996660591
463,0.0750512446622859
464,0.0738898660828527
465,0.0732872058739399
466,0.0722695402348299
467,0.0721506231205061
468,0.0714847658302848
469,0.0707659624809084
470,0.0723723025121975
471,0.0722189825813138
472,0.0725069276767522
473,0.0733259283304135
474,0.073223190073766
475,0.0741498318290554
476,0.07270585749456
477,0.0726355828949432
478,0.0725653082953264
479,0.0724950336957096
480,0.0722368368000543
481,0.0703841760199768
482,0.0689317599069202
483,0.0685742968688267
484,0.0670658182870167
485,0.065725668810772
486,0.0665504931170118
487,0.0670515483403849
488,0.0678046316294316
489,0.0696833730669107
490,0.0700654074064828
491,0.0707636900794063
492,0.072246948193357
493,0.0713312916013282
494,0.0724508811457754
495,0.0712843492491846
496,0.0714198291839519
497,0.0703346760731454
498,0.0707227052298508
499,0.0690922786692369
500,0.0697139736049033
501,0.0689434968291855
502,0.0703539507635922
503,0.0707364624816179
504,0.0700041977101378
505,0.0721922076977882
506,0.0717258022438876
507,0.0720451005725993
508,0.072437074904327
509,0.0721361140776634
510,0.0711069774772466
511,0.0719796568752151
512,0.0712440314974259
513,0.0691614781895359
514,0.0686555985791157
515,0.0675349007161986
516,0.0670320234141895
517,0.0669446366519946
518,0.0670055648695958
519,0.0681045706390704
520,0.0694433301605611
521,0.0701112760443543
522,0.0707792219281475
523,0.0714471678119407
524,0.0710118796106274
525,0.0711907891339881
526,0.0713091473803376
527,0.0710144819483847
528,0.0712348817988795
529,0.0721638593051464
530,0.0722317816723269
531,0.0722590212060434
532,0.0720925199010683
533,0.0727602388026481
534,0.072927396275314
535,0.0720280978829998
536,0.0728380954238305
537,0.0723818642764081
538,0.0717562871225598
539,0.0714459285055981
540,0.0719162125344906
541,0.0714898182629236
542,0.0708747799153475
543,0.0712683350842652
544,0.0718671229266583
545,0.0712704193116107
546,0.0718183791329106
547,0.0717522600430613
548,0.0716861409532119
549,0.0716200218633626
550,0.0713104866902808
551,0.0720116826688
552,0.0726339443951738
553,0.072044639729776
554,0.0717532469630059
555,0.0725714745588695
556,0.0715197136569767
557,0.0715532730158744
558,0.0712056742036512
559,0.0705842216459906
560,0.0715661738233093
561,0.0704079751126191
562,0.0715360227062143
563,0.0707101189316171
564,0.0710223129887821
565,0.0701769679800498
566,0.0698134904289118
567,0.0690010082675071
568,0.0698362366949984
569,0.0689961831876441
570,0.0689529682721083
571,0.0690796523127121
572,0.0693086398184466
573,0.0692114753186288
574,0.069723206782091
575,0.0688337012681425
576,0.0691729470763723
577,0.0695121928846021
578,0.0698514386928319
579,0.0701906845010617
580,0.0705299303092915
581,0.0714823840218222
582,0.0712464016222369
583,0.0717649370477551
584,0.0705889960705096
585,0.0705066606319398
586,0.0687086837605257
587,0.0679546640856487
588,0.0673966197187684
589,0.066838575351888
590,0.0662805309850077
591,0.0667299485951611
592,0.0673882858560231
593,0.0673724379935959
594,0.0684762006872809
595,0.068382481005186
596,0.0687745383770461
597,0.069061429192438
598,0.0689317260498944
599,0.0691223469198194
600,0.0697821362508642
601,0.0701218567216684
602,0.0705638607838091
603,0.0700814833246538
604,0.0710079866527736
605,0.0706084746868013
606,0.0706108412432843
607,0.0703246241854059
608,0.0696010942560536
609,0.0695997727214772
610,0.0691118269764892
611,0.0687988397333591
612,0.0683963848226176
613,0.068132846073631
614,0.0676212979290849
615,0.0685999113530475
616,0.067763311437949
617,0.0684915319860304
618,0.0683897952055297
619,0.0686551967644016
620,0.0684131603406993
621,0.0689481543971411
622,0.0675667829433599
623,0.0675699895036663
624,0.0670951254437041
625,0.066620261383742
626,0.0661453973237798
627,0.0661632386489173
628,0.065892200961009
629,0.0658777170123096
630,0.0665170846455335
631,0.0659064278880769
632,0.0664705434519825
633,0.0669133256457209
634,0.06715596396415
635,0.0675931306091201
636,0.067073456236953
637,0.0679486490034965
638,0.0676719917662294
639,0.0680555684929598
640,0.0678577023012843
641,0.0678153828295664
642,0.0674402323053516
643,0.0670556121037287
644,0.0666709919021057
645,0.0662863717004827
646,0.0669493738183376
647,0.0669180958718374
648,0.0658612339748872
649,0.0669868477280228
650,0.0663423862821784
651,0.0668285085873493
652,0.0661838400061298
653,0.0649979316775653
654,0.0639926851381117
655,0.0647628378088019
656,0.0640562428016895
657,0.0649202493648704
658,0.0657427381000566
659,0.0672682268484266
660,0.0677481973059737
661,0.067928594274535
662,0.0681972667441829
663,0.0680018638684735
664,0.0676781652601631
665,0.0677190455519291
666,0.067930838046147
667,0.0680647053024015
668,0.0681004835779206
669,0.0668641355608455
670,0.0675299317741782
671,0.0673602230668296
672,0.067051957097843
673,0.0671607855607392
674,0.0674658210685927
675,0.067474911475807
676,0.0673742434698585
677,0.0681994469772075
678,0.0673560777034463
679,0.0672937731154993
680,0.0688210688640857
681,0.0677239064136013
682,0.0658762468301237
683,0.0644819818793753
684,0.0620235443730866
685,0.0602012939183765
686,0.0583611037311463
687,0.0573946773433131
688,0.0575787681343322
689,0.0581784413734209
690,0.0596091032766464
691,0.0615914794040657
692,0.0624732031712946
693,0.0635996451277881
694,0.065015507618395
695,0.0651194632277535
696,0.0665396835885424
697,0.0671419535247051
698,0.0664477193244538
699,0.0668677456001322
700,0.0681771868649348
701,0.0678556184943803
702,0.0691076799269497
703,0.0695082410272044
704,0.0707085112587603
705,0.0708481248541941
706,0.0719677449115191
707,0.0727617347239319
708,0.0728756243151438
709,0.0738667926032731
710,0.0731350792957674
711,0.0731809534433255
712,0.0732981708821773
713,0.0703970228411082
714,0.0693351022376787
715,0.0661251768103402
716,0.0637777883980495
717,0.0621700931841757
718,0.0617602663465906
719,0.0623770455160078
720,0.0630024594484402
721,0.0624273250647802
722,0.0641402621038876
723,0.0639463249805982
724,0.0636055392811346
725,0.0639847426438778
726,0.0638456090187022
727,0.064956398548327
728,0.065604371258667
729,0.0671976334996748
730,0.0685335884821682
731,0.0702628392695505
732,0.0720573680542227
733,0.0738453913104589
734,0.0747823287926856
735,0.075281139060104
736,0.0762558185679604
737,0.076576010809717
738,0.0768962030514736
739,0.0772163952932301
740,0.0785174953886238
741,0.0786469811014081
742,0.0791113145636006
743,0.0795756480257931
744,0.0800399814879856
745,0.0800206759917866
746,0.0799662571759701
747,0.0803080282422342
748,0.079495550612761
749,0.079773553811159
750,0.0799094483621366
751,0.0794730284993256
752,0.0807783049173601
753,0.079937949313966
754,0.0786349861753783
755,0.0727217437195066
756,0.066808501263635
757,0.0608952588077633
758,0.0515046618215657
759,0.0439049475087048
760,0.0390358404372451
761,0.0387469643996745
762,0.0403974468024838
763,0.0447252718406523
764,0.0501852377013062
765,0.0557667855139325
766,0.0621788610726294
767,0.0679924925916411
768,0.0716262408438938
769,0.0742860149010345
770,0.076338125793309
771,0.0771840136968194
772,0.0781656910872061
773,0.079332420835183
774,0.079007435778185
775,0.0792272977117567
776,0.0796243983880281
777,0.078781126399865
778,0.0800413553035922
779,0.079018460453347
780,0.0802025173246197
