"wavelength","measurement"
380,0.000567086590813126
381,0.000556843719507043
382,0.000589220316227503
383,0.000568199970169542
384,0.000598674041622739
385,0.000638693595189922
386,0.000680077342225943
387,0.000718536056221272
388,0.000778954486619674
389,0.000823732408772962
390,0.000814672713716197
391,0.000839587131845135
392,0.000873905906311056
393,0.000924510154481014
394,0.000990376162199415
395,0.001072994372361
396,0.00118461087892593
397,0.00136263341408076
398,0.00154065594923559
399,0.00171867848439042
400,0.0018250488521821
401,0.00199032053283413
402,0.0021137666902055
403,0.00221237654823001
404,0.00228384029258751
405,0.00236761114508862
406,0.00240340387848338
407,0.00253807615616987
408,0.00262706945636072
409,0.00274584185211974
410,0.00294178741681821
411,0.00302644020372387
412,0.0031566544363883
413,0.00326953651642568
414,0.00329140282573796
415,0.00339417921357899
416,0.00337732389200356
417,0.003388192584453
418,0.00346771206411692
419,0.00343042619159395
420,0.00354724582220899
421,0.00356279589382841
422,0.00364621686506922
423,0.00367384553619256
424,0.00371993464114006
425,0.00364694429989839
426,0.00364256595388265
427,0.00359767505173737
428,0.00349664943191042
429,0.00349913207832179
430,0.00352679376791337
431,0.00369683055686679
432,0.00384599147447592
433,0.0039990673912816
434,0.00416444418321492
435,0.00428464997145178
436,0.00429153107001759
437,0.00439679176494154
438,0.00450205245986549
439,0.00460731315478945
440,0.004650869519236
441,0.00473138091848215
442,0.00488949782397313
443,0.00497212913608421
444,0.00507976202185516
445,0.00518739490762611
446,0.00529502779339706
447,0.00541591464127668
448,0.00547084347478698
449,0.005655111578183
450,0.00565167278871251
451,0.00564202792437802
452,0.00565620431548852
453,0.00567038070659902
454,0.00568455709770953
455,0.00573738368766679
456,0.0057180020398698
457,0.00586662701197556
458,0.00589517759969942
459,0.00602681528090817
460,0.0060584132608881
461,0.00603581496234797
462,0.00619782082874675
463,0.00603652178399616
464,0.00599795232171456
465,0.0059709556589152
466,0.00589919742763598
467,0.00590962181751685
468,0.00588267668060196
469,0.00587492279889749
470,0.00602743082865935
471,0.00603080671403709
472,0.00607522567186077
473,0.0061572861248622
474,0.00619097963295231
475,0.00627797805287703
476,0.0062070337993295
477,0.00621849847855471
478,0.00622996315777992
479,0.00624142783700513
480,0.00621581352638164
481,0.00604791626692094
482,0.00599473469231512
483,0.0059640882608241
484,0.0058366376043174
485,0.00575825210885577
486,0.00582187400321169
487,0.00589644295578295
488,0.00596212710113715
489,0.00611674858618583
490,0.00618868211205305
491,0.00623723971360514
492,0.00639832167481288
493,0.00633953994971426
494,0.0064582823196831
495,0.00637109335191112
496,0.0063861528585784
497,0.00630767235290163
498,0.00635522599955913
499,0.00621559437917163
500,0.00627043442972587
501,0.00622821345522825
502,0.00636515227154882
503,0.00641753493445948
504,0.00635543961923062
505,0.00656488708827529
506,0.00654233747123772
507,0.00656499368441502
508,0.00660110817780712
509,0.00658077846274165
510,0.00647781533598265
511,0.00657285814970343
512,0.00653424685997314
513,0.00633366824434415
514,0.00629995145396663
515,0.006206064587105
516,0.00617972338697749
517,0.00618351539211113
518,0.00618269256598458
519,0.00628929010964391
520,0.006425696425135
521,0.00648263687393154
522,0.00653957732272808
523,0.00659651777152462
524,0.00655412841597497
525,0.0065932650011238
526,0.00656972256673987
527,0.00658420124820437
528,0.00660453655672606
529,0.00667472733399258
530,0.00666961343753289
531,0.006683568094042
532,0.00666856357530053
533,0.00674743215044194
534,0.00677431926219659
535,0.00668534305677325
536,0.00675463231073365
537,0.00673257815385943
538,0.00667317409850403
539,0.00663557308985555
540,0.00668060849863324
541,0.00663239894985395
542,0.00661897713301876
543,0.00667226255694114
544,0.0066884974676881
545,0.0066283509143548
546,0.00668290470436726
547,0.00666856282106423
548,0.00665422093776121
549,0.00663987905445819
550,0.00658683685788928
551,0.00663719809221544
552,0.00667955112894573
553,0.00662300568576245
554,0.00658123134856831
555,0.00664955308414944
556,0.00656547432776809
557,0.00654873723491367
558,0.00651897386898572
559,0.00646519345503052
560,0.00652330888226713
561,0.00640815651312837
562,0.0065284329749495
563,0.0064241845056598
564,0.00645181253408702
565,0.00635455437944318
566,0.00632576107492728
567,0.00625174496599671
568,0.00631630344045592
569,0.00623942454652947
570,0.00620878611553304
571,0.00622546363223021
572,0.00622468465763118
573,0.0062047240873155
574,0.00626177529880335
575,0.00615682657810357
576,0.00617909413413569
577,0.00620136169016781
578,0.00622362924619993
579,0.00624589680223206
580,0.00626816435826418
581,0.00633873499471876
582,0.00629449313117988
583,0.00634111836600074
584,0.00623220465757135
585,0.00619690251334951
586,0.00606247561569002
587,0.00597722434569497
588,0.00592057866948164
589,0.00586393299326831
590,0.00580728731705499
591,0.00582677185259061
592,0.00587862706087153
593,0.00586761944977535
594,0.00594459784927628
595,0.00591080426791128
596,0.00593961575968627
597,0.00593700027013909
598,0.00593168593042856
599,0.00592892915332771
600,0.00595961170083699
601,0.00599546990321035
602,0.0059878248715008
603,0.00595405375616615
604,0.0059953336640407
605,0.00597755156018067
606,0.00597151404914888
607,0.00592523352914971
608,0.00586656375919732
609,0.00585394430929916
610,0.00581209703478726
611,0.00574664816717702
612,0.00571951568213048
613,0.00569355639340192
614,0.00561713320383361
615,0.00564776692100684
616,0.00558988831399434
617,0.00565204902569908
618,0.00561100880987979
619,0.00561835654978272
620,0.00558384292501301
621,0.0056102138568067
622,0.00549518177415974
623,0.00548412509384639
624,0.00542324393706835
625,0.00536236278029032
626,0.00530148162351228
627,0.00528843099296326
628,0.00525574976473008
629,0.00524356203260072
630,0.00528558830301837
631,0.00521694773341518
632,0.00522853828408319
633,0.00525453925650444
634,0.00526737949268827
635,0.00527369994467492
636,0.00522206453173398
637,0.0052618592818631
638,0.00521372794101717
639,0.00524945698323969
640,0.0052143009438466
641,0.00519313901295512
642,0.00516248762747582
643,0.00512660287084027
644,0.00509071811420472
645,0.00505483335756917
646,0.00504887009228506
647,0.00504977241880139
648,0.00496251268126909
649,0.00503908420542818
650,0.0049520507465919
651,0.00499211151390927
652,0.00493111001281833
653,0.00482398757239533
654,0.00471971410181723
655,0.00475388102894544
656,0.00470452945394965
657,0.00473390742440585
658,0.00477486110863239
659,0.00489679773048449
660,0.00491091537646666
661,0.00490329493335681
662,0.00492942240443657
663,0.00488180182648695
664,0.00483731092348555
665,0.00484556032866632
666,0.00484785370988303
667,0.00484379139265043
668,0.00482693500442989
669,0.00475299441930539
670,0.00475881415035372
671,0.00472296690328302
672,0.00470734601691749
673,0.00468722251642007
674,0.0047133118942309
675,0.00468188432789987
676,0.00467243344187766
677,0.00468823536801897
678,0.00461567596266938
679,0.0045823727543444
680,0.00467786719570016
681,0.00458467613236282
682,0.00443461661160347
683,0.00433652709065271
684,0.00414015277282022
685,0.00398958089668318
686,0.00386000918686113
687,0.00376938284811771
688,0.0037362513953323
689,0.00377308966262923
690,0.00384823045824943
691,0.00392661784021706
692,0.00396707221157136
693,0.00396421687146806
694,0.00405561675178109
695,0.00406121918193987
696,0.00410891585461594
697,0.00410577406819029
698,0.00403908705587308
699,0.00404994130831122
700,0.00409082076301181
701,0.00406676561349621
702,0.00409697919247362
703,0.00409360976823737
704,0.00416291644619658
705,0.00409871124595482
706,0.00416785939670537
707,0.0041957726663327
708,0.00417585392821608
709,0.00417575530571405
710,0.00412946418158446
711,0.00411962472924989
712,0.00410033978227267
713,0.00395315681539485
714,0.00385360446855404
715,0.00367124174659614
716,0.00353279015552677
717,0.00340925599727674
718,0.00337929224291242
719,0.00338837739011547
720,0.00339942683773127
721,0.00333397953586071
722,0.00341165152098154
723,0.00338900594385512
724,0.00337817697386177
725,0.00336006623863805
726,0.00334319360661379
727,0.00337925075486649
728,0.00340010903014286
729,0.0034325931420841
730,0.00350207857316523
731,0.00356529533345843
732,0.00362590355704057
733,0.00369939570548772
734,0.00376438172402602
735,0.00374832084448798
736,0.0037614572407756
737,0.00375784044160465
738,0.00375422364243369
739,0.00375060684326274
740,0.00381150195713067
741,0.00382181989772231
742,0.00382039171288573
743,0.00381896352804915
744,0.00381753534321257
745,0.00381736968159432
746,0.00377965487951668
747,0.00379542058924409
748,0.00375101756318885
749,0.0037363208485393
750,0.00368964303525167
751,0.0036868242842724
752,0.00372422879649196
753,0.00361190517517671
754,0.00356764685733567
755,0.00329978869833454
756,0.00303193053933341
757,0.00276407238033228
758,0.00235531817151519
759,0.00199510473671791
760,0.00178720442207341
761,0.001755011079683
762,0.00183296940194043
763,0.00197796418851598
764,0.0022359712517872
765,0.00245578511972017
766,0.00271513108932064
767,0.0029615985480782
768,0.00310369577460266
769,0.00320624177593334
770,0.00328632754466322
771,0.00332353793434613
772,0.00336245308518044
773,0.00337899828307225
774,0.00335709822239649
775,0.00336086350735999
776,0.003364398460422
777,0.00329310747012496
778,0.00332594762890234
779,0.00328575577949738
780,0.00332332760454729
