"wavelength","measurement"
380,0.0139522619104494
381,0.01338919131326
382,0.0133059533949436
383,0.0130670562741821
384,0.0128608700228248
385,0.0135137523227553
386,0.014093375854199
387,0.0145476660282205
388,0.0149518914512824
389,0.0154308943297819
390,0.0153104507353232
391,0.015157508768428
392,0.0149160412094523
393,0.0148889911639508
394,0.015319820859611
395,0.0159870894129401
396,0.0175184970917478
397,0.0192066408570471
398,0.0208947846223464
399,0.0225829283876458
400,0.023446114894274
401,0.0243924763907048
402,0.0252547142941757
403,0.0253010006084795
404,0.025151362160189
405,0.0250346726204278
406,0.0251781902668589
407,0.0252736047215764
408,0.025301440322914
409,0.0257063856245726
410,0.0265604809512885
411,0.0265272579499051
412,0.0272426610136589
413,0.0275370474494807
414,0.0272082994362653
415,0.0273373092196041
416,0.027136992531682
417,0.0266611463226721
418,0.0271588122043536
419,0.0265276949860318
420,0.0270001936207862
421,0.0268868468768851
422,0.0270166950548665
423,0.0272706064922289
424,0.0271310339224059
425,0.0266607597579636
426,0.0261138194097501
427,0.0254144911630419
428,0.0248253985520509
429,0.0247559856887262
430,0.0248146805046229
431,0.0256163786975461
432,0.0264861972361788
433,0.0273126811405919
434,0.028500571426264
435,0.0290173311602143
436,0.0292110365876393
437,0.0296240343166841
438,0.0300370320457289
439,0.0304500297747738
440,0.0306083128844646
441,0.0310945688871203
442,0.0316868778753891
443,0.0321532020213025
444,0.0326060584296126
445,0.0330589148379228
446,0.0335117712462329
447,0.0340266185528802
448,0.0340650588181591
449,0.0352746035784834
450,0.035056813395158
451,0.0349187669194674
452,0.034759285955326
453,0.0345998049911847
454,0.0344403240270433
455,0.0344539679398985
456,0.0345704289936127
457,0.034930838932475
458,0.0351509525592152
459,0.0356002479843407
460,0.0357103871413043
461,0.035204930933817
462,0.0361158848596869
463,0.035230052106617
464,0.0347467811571845
465,0.0345032234166431
466,0.0340487211407368
467,0.0340827598543554
468,0.0336572236046108
469,0.0334569215673297
470,0.0341721595914239
471,0.0341670525519563
472,0.0341845283480195
473,0.0346406957448597
474,0.0347066436016778
475,0.0351945940534715
476,0.0343115333021599
477,0.034316653246606
478,0.0343217731910522
479,0.0343268931354984
480,0.0342020116270927
481,0.0333049192500349
482,0.0328041224770985
483,0.0327271906201472
484,0.0319371349815849
485,0.031230000873113
486,0.031619258546045
487,0.0318954845539991
488,0.0322653349936599
489,0.0331846775848377
490,0.0333545943195349
491,0.0336070059712427
492,0.0344108574108484
493,0.034055977596904
494,0.0345772276537766
495,0.0341314837470435
496,0.0343175122374274
497,0.0338148419030197
498,0.0339801511066209
499,0.0333548955451465
500,0.0335551934524174
501,0.0334288647809384
502,0.0340964228744566
503,0.0344494843292058
504,0.0341765532421945
505,0.0353327373983838
506,0.0352447309390504
507,0.0353185901172499
508,0.0357537372668045
509,0.0357621007061335
510,0.0353274352633312
511,0.0358720235506162
512,0.0355596750316802
513,0.0348058612793954
514,0.0347294258652684
515,0.0342622323443557
516,0.0342020702868001
517,0.0343749800176585
518,0.0344872084642351
519,0.0353589614919366
520,0.0362221038669116
521,0.0367521553557426
522,0.0372822068445737
523,0.0378122583334047
524,0.0377805024272183
525,0.0380072663942699
526,0.038251533354052
527,0.0382223353087525
528,0.038618294960009
529,0.0391761767177949
530,0.0394185144192991
531,0.0395818623467704
532,0.0396465853476938
533,0.0401928070957296
534,0.0403423790829509
535,0.0401547994198662
536,0.0406759927980816
537,0.0405291045292509
538,0.0402576663880835
539,0.0401845530877772
540,0.0405580652746773
541,0.0404453291134376
542,0.0402725004296112
543,0.0406883419791643
544,0.0408881646051847
545,0.040787125203411
546,0.041227864186062
547,0.041271647644442
548,0.041315431102822
549,0.0413592145612021
550,0.0412984842545832
551,0.0416658572601676
552,0.0421749990216834
553,0.0418260033657511
554,0.0417473813536531
555,0.0422961917954582
556,0.0417949428748993
557,0.0417492409498721
558,0.0415952989293791
559,0.0413051176449034
560,0.041959449652345
561,0.0411373735321379
562,0.0419477300107637
563,0.0413057976206897
564,0.0415059126961105
565,0.0409082629849819
566,0.0407784797737505
567,0.0403693510773593
568,0.0406260753112888
569,0.0401527589798616
570,0.0402148492828695
571,0.0402636894617789
572,0.0402949176743574
573,0.0402217149897469
574,0.040352951557423
575,0.0398719178731241
576,0.040052961577886
577,0.0402340052826479
578,0.0404150489874097
579,0.0405960926921715
580,0.0407771363969334
581,0.0414147370876172
582,0.0411991045977005
583,0.0414999596266968
584,0.0408632690146277
585,0.0408071655200513
586,0.0397920986488179
587,0.0393931532628006
588,0.03911980661522
589,0.0388464599676394
590,0.0385731133200589
591,0.0388448383599426
592,0.0392247787698285
593,0.0392945076720434
594,0.0398998828355878
595,0.0398558103627848
596,0.0401936018295615
597,0.0403218598235052
598,0.040421613344481
599,0.040518243632654
600,0.0408664338691571
601,0.0411517463960319
602,0.0415015420496788
603,0.0412084407426365
604,0.0417772814883026
605,0.0414105098204393
606,0.041589200857609
607,0.0414215808573953
608,0.0409515181965067
609,0.0409989630069469
610,0.040631644015872
611,0.0404961128124054
612,0.0402362713398791
613,0.0400156112728548
614,0.0396772245275852
615,0.0403494289982458
616,0.0397922182556871
617,0.0402965994495999
618,0.0401158727083784
619,0.040335913925262
620,0.040152218363341
621,0.0405350141204962
622,0.039703145101718
623,0.0398498049644779
624,0.0395924538301954
625,0.039335102695913
626,0.0390777515616305
627,0.0390772594728375
628,0.0389515920574737
629,0.0389163099079989
630,0.0394188994335379
631,0.0389512874120663
632,0.0393880519399578
633,0.0396558540751105
634,0.0398046821672419
635,0.040062905637307
636,0.039788516634792
637,0.0401628478309014
638,0.0398660218201266
639,0.0401903009170488
640,0.0399902429948454
641,0.0398758496346651
642,0.0396641568491855
643,0.0394396895842204
644,0.0392152223192552
645,0.0389907550542901
646,0.0390882514322497
647,0.0390051021283429
648,0.0384853321972235
649,0.0390142607675321
650,0.0386831654222362
651,0.0388640955343008
652,0.038463640888897
653,0.0379248316368619
654,0.0372052228278348
655,0.0376566765511123
656,0.0372289093235307
657,0.0376544324481524
658,0.0380649820232052
659,0.0389334513287186
660,0.0390809104965283
661,0.0391752343642642
662,0.0392047400145828
663,0.0391126961705801
664,0.0386999742522726
665,0.0388680989674274
666,0.0388096841408544
667,0.0388835237073444
668,0.0388852059135191
669,0.0382026067599234
670,0.038510555617988
671,0.0383801294302307
672,0.0381990173764286
673,0.0383468710127259
674,0.038502014248604
675,0.0384714028825015
676,0.0386272574726493
677,0.0390365854823245
678,0.0385711816882113
679,0.03858805070504
680,0.0396171136429803
681,0.0390735939154011
682,0.0382226261987215
683,0.0374914321160294
684,0.0362428681820812
685,0.0352938631777081
686,0.0346838904687656
687,0.0342450654555045
688,0.0346445814803655
689,0.0354081359863279
690,0.0366618001803365
691,0.0380991119828265
692,0.0392820196265286
693,0.0402540692624414
694,0.0415573689427906
695,0.0422927666400561
696,0.0436041813407346
697,0.0445256876867416
698,0.0447381058737306
699,0.0454427680127031
700,0.0470580498069786
701,0.0473678014792022
702,0.0488848110221945
703,0.0496845010929964
704,0.0511249325985599
705,0.0516857862846267
706,0.0530748157384968
707,0.0543271363153883
708,0.0550228208857552
709,0.0562677422843594
710,0.0563105900095761
711,0.0569300818906443
712,0.0574676983432691
713,0.0558474448694437
714,0.0553568017334859
715,0.0534387901507385
716,0.0520207643324933
717,0.0511339108149054
718,0.0513330614475136
719,0.0523858381263465
720,0.0534246523149179
721,0.0532767974951013
722,0.0551246183272406
723,0.0553705047657209
724,0.055843108228735
725,0.056568056862159
726,0.0568213320661277
727,0.0581201759157353
728,0.0594293969845316
729,0.0610774927392669
730,0.0626746877880295
731,0.0646351866470157
732,0.0666340967849223
733,0.0686991470101341
734,0.070060548253727
735,0.0708115277733009
736,0.0720737985467902
737,0.0727301541192148
738,0.0733865096916394
739,0.074042865264064
740,0.0755177387022239
741,0.075939119880243
742,0.0766302062231932
743,0.0773212925661435
744,0.0780123789090937
745,0.0784868554224184
746,0.0783987880222669
747,0.0788861663922315
748,0.0782577235559925
749,0.0789201828740959
750,0.0791048582440842
751,0.0789718976256057
752,0.0801377235387611
753,0.0794333968670441
754,0.0779240994222957
755,0.071967617082574
756,0.0660111347428522
757,0.0600546524031304
758,0.0510197884715273
759,0.0433474177310453
760,0.0390552619603266
761,0.0385355327906771
762,0.0402473985532165
763,0.0447215585873586
764,0.0505676538886487
765,0.0562313104334073
766,0.0626015414835532
767,0.0687814651285823
768,0.0720825220211265
769,0.074825950176455
770,0.0769860957225882
771,0.0780329651178741
772,0.0789942740761515
773,0.0801723287222674
774,0.0798493085500774
775,0.0802431229690362
776,0.0802557594438778
777,0.0797353436150186
778,0.0808366128291027
779,0.0799350666391238
780,0.0813643928612763
