"wavelength","measurement"
380,0.00232376678976361
381,0.00233294352089512
382,0.00237482948805305
383,0.00236804649982318
384,0.00247097190713652
385,0.00257336163177297
386,0.0027421526152858
387,0.00291270614548538
388,0.00316584673177956
389,0.00330624738074189
390,0.00332521761002339
391,0.00335185474185937
392,0.00343442264233817
393,0.00352635924705022
394,0.00363582517864709
395,0.00385091565211844
396,0.00433857374859947
397,0.00488850862150181
398,0.00543844349440415
399,0.00598837836730649
400,0.00635162909806773
401,0.00676049436579906
402,0.00718087249376347
403,0.00733861720293249
404,0.00744299850280337
405,0.0075392796896279
406,0.00772203240682938
407,0.00791374975390009
408,0.0080844134391064
409,0.00834560911316866
410,0.008849603411782
411,0.00894533914757853
412,0.00930375801915084
413,0.00956416784003547
414,0.00964620954102095
415,0.00985335507242919
416,0.00978118193150051
417,0.00982156638288743
418,0.00995316616947689
419,0.00986474323542395
420,0.0101283528568683
421,0.0102003770509015
422,0.0103507394219996
423,0.0104917615137374
424,0.0105426055130241
425,0.0105010504891845
426,0.0103961602091384
427,0.0101525869483082
428,0.0098727105811414
429,0.00982332970861375
430,0.00991284403447552
431,0.0103063692443438
432,0.0107573291083063
433,0.0111016593659917
434,0.0116645568028076
435,0.011883487340042
436,0.0120444334547561
437,0.0122891546998318
438,0.0125338759449076
439,0.0127785971899833
440,0.0128728781827273
441,0.0131738258531975
442,0.0135255418646962
443,0.0136384463818641
444,0.0139255384190685
445,0.0142126304562728
446,0.0144997224934772
447,0.0148055937130951
448,0.0149448189922633
449,0.0155166217398743
450,0.0154713260992654
451,0.0154378897981986
452,0.0154373350427946
453,0.0154367802873907
454,0.0154362255319867
455,0.0154991305193499
456,0.015521139951444
457,0.0157543316247017
458,0.0158486576718461
459,0.0161159021103487
460,0.0161887874997622
461,0.0160719218925036
462,0.0165867556862425
463,0.0161384671688728
464,0.0160072982009216
465,0.0159115936968393
466,0.0157237907471896
467,0.0157361469376852
468,0.0155683276234349
469,0.0155170442392404
470,0.0158260348441238
471,0.0158578596581396
472,0.0159568861766621
473,0.0161839319498871
474,0.0162579625658592
475,0.016483839388368
476,0.0161884716241479
477,0.0162192750195332
478,0.0162500784149185
479,0.0162808818103038
480,0.0162083137725287
481,0.0158435589167062
482,0.015613690361582
483,0.0155287921740467
484,0.0151625289974603
485,0.0148936818855272
486,0.0150443523999258
487,0.0151756244202156
488,0.0153519601902954
489,0.0157727673861792
490,0.0159553630284318
491,0.0160959274139361
492,0.0165105263431796
493,0.0163173082775936
494,0.0166135594384775
495,0.0164004086047187
496,0.0165194556724733
497,0.0162631347176784
498,0.0163781916303471
499,0.0160054741956462
500,0.0161627840031863
501,0.0160081515752699
502,0.0163250562565222
503,0.01644590152092
504,0.0163001144733145
505,0.0168757812878701
506,0.0168019936833584
507,0.0168871992054237
508,0.0169947603485165
509,0.0170027150972319
510,0.0167280420414749
511,0.016953405083352
512,0.0168360681702516
513,0.0163743001994034
514,0.0163007721325455
515,0.0160009905007705
516,0.0159426024360084
517,0.0158967108478386
518,0.0158730868090572
519,0.0161709838743765
520,0.0164627446907613
521,0.0166656642754972
522,0.0168685838602331
523,0.017071503444969
524,0.0169635929353917
525,0.0170395738046981
526,0.0170935998477446
527,0.0169856295616908
528,0.0170755937130712
529,0.0172970312876129
530,0.0173087010359666
531,0.0173510120637624
532,0.0172909082432196
533,0.0174688519857923
534,0.0175489542214906
535,0.0173116482702174
536,0.0175102110414679
537,0.0174388306960387
538,0.0172698314900872
539,0.0171639288439558
540,0.0172546533205222
541,0.0171864266712431
542,0.0170345668696387
543,0.0170915901193187
544,0.0172220333467876
545,0.017058079751625
546,0.0171870758797825
547,0.0171690616168204
548,0.0171510473538583
549,0.0171330330908963
550,0.0170070182205025
551,0.0171275041879808
552,0.0172435761499532
553,0.0170786250312891
554,0.0170020468556095
555,0.0171667246757318
556,0.0169574855802825
557,0.0168970570332204
558,0.0168063934049292
559,0.0166430430376847
560,0.0168741192718304
561,0.0165583741422667
562,0.0168203134309518
563,0.016569514232411
564,0.0166455765317545
565,0.0164014745013399
566,0.0162912839622327
567,0.0160777254646461
568,0.0161831973936711
569,0.0160148028591723
570,0.0159733430978144
571,0.0160014847901495
572,0.0159544006199933
573,0.0159394558558031
574,0.0160497874391362
575,0.0157880591013955
576,0.0158328559834314
577,0.0158776528654672
578,0.0159224497475031
579,0.0159672466295389
580,0.0160120435115748
581,0.0162072852679092
582,0.0160952495386023
583,0.0162133974794679
584,0.0159491825306194
585,0.0159103765432637
586,0.0154666036688498
587,0.0152516664259042
588,0.0150985338957942
589,0.0149454013656842
590,0.0147922688355742
591,0.0148454415465878
592,0.0149684722582219
593,0.014947437599155
594,0.0151507744681494
595,0.0150686138899594
596,0.0151241502764713
597,0.0151461317957883
598,0.0150966874278943
599,0.0150925444336471
600,0.0151453469183343
601,0.0152323545393086
602,0.015269981760742
603,0.0151702635624579
604,0.0152655394048955
605,0.0152186744031621
606,0.01517144146304
607,0.0150892001688562
608,0.0149034858436171
609,0.0148379690251702
610,0.0147405805346592
611,0.014602062462626
612,0.0144793386476524
613,0.0143503563055693
614,0.0141923936186866
615,0.0143160573718207
616,0.014134767758402
617,0.0142566644870755
618,0.0141951742650229
619,0.0142254502390935
620,0.0141316909651926
621,0.014229037673895
622,0.013898868369771
623,0.0138789401384977
624,0.0137241325558145
625,0.0135693249731314
626,0.0134145173904483
627,0.0133803023970045
628,0.0132903474853405
629,0.0132383735976846
630,0.0133645366463928
631,0.0131595749761399
632,0.0132324822942257
633,0.013297288072133
634,0.0132792355615181
635,0.013334730806418
636,0.0132302249062342
637,0.013302082995608
638,0.0131878627630744
639,0.0132318743115497
640,0.0131460575191933
641,0.01306552135005
642,0.0129911456816602
643,0.0128870102731803
644,0.0127828748647005
645,0.0126787394562206
646,0.0126514647592327
647,0.0126699815524225
648,0.0123968525477645
649,0.0126076095199619
650,0.0124336071285764
651,0.0124997578696287
652,0.0123404141260736
653,0.0120838929716737
654,0.0118154650989715
655,0.0119076724079725
656,0.0117355116231362
657,0.0117445133958435
658,0.0118931385146643
659,0.0121824139849465
660,0.0122492549801742
661,0.0122439125427834
662,0.0122337399644162
663,0.0121585982829266
664,0.0120512547090093
665,0.0120978438222421
666,0.0120534400688412
667,0.0120183437960466
668,0.0119718054850795
669,0.0117767290928582
670,0.011783113561359
671,0.011703315593979
672,0.0116305619101789
673,0.0116341800709062
674,0.0116645672335861
675,0.0115814195583861
676,0.0115328455356629
677,0.0116051976416445
678,0.0113963052501766
679,0.0113735467384264
680,0.0116006973672053
681,0.0113198796162896
682,0.0110373249148368
683,0.0107805528274537
684,0.0103497222459294
685,0.00998279909219554
686,0.00967455921045725
687,0.00940106272479422
688,0.00929728586561008
689,0.00940011825104676
690,0.00958563953853101
691,0.00986438565551624
692,0.0099674460722405
693,0.0100457035077736
694,0.010244076925501
695,0.0102560213744195
696,0.0104227333011531
697,0.0104787498268997
698,0.0103418179991167
699,0.0103600857794793
700,0.0105456320503216
701,0.0104545961491509
702,0.0105536533340905
703,0.0106268621465892
704,0.0107600211552409
705,0.0107523276277335
706,0.0109081399626088
707,0.0109979119425674
708,0.0109435390672418
709,0.0110703652095718
710,0.0110070055766681
711,0.0109735782436313
712,0.0109738564789581
713,0.0106201123777589
714,0.0104226115044711
715,0.0099734434363492
716,0.00951893772528086
717,0.00928063156373474
718,0.00916695089494969
719,0.00917740282982023
720,0.00927563937088231
721,0.00916174425036595
722,0.00942701599830468
723,0.00939687399206146
724,0.00934227283445364
725,0.00939085382458877
726,0.00931880046171438
727,0.00947980904573395
728,0.00955378901316878
729,0.00965533836248488
730,0.00987163616759708
731,0.0101107741088672
732,0.0103356724048212
733,0.0105427316904231
734,0.0107009917319595
735,0.0107551135764184
736,0.010827254946486
737,0.0108507329424536
738,0.0108742109384212
739,0.0108976889343888
740,0.0110140115110183
741,0.0110402905941467
742,0.0110581050227752
743,0.0110759194514037
744,0.0110937338800322
745,0.0110770146362803
746,0.0110232350104357
747,0.0110750614705205
748,0.0108975565181994
749,0.0109078716844627
750,0.0108946441483046
751,0.0107936916229651
752,0.010896408587456
753,0.010669627307626
754,0.0105456902884337
755,0.0097845006577392
756,0.0090233110270447
757,0.0082621213963502
758,0.00712185817675503
759,0.00599283323378019
760,0.00521244673321308
761,0.00505041849863837
762,0.00519857657669373
763,0.00561213041435887
764,0.00636754217750076
765,0.00702282406540631
766,0.0078315732227955
767,0.0085749324256472
768,0.00906495005084598
769,0.00933256559437445
770,0.00954513695338204
771,0.00968880039567453
772,0.00972751611974615
773,0.00985420259086633
774,0.0097952823901769
775,0.00975148563944244
776,0.00976548743877089
777,0.0096483814645416
778,0.00971763844328323
779,0.00959761349441068
780,0.00968248472050216
