"wavelength","measurement"
380,0.00120431142769436
381,0.00119057143709292
382,0.00124870011797291
383,0.00126587173854854
384,0.00127011028856166
385,0.00139616996943098
386,0.00143509807003361
387,0.00157620538641084
388,0.00164313063895216
389,0.00180161767445321
390,0.00180882518357902
391,0.00184922855175506
392,0.00193586917365783
393,0.00200538172455111
394,0.00209327099114163
395,0.00223585826472557
396,0.00255416121829492
397,0.00289063293733692
398,0.00322710465637892
399,0.00356357637542091
400,0.0039237616169383
401,0.00419863216018577
402,0.00450583023563205
403,0.00472384246333517
404,0.00486124784090301
405,0.00503477497740222
406,0.00525026274045768
407,0.00551925231282515
408,0.00575660352689625
409,0.00606239331091583
410,0.00663131905098427
411,0.00679986891486294
412,0.00725303330042197
413,0.00758175426465305
414,0.00781491254236688
415,0.00816726154071561
416,0.00834983493522124
417,0.00856848196540841
418,0.0089500942961856
419,0.00898464127351454
420,0.00949448850810635
421,0.00969650696316022
422,0.0100188126259458
423,0.010263689113995
424,0.0104446631316831
425,0.0104264189639078
426,0.0104723595131998
427,0.0103212414079641
428,0.0101223782577892
429,0.0101877682077337
430,0.0104036726551194
431,0.0108477696789705
432,0.0112870894423471
433,0.0117280592484448
434,0.0122625571170517
435,0.0126596735958552
436,0.0128240968512259
437,0.0131254128667703
438,0.0134267288823146
439,0.013728044897859
440,0.0138793702661607
441,0.01415315332266
442,0.014584449434929
443,0.0147332639689535
444,0.0149991369815633
445,0.0152650099941731
446,0.0155308830067829
447,0.0158169095628171
448,0.0159107677908115
449,0.0164995927622667
450,0.0164492171680537
451,0.0164048414496566
452,0.0164249510112698
453,0.016445060572883
454,0.0164651701344961
455,0.0164285868580853
456,0.0164920898767301
457,0.0167812442457695
458,0.0169392010910755
459,0.017281808393003
460,0.0173578446674321
461,0.0172401010164687
462,0.0178062073074461
463,0.0173471633021009
464,0.0172209691852654
465,0.0171281900337758
466,0.0169739060193725
467,0.0169132072219167
468,0.0168846224291221
469,0.0167815585523286
470,0.0172128884536637
471,0.0172330731670936
472,0.0173617998971187
473,0.0175890996680239
474,0.0177339036720958
475,0.0180084823601487
476,0.01761004846828
477,0.0176523474483297
478,0.0176946464283794
479,0.0177369454084292
480,0.0176930703499765
481,0.0172440846082738
482,0.0169915839839893
483,0.016999876669467
484,0.0165833219522001
485,0.0162277390117474
486,0.0164025393057654
487,0.0166090209150179
488,0.0167395144830911
489,0.0172466327182707
490,0.0174215427410619
491,0.017559413875302
492,0.0180573371814637
493,0.0178758577500465
494,0.0181810141571837
495,0.0179768057934763
496,0.0181141231771242
497,0.0178270597444838
498,0.0180016572168088
499,0.0175850989066505
500,0.0177148061731849
501,0.017606869904993
502,0.0179472365271367
503,0.0180704706835095
504,0.0179175541837768
505,0.0185349992374558
506,0.0184689903119004
507,0.0185826556171421
508,0.0186931618195441
509,0.018643382457622
510,0.0183843915689825
511,0.0186557150531655
512,0.0185012857202146
513,0.0179566838507272
514,0.0178769678748671
515,0.0175798400809232
516,0.0174767309073636
517,0.0174282840149456
518,0.0173635846099318
519,0.0177076698396152
520,0.0180173812851579
521,0.0182287141781114
522,0.0184400470710648
523,0.0186513799640183
524,0.0185215271203606
525,0.0185568333266714
526,0.0186259941280419
527,0.0184920985615258
528,0.0185961858597796
529,0.018825878358928
530,0.0188410953162639
531,0.0188588123617833
532,0.0188072218427977
533,0.0189757063614179
534,0.0190529708299305
535,0.0188345833265622
536,0.0190078864664434
537,0.0189082346464628
538,0.0187770099317187
539,0.0186701569839216
540,0.0187204564159024
541,0.0186509948123851
542,0.0185170374679647
543,0.0185713455700287
544,0.0187647977392698
545,0.0185610946019727
546,0.0187377579930545
547,0.0186896172696093
548,0.0186414765461641
549,0.0185933358227189
550,0.0184732636221878
551,0.0186373014332806
552,0.018704220464863
553,0.0185630170344805
554,0.0184789382635116
555,0.0186413563801343
556,0.0184479264506425
557,0.0183781645836505
558,0.0182588616220986
559,0.0181255136360107
560,0.0183175048822973
561,0.0180340130788492
562,0.0183668965471777
563,0.0180886655991748
564,0.0181377428346317
565,0.0178931941186416
566,0.0178655528256009
567,0.0176526862527294
568,0.0177441007239362
569,0.0175671140610139
570,0.017534115049969
571,0.0175614159223973
572,0.0175831278997785
573,0.0175306812539603
574,0.0176512647091788
575,0.0174472069826557
576,0.017498094553892
577,0.0175489821251284
578,0.0175998696963647
579,0.017650757267601
580,0.0177016448388374
581,0.0179454176691724
582,0.0178368503219813
583,0.0179609891046834
584,0.0176973872536838
585,0.0176792514223723
586,0.0172165601000534
587,0.0169660106306351
588,0.0168091768872023
589,0.0166523431437695
590,0.0164955094003367
591,0.0165678874014631
592,0.0166773730299098
593,0.0166898616853595
594,0.0169025264001959
595,0.0168185703211631
596,0.0169353551827671
597,0.0169540872834856
598,0.0169078923341901
599,0.0168648614192495
600,0.0169774278063807
601,0.0170779848898128
602,0.0171398075799209
603,0.017027520875737
604,0.0171759085089595
605,0.0170540266061588
606,0.0170800150662612
607,0.0169956060332549
608,0.0168139863257915
609,0.0167713074022113
610,0.0166611007873907
611,0.0165086653941904
612,0.0164013741279244
613,0.0163190572906735
614,0.0160967193296699
615,0.0162555792785937
616,0.0160711409697946
617,0.016242296826164
618,0.0161678779032254
619,0.016197424728783
620,0.016119113331036
621,0.0162541491351739
622,0.0159149180258815
623,0.0159068926514151
624,0.015750996090172
625,0.0155950995289289
626,0.0154392029676858
627,0.0153915260971912
628,0.0153034717888584
629,0.0152742416417566
630,0.0153864194906074
631,0.0151601833250022
632,0.0152783197472458
633,0.0153046142217096
634,0.0154082616340756
635,0.0154367805736296
636,0.0152654163530374
637,0.0153884243200801
638,0.0152820517400107
639,0.0153457349708908
640,0.0152258255588725
641,0.0151797630059114
642,0.0151113748949055
643,0.0150056465268364
644,0.0148999181587673
645,0.0147941897906982
646,0.0148199918503323
647,0.014801622049378
648,0.0145398484927333
649,0.0147588647688076
650,0.0145526572232804
651,0.0146570521322849
652,0.0144588204680364
653,0.014186648896229
654,0.0138677225623223
655,0.013966161573029
656,0.0138313866191567
657,0.0138825388689669
658,0.0140681031331761
659,0.0143563801298188
660,0.0144659715621872
661,0.0144356891801625
662,0.0145199818424798
663,0.0144064996490903
664,0.0142801806967535
665,0.0143074791241018
666,0.0143329159742165
667,0.0142850979210599
668,0.0142588356318057
669,0.0139884795822962
670,0.0140298062489065
671,0.0139473413058844
672,0.0138710053789393
673,0.0138779123716982
674,0.0138994840631669
675,0.013812377527572
676,0.0138049292326902
677,0.013857408209831
678,0.0137056696756795
679,0.0136043470538797
680,0.0138881654409664
681,0.0136456225128953
682,0.0132067541356282
683,0.0129097540708251
684,0.0123395094177609
685,0.0119403679720741
686,0.0115283262452687
687,0.0112207196228624
688,0.0111016853857845
689,0.01119658253335
690,0.0113817709962878
691,0.0116549160264975
692,0.0117692530643687
693,0.0118923104355656
694,0.0120716997163328
695,0.0120387172307475
696,0.0122000557927636
697,0.0122473006400025
698,0.0120568278529405
699,0.0120143551535714
700,0.0122044908997387
701,0.0120676040380208
702,0.0121671188567117
703,0.0121605877250724
704,0.0123519866500869
705,0.0122052819439115
706,0.0123726117598031
707,0.0124322981524684
708,0.0124195283454522
709,0.012448258831979
710,0.0123394971137388
711,0.01229554858369
712,0.0122637618015261
713,0.0118181055742556
714,0.0115925248194942
715,0.0110115275760756
716,0.0105472911262932
717,0.010204591918183
718,0.0100647713846886
719,0.0100429656141731
720,0.0101290715763702
721,0.00996621621335923
722,0.0102095565753934
723,0.0101409470584102
724,0.0100402683130145
725,0.0100559160953124
726,0.00998465100110075
727,0.0100711747654003
728,0.0101225774045542
729,0.0102395680611186
730,0.0104031525890476
731,0.0106046988736474
732,0.0108072891664469
733,0.0110532670276346
734,0.0111686540124606
735,0.0111695677221869
736,0.0112600144423107
737,0.0112560533900323
738,0.0112520923377539
739,0.0112481312854754
740,0.0113402759105117
741,0.0113608663214575
742,0.0113690492748332
743,0.0113772322282089
744,0.0113854151815846
745,0.0114422808174961
746,0.0112995888657688
747,0.0113603796922567
748,0.0111620469301588
749,0.0111606300311589
750,0.0111195196806928
751,0.0110289898187824
752,0.0111066135641771
753,0.0108679031519183
754,0.0107851925837854
755,0.0100102914576302
756,0.00923539033147496
757,0.00846048920531975
758,0.00726048835890265
759,0.00611302230849086
760,0.00534015939438223
761,0.00515100157999945
762,0.00528134478627768
763,0.00575782326476078
764,0.0064647882548564
765,0.00714387585637561
766,0.00794813188238738
767,0.00866380971736712
768,0.00919304370853543
769,0.00952102749381601
770,0.00973868318569806
771,0.0097736706550257
772,0.00995071001232054
773,0.0100086506975122
774,0.00994825030344503
775,0.00991606299840407
776,0.00991177258548743
777,0.00976994125087131
778,0.00984121269397319
779,0.00966106912175839
780,0.00983336810108447
