"wavelength","measurement"
380,0.00130817896181671
381,0.00128025451455693
382,0.00130957197581508
383,0.00131080305232269
384,0.00135036589178325
385,0.00146161816478718
386,0.0015467300504836
387,0.00169794472282483
388,0.00178282936306476
389,0.00188449098652552
390,0.00193155861436209
391,0.00195701334320401
392,0.00197587380829008
393,0.00213685617894951
394,0.00224882267391529
395,0.00243718208118026
396,0.00269613716298867
397,0.00307188363827152
398,0.00344763011355437
399,0.00382337658883723
400,0.00414447684249552
401,0.00445666424319893
402,0.0048168372572317
403,0.00507322941026783
404,0.00520245869009528
405,0.00533764531469463
406,0.0055665555413678
407,0.00583004365536015
408,0.00609345700209191
409,0.00642204526754505
410,0.00696751125635733
411,0.00714808659661259
412,0.00762082632062878
413,0.00803605977059166
414,0.00824187388425034
415,0.00859832625891549
416,0.00883782578867941
417,0.00903014464553226
418,0.00947392071890439
419,0.00948952735197668
420,0.009960950868532
421,0.0102289474106542
422,0.0104475377189621
423,0.010850160999047
424,0.0109561400120195
425,0.0109326188234745
426,0.0110249971555404
427,0.010852587037871
428,0.0106198852657144
429,0.0107123872783856
430,0.0108842756794999
431,0.0113929187690155
432,0.0118572967173253
433,0.0122902590275911
434,0.0129415027695973
435,0.0133183771660331
436,0.0135661861081068
437,0.0138579261191561
438,0.0141496661302054
439,0.0144414061412547
440,0.0145711154311169
441,0.0149263616746364
442,0.0152639151258284
443,0.0155127740909611
444,0.0157893938330058
445,0.0160660135750505
446,0.0163426333170951
447,0.016680014481687
448,0.0167683909580228
449,0.0174062987915423
450,0.0173731556261501
451,0.0172311922473103
452,0.0172727821299822
453,0.017314372012654
454,0.0173559618953259
455,0.0173912380660612
456,0.0173551564769844
457,0.0176793800429734
458,0.0178438444840171
459,0.0182171066783831
460,0.0183002964909263
461,0.018217238850757
462,0.0187307588633914
463,0.0183094116172048
464,0.0181478800731108
465,0.0181002128802973
466,0.0179087926533398
467,0.0179557363210467
468,0.0178358962927331
469,0.017716532771703
470,0.0181771337160465
471,0.0181783649474087
472,0.0183468182283989
473,0.018555762287639
474,0.0187323773115213
475,0.0189984164223949
476,0.018593128972431
477,0.0186301837762386
478,0.0186672385800462
479,0.0187042933838537
480,0.0187088640036298
481,0.0182879800397524
482,0.0179967141143443
483,0.017938441890527
484,0.0175431222551792
485,0.0171766480693702
486,0.0173755365399393
487,0.0175502925251532
488,0.0177537753921224
489,0.0182170790274667
490,0.0184620573758317
491,0.0186243166666417
492,0.0191315721979158
493,0.018940217511863
494,0.0192903534047482
495,0.0190361863249067
496,0.0191790741404378
497,0.0188696764290208
498,0.0190422068857413
499,0.0186180593000693
500,0.0187849772267537
501,0.0187055500085297
502,0.0190383645789576
503,0.0191510206078039
504,0.0190079049151109
505,0.019691249228992
506,0.0195871603581224
507,0.0197065121459114
508,0.0198388117872021
509,0.0198387831260725
510,0.0194899383684253
511,0.0198384245961464
512,0.019639348601994
513,0.019090967422196
514,0.0189951488692649
515,0.0186541188900788
516,0.0186073972015247
517,0.0185618417223541
518,0.0184464161340777
519,0.0188589800141984
520,0.0191989434593075
521,0.0194210924201431
522,0.0196432413809786
523,0.0198653903418142
524,0.0197814957508272
525,0.0197827487509092
526,0.0198036675101222
527,0.0197066891926428
528,0.0198569121040165
529,0.020060307084723
530,0.0200972802571495
531,0.0201140513802737
532,0.0200435424133832
533,0.0202498638278132
534,0.0202921291677018
535,0.0200690120523572
536,0.0203231039716249
537,0.0201555055825544
538,0.0200437620519549
539,0.0199255054841708
540,0.0200105631849064
541,0.0198603565947061
542,0.0197571811415644
543,0.0198172041914329
544,0.019993472103827
545,0.0198214431341421
546,0.0199767980905264
547,0.019942965903066
548,0.0199091337156057
549,0.0198753015281453
550,0.0197362670870058
551,0.0198857876168938
552,0.0200098736436037
553,0.0198018250306238
554,0.0197612981032694
555,0.0199450870591921
556,0.0197071418466092
557,0.0196371117493084
558,0.0195253597446546
559,0.0193656573096103
560,0.0195978502576949
561,0.0192447937447631
562,0.0196146645304538
563,0.0193107973338317
564,0.0193979216700751
565,0.0191323524564129
566,0.01906558676208
567,0.018816170798881
568,0.0189613189172621
569,0.0187910150208915
570,0.0187174639664208
571,0.0187598470459288
572,0.0187831684051631
573,0.0187520247199544
574,0.0188529693372957
575,0.0186144752183883
576,0.0186764966465583
577,0.0187385180747283
578,0.0188005395028983
579,0.0188625609310683
580,0.0189245823592383
581,0.0191609279470625
582,0.0190620475458819
583,0.0192048770544309
584,0.0188861664653675
585,0.0188711136403813
586,0.0183942334821337
587,0.0181481859026335
588,0.0179680829062047
589,0.0177879799097759
590,0.0176078769133472
591,0.0176877806905672
592,0.0178118230136518
593,0.017823111749026
594,0.0180445525216406
595,0.0180095128923989
596,0.0180475497145988
597,0.0180718872813632
598,0.0180288366481777
599,0.0180246936539306
600,0.0181552632214639
601,0.0182413030236912
602,0.0182760267888837
603,0.0181924418225629
604,0.0183619900901087
605,0.018205336780742
606,0.0182534843488071
607,0.0181637763986793
608,0.0179180879660194
609,0.0178888752987604
610,0.0177721041576877
611,0.0176398035547315
612,0.0174970412934614
613,0.0173884751097424
614,0.017170954346122
615,0.0173731515544132
616,0.0171580408360942
617,0.0173582662890359
618,0.0172606635088731
619,0.017308390875282
620,0.0172079094213964
621,0.0173599915353653
622,0.0169264068567824
623,0.0169357803234099
624,0.016786347565201
625,0.0166369148069921
626,0.0164874820487832
627,0.0164123285413054
628,0.0163411924491459
629,0.0162580337773393
630,0.01642923324231
631,0.0161736822409929
632,0.0162761277375784
633,0.0163502788784091
634,0.0163487537340889
635,0.016408978590965
636,0.0163054361302578
637,0.0164362786119536
638,0.0162663321642372
639,0.0163538254880013
640,0.0162377172826454
641,0.0161915058344924
642,0.0161031810952256
643,0.0159939821554054
644,0.0158847832155853
645,0.0157755842757651
646,0.0158628712910902
647,0.0158005379951087
648,0.0155117312026036
649,0.0157510672930943
650,0.0155506053502641
651,0.0156473146398072
652,0.0154057938881652
653,0.0151287941707988
654,0.0148221057078805
655,0.0149509499926159
656,0.0147239695015589
657,0.0148636487014612
658,0.01498157513514
659,0.015341637131333
660,0.015460740338898
661,0.0154307995399605
662,0.0154651159690623
663,0.0153708806688538
664,0.0152192714302553
665,0.0152711944947724
666,0.0152505964549852
667,0.0152226559099398
668,0.0151998532442608
669,0.0149090460022244
670,0.014935202876348
671,0.014865674297935
672,0.0148116200985224
673,0.0147950673400251
674,0.0148233458840322
675,0.0147723573806355
676,0.0147080617773617
677,0.0147989995067017
678,0.0145417336949658
679,0.0144842738449752
680,0.0147616766010016
681,0.0144726915108861
682,0.0140997661865246
683,0.0137651919821326
684,0.0131802242221572
685,0.0127196328549423
686,0.0123059094883231
687,0.0119491586940675
688,0.011816828992212
689,0.011894095197355
690,0.012122883675881
691,0.0124309008358747
692,0.0125210861977747
693,0.0126296481841185
694,0.0128644396140628
695,0.012866951114651
696,0.0130139388077355
697,0.0130443190848629
698,0.0128074785833524
699,0.0128297643442597
700,0.0130039573567238
701,0.0128429845080899
702,0.0130081850975534
703,0.0129699206781523
704,0.013123960047825
705,0.013061976705809
706,0.0132251681112213
707,0.0132678629349351
708,0.0132089881696913
709,0.0133504848676883
710,0.0131216785906589
711,0.0130833661815485
712,0.0131118600557297
713,0.0126261948145566
714,0.0123605743910002
715,0.0117564414623312
716,0.0112582087368345
717,0.0108638297593433
718,0.0107144098652453
719,0.010673799507854
720,0.0107912172530419
721,0.0106756142170897
722,0.010901709012492
723,0.0108402464647173
724,0.0107324995769794
725,0.0107527718687652
726,0.0106612132357592
727,0.0107313059777117
728,0.0108376159084933
729,0.010934785987461
730,0.0110841203696765
731,0.0113416906598428
732,0.0115280294803796
733,0.0118032608674943
734,0.0119137430695302
735,0.011934713837452
736,0.0120213505923727
737,0.012016255309074
738,0.0120111600257754
739,0.0120060647424767
740,0.012164988861055
741,0.012140148721407
742,0.0121580375976315
743,0.0121759264738559
744,0.0121938153500803
745,0.0121560580915749
746,0.0121353507154011
747,0.0121211815713361
748,0.0118939631420205
749,0.0119411298682653
750,0.0118287425136093
751,0.0117610286502138
752,0.0119036407675782
753,0.0116762989411437
754,0.0115251578945474
755,0.0106881353587439
756,0.00985111282294047
757,0.00901409028713702
758,0.0077527884143836
759,0.00651015644003167
760,0.00572138363674745
761,0.00550102790040297
762,0.00567319313850802
763,0.00617268249303656
764,0.00688449752504298
765,0.00763007120899096
766,0.00849592605172273
767,0.00925632499549989
768,0.00983351199698272
769,0.0101161703341578
770,0.0103677215785361
771,0.0104683280347636
772,0.0105716993062583
773,0.0106617050089407
774,0.0106153927275842
775,0.0105786816362733
776,0.0106022696583944
777,0.0104005123883313
778,0.0105082324985426
779,0.0103757529047993
780,0.0104584563920683
