"wavelength","measurement"
380,0.0130238974688296
381,0.0133146917162209
382,0.0129857712235546
383,0.0136425039353286
384,0.013687119088003
385,0.0151720512291006
386,0.0163647734335912
387,0.0173695360486032
388,0.0194652954333642
389,0.0204615767651494
390,0.0209513208945196
391,0.0224984964649862
392,0.02363449758674
393,0.0249929063837058
394,0.0271126639866884
395,0.0299736342108776
396,0.0351446574392471
397,0.0409681173166032
398,0.0467915771939592
399,0.0526150370713153
400,0.0574132697695357
401,0.0626812089856992
402,0.0678625962110973
403,0.0707449440254655
404,0.0737768500570576
405,0.0762117174168488
406,0.079803179405795
407,0.0831587959493008
408,0.0860165203063713
409,0.090405545998327
410,0.0969042941298568
411,0.0985930049953692
412,0.102803891838345
413,0.10682994829922
414,0.108103239180858
415,0.110216906772924
416,0.111088379142069
417,0.111029545433495
418,0.114135150891391
419,0.11221402610965
420,0.116251473842578
421,0.116289941522804
422,0.118060659611132
423,0.11882347607261
424,0.119665542263062
425,0.117178849297773
426,0.116481026968935
427,0.113479317433659
428,0.11066076795293
429,0.110771861303107
430,0.111567887668828
431,0.116238070713534
432,0.120442999623389
433,0.124972411545134
434,0.130359452442814
435,0.133644911077055
436,0.134563520314492
437,0.137151546965658
438,0.139739573616824
439,0.14232760026799
440,0.143563865803614
441,0.146458483502377
442,0.149987503054948
443,0.152066619822056
444,0.15459099202456
445,0.157115364227063
446,0.159639736429566
447,0.162237095066856
448,0.163260284724865
449,0.168906338275184
450,0.16746654889172
451,0.166068626560754
452,0.165652174522844
453,0.165235722484934
454,0.164819270447024
455,0.165156154074646
456,0.165702516275815
457,0.167127930471783
458,0.16896568711207
459,0.171689725720869
460,0.172389225761202
461,0.171100716292893
462,0.176334295902218
463,0.171079522250337
464,0.170412487556594
465,0.169460434929567
466,0.168189329307257
467,0.168577913723198
468,0.168312309967709
469,0.167411609800286
470,0.172211098640617
471,0.173185595459732
472,0.175319218485267
473,0.178627838988619
474,0.179740231948132
475,0.183482639335065
476,0.180555435655403
477,0.1814549430361
478,0.182354450416798
479,0.183253957797495
480,0.183238419608862
481,0.179233747401041
482,0.176575556601781
483,0.176101268593907
484,0.172556063641636
485,0.169568583610528
486,0.17203464528231
487,0.173660938465125
488,0.17572320853869
489,0.180469537881711
490,0.182288236923008
491,0.183764840253887
492,0.188329165179568
493,0.185770776738106
494,0.188649089522894
495,0.186143946127156
496,0.186881107441568
497,0.184035164648364
498,0.18466091837457
499,0.18050681174286
500,0.18181500985968
501,0.180187619869997
502,0.183777694963628
503,0.184478410225871
504,0.182689359988352
505,0.187980498996975
506,0.186938872457631
507,0.187259109758279
508,0.188145791423384
509,0.187484470675128
510,0.183912911071514
511,0.185634139519327
512,0.18336553466732
513,0.177856102917478
514,0.175940839931825
515,0.17276814083258
516,0.171258538154447
517,0.170472120535814
518,0.169437841757801
519,0.172627298519322
520,0.174677879870996
521,0.175950793275519
522,0.177223706680042
523,0.178496620084565
524,0.177174178473789
525,0.177025467693571
526,0.176846438040314
527,0.175240907775127
528,0.175405263620527
529,0.177175535066187
530,0.176991727132617
531,0.176626492617222
532,0.175809446097348
533,0.176821238391138
534,0.177331306784907
535,0.174587329901816
536,0.176062941356321
537,0.175154382924758
538,0.1732822479158
539,0.172328983766307
540,0.173422369250859
541,0.172185268410431
542,0.171071381671602
543,0.172057771959689
544,0.172837052935413
545,0.171479035032582
546,0.17262794253458
547,0.172191309929387
548,0.171754677324194
549,0.171318044719
550,0.170883479762606
551,0.171711877708828
552,0.172995613443931
553,0.171457770275305
554,0.170576944293977
555,0.172026138175638
556,0.169326516410707
557,0.168953801747456
558,0.167786269042506
559,0.166338062781876
560,0.168023516940238
561,0.164511120108824
562,0.167705830858332
563,0.164818844526132
564,0.16568124841516
565,0.163415531618436
566,0.162526349429879
567,0.16095588989183
568,0.162212538411644
569,0.160413205358828
570,0.160747075430923
571,0.161452951385513
572,0.1616261596773
573,0.161627717980069
574,0.163032590095937
575,0.161151664875514
576,0.162398698785762
577,0.16364573269601
578,0.164892766606258
579,0.166139800516506
580,0.167386834426754
581,0.170084888579286
582,0.169552021168845
583,0.171528841481218
584,0.16929035889678
585,0.169349223144634
586,0.165729589837095
587,0.164511628404524
588,0.163693533456349
589,0.162875438508174
590,0.162057343559998
591,0.163403705220381
592,0.165380392790297
593,0.165994306375097
594,0.168786655311745
595,0.168522712103664
596,0.169813831280093
597,0.170790481698526
598,0.170924112393463
599,0.171294230359257
600,0.172846980913682
601,0.174346970282783
602,0.175450983607681
603,0.174649540258046
604,0.176490794208498
605,0.175841298350063
606,0.176196267905495
607,0.175698937142321
608,0.174199731222815
609,0.174190908886588
610,0.173525110163047
611,0.172653362668629
612,0.171421235016558
613,0.171354761602539
614,0.170100534076597
615,0.172812545847871
616,0.170945205511726
617,0.17265454493353
618,0.172352941077668
619,0.173530716602421
620,0.173284082376811
621,0.174547617912383
622,0.171388985837579
623,0.171607831840941
624,0.170565620441901
625,0.16952340904286
626,0.16848119764382
627,0.168378734719557
628,0.167990572988987
629,0.16791932585932
630,0.169411501779992
631,0.168082315030114
632,0.169267381014065
633,0.170867808051035
634,0.171640327398966
635,0.173034073614521
636,0.171417640470411
637,0.173767717262282
638,0.172953464011864
639,0.174187326663965
640,0.173961960816069
641,0.173544315170366
642,0.173390407071652
643,0.172645993893506
644,0.17190158071536
645,0.171157167537213
646,0.172844667526377
647,0.173528966647738
648,0.170818294548161
649,0.173678855439862
650,0.1720125520376
651,0.173554887718652
652,0.171507655395117
653,0.168953964311937
654,0.166595995420494
655,0.168568761924188
656,0.167003267989515
657,0.169483562492609
658,0.171796636250235
659,0.175914706198129
660,0.177401704170633
661,0.178343494490648
662,0.179301272129092
663,0.178994207207462
664,0.177945294184737
665,0.179222746759467
666,0.179111814931099
667,0.179969398119102
668,0.180664036568649
669,0.177753057651844
670,0.178854251669794
671,0.178705704849517
672,0.178256387084166
673,0.178967710458884
674,0.179630825177702
675,0.179713007101319
676,0.179612157644598
677,0.181649066070359
678,0.179692303614914
679,0.179683829556909
680,0.184055909331258
681,0.180905402644934
682,0.176189920154538
683,0.172703775748918
684,0.165866930022094
685,0.160433655618956
686,0.156088874858901
687,0.153252920613706
688,0.153203419879851
689,0.154790343692643
690,0.15866266324403
691,0.162871137796794
692,0.165063464179548
693,0.167895614335814
694,0.170970319251135
695,0.171361772360429
696,0.17423746618826
697,0.175778598428298
698,0.173932361177819
699,0.174443855123976
700,0.177789644614709
701,0.177234634814609
702,0.180028805077901
703,0.180550180352491
704,0.184096216573843
705,0.184007378865911
706,0.186678039114031
707,0.189276921993691
708,0.189353287771188
709,0.191801920519969
710,0.190187128320151
711,0.189955424527814
712,0.190680887051877
713,0.184160269089145
714,0.181238294163003
715,0.172999033889354
716,0.166728340824958
717,0.162727442127851
718,0.161684802914255
719,0.163095323996028
720,0.165329396747182
721,0.164027097602768
722,0.168987650179944
723,0.168503308407464
724,0.168268429783976
725,0.169562665387711
726,0.16914911158368
727,0.172497320170941
728,0.174578077875249
729,0.179369461221095
730,0.182822377328443
731,0.188158313414944
732,0.192851791398869
733,0.198102753724437
734,0.201628631909034
735,0.202721382291549
736,0.206106595891412
737,0.207759784253006
738,0.2094129726146
739,0.211066160976193
740,0.214813200565682
741,0.216203131055958
742,0.218166649836242
743,0.220130168616526
744,0.22209368739681
745,0.223336271169526
746,0.223633065615977
747,0.225741863480165
748,0.223994644559498
749,0.225809634252149
750,0.226464650820903
751,0.226352565962558
752,0.229480403297336
753,0.229006927062413
754,0.224762394131733
755,0.207971181439751
756,0.19117996874777
757,0.174388756055789
758,0.148613980817271
759,0.126029108381502
760,0.113817444909254
761,0.112036143645419
762,0.117408690780935
763,0.130043619744699
764,0.147085368635585
765,0.163920848563217
766,0.18251246037492
767,0.200676170762415
768,0.211126449489294
769,0.219240405592345
770,0.226047198041934
771,0.229083823744247
772,0.232262487390888
773,0.235674555570686
774,0.234610663620466
775,0.235569114132337
776,0.236749274437904
777,0.234069939153429
778,0.237786067274484
779,0.234496358157446
780,0.238784559241413
