"wavelength","measurement"
380,0.00210320499830643
381,0.0020985536438662
382,0.00217965933243628
383,0.00209485597283796
384,0.00217941760968179
385,0.00234916900856325
386,0.00250804590870891
387,0.00267484791276692
388,0.00286372997994896
389,0.00299030716637259
390,0.00303625767125748
391,0.00305241812042162
392,0.00308561374916362
393,0.00326370140922055
394,0.00334548103415891
395,0.00362349935102131
396,0.00399431602417124
397,0.00451238772021057
398,0.0050304594162499
399,0.00554853111228923
400,0.00589140415350884
401,0.00633111591225
402,0.00664859575661127
403,0.00684428626099347
404,0.00693280803067405
405,0.00712278353860097
406,0.00728950322052289
407,0.0075012137081041
408,0.00769519417555452
409,0.00799329835644858
410,0.00849425096002376
411,0.00864324142215392
412,0.00901503512458799
413,0.00940180409432763
414,0.00949538070937761
415,0.00977473562153737
416,0.00986103677044418
417,0.00993948373630312
418,0.0101693219968148
419,0.0100684158304341
420,0.0105366505332071
421,0.0105853948608547
422,0.0107782388913851
423,0.0109848433151099
424,0.0111318688778274
425,0.0110082984016564
426,0.0109949508314374
427,0.010757274423953
428,0.0104877883663404
429,0.0105476845806694
430,0.0106110634158433
431,0.0110604110216875
432,0.0114882911301956
433,0.0119671752245476
434,0.0124757986727248
435,0.0128468734106267
436,0.0130522568221912
437,0.0133090249012947
438,0.0135657929803983
439,0.0138225610595018
440,0.013935514739546
441,0.0142472389237478
442,0.0146535308525644
443,0.0148673878196519
444,0.0151379484710709
445,0.01540850912249
446,0.0156790697739091
447,0.0159683672624013
448,0.0160822566930405
449,0.0167043102311287
450,0.016618636993125
451,0.0166421870606884
452,0.0166298796195205
453,0.0166175721783527
454,0.0166052647371848
455,0.016644519795901
456,0.0166442615956126
457,0.0169275693861332
458,0.0171336246112704
459,0.0174248203427302
460,0.0174819100996903
461,0.0173099339198683
462,0.0178313360665965
463,0.017446816228247
464,0.0172911678136714
465,0.0171590409953583
466,0.0170073034376825
467,0.0170082600775735
468,0.0168977699552139
469,0.0167210907751625
470,0.017164191637408
471,0.017194545044708
472,0.0172711742565972
473,0.0175170536817858
474,0.0176677188703155
475,0.0178782086825147
476,0.0175328910859519
477,0.0175604118677405
478,0.0175879326495291
479,0.0176154534313176
480,0.0175883304389008
481,0.0171776330194737
482,0.0168924104258933
483,0.0168418124828252
484,0.0164420259226385
485,0.0161127661351634
486,0.0163279294224582
487,0.0164483261099029
488,0.0166306496587582
489,0.0171026251032338
490,0.0172878667016104
491,0.0174570860586726
492,0.017908320742899
493,0.0177162495464117
494,0.018025098214658
495,0.0178071769783614
496,0.0179159503471666
497,0.0176273526166958
498,0.0177505806120413
499,0.0174021901266314
500,0.0175679775638807
501,0.0174298454312622
502,0.0177532518491111
503,0.0178442819796029
504,0.0177539251868787
505,0.0183568704223132
506,0.0182566442735556
507,0.0183202765028355
508,0.0184760615268634
509,0.0184623259868628
510,0.0181761708388371
511,0.0184457146383076
512,0.0183251933833879
513,0.0177725058735613
514,0.0176805070744562
515,0.017417641155944
516,0.0173139875630272
517,0.017248406637
518,0.0172317388222579
519,0.0175385791867214
520,0.0178991673732804
521,0.0181143417296354
522,0.0183295160859904
523,0.0185446904423454
524,0.0184184262739035
525,0.0184836470625091
526,0.0184425019668922
527,0.018437481529526
528,0.0185228009261599
529,0.0187462069014295
530,0.0187852022104173
531,0.018781828851855
532,0.0187295863798394
533,0.018935918778956
534,0.0189930693243654
535,0.0187557544883465
536,0.0189498802246984
537,0.0188413732508242
538,0.0187254351197224
539,0.0186071440799995
540,0.0186966047070586
541,0.0185843338184623
542,0.0184864539479583
543,0.0185441228735587
544,0.0186997223799111
545,0.0185064244675531
546,0.0186496910754462
547,0.0186078276639087
548,0.0185659642523711
549,0.0185241008408336
550,0.0184209361891991
551,0.0185225933525696
552,0.0186850640264221
553,0.0185140518406747
554,0.0184588936806649
555,0.01862408457104
556,0.0183853651707539
557,0.0183096590086427
558,0.0182141053392276
559,0.0180543929488447
560,0.0182946664723518
561,0.017981055178865
562,0.0182607793429372
563,0.0179876011219703
564,0.0180625680618198
565,0.0177807593218642
566,0.0176768421097566
567,0.017507820810026
568,0.0176165449288763
569,0.017449123469579
570,0.017379568560883
571,0.0173993304474733
572,0.0173935551729521
573,0.0173353088943762
574,0.0174869842987568
575,0.0172102530216492
576,0.0172624443798183
577,0.0173146357379873
578,0.0173668270961563
579,0.0174190184543254
580,0.0174712098124944
581,0.0176886543556432
582,0.0175976461372894
583,0.0176813165538982
584,0.0173883186480969
585,0.0173786648162775
586,0.0169148454513793
587,0.0167086914317798
588,0.0165335457078333
589,0.0163583999838868
590,0.0161832542599403
591,0.0162534777969337
592,0.0163641904070823
593,0.0163591236075549
594,0.0165636956460071
595,0.0164718642104008
596,0.0165667927329742
597,0.016595737279015
598,0.0165520568892875
599,0.0165492994687221
600,0.0166479766241096
601,0.0167025596856509
602,0.0167680450923851
603,0.0166196118614562
604,0.0167836002332972
605,0.0166844190991305
606,0.0166855937238036
607,0.016585062392701
608,0.01637221119652
609,0.0163497038525512
610,0.016227470415523
611,0.0160620181553737
612,0.0159444238708778
613,0.0158504659511063
614,0.0156221713999551
615,0.0157587873635116
616,0.0156211080930914
617,0.0157556339765881
618,0.015665482171339
619,0.0157005106986665
620,0.0155941360801446
621,0.0157148372050965
622,0.0153702525661115
623,0.015346373912496
624,0.015193930774871
625,0.0150414876372461
626,0.0148890444996211
627,0.0148479131008444
628,0.0147287256458812
629,0.0146922327299521
630,0.014807900132148
631,0.0146059914267199
632,0.0146757063492192
633,0.0147881897232958
634,0.0147325273371126
635,0.0147976056064636
636,0.0146474827517547
637,0.0147925902036071
638,0.0146478406931781
639,0.0146947613466779
640,0.0146034431114224
641,0.0145350719558734
642,0.0144551571456049
643,0.014346492014288
644,0.014237826882971
645,0.014129161751654
646,0.0141877616734404
647,0.0141491973701799
648,0.0138268936369263
649,0.0140592934140913
650,0.013858022843107
651,0.0139526370013201
652,0.0137669421873144
653,0.0134805493929734
654,0.0132020106530447
655,0.0132720223478491
656,0.0131557800373721
657,0.0132428235245053
658,0.0133142763070867
659,0.0136378791169209
660,0.0136909964365729
661,0.0137473959880785
662,0.0137449138146102
663,0.0136289133675074
664,0.01352795234435
665,0.0135202181433178
666,0.0135210917461641
667,0.0134864638606162
668,0.0134801987115959
669,0.0132192631382953
670,0.013236104748476
671,0.0131401471304904
672,0.0130730484849949
673,0.0130927790072027
674,0.0130875713305395
675,0.0130186821189947
676,0.0129928130801427
677,0.0130536493488752
678,0.0128367516662604
679,0.0127676394037378
680,0.0130852918779495
681,0.0128040439611872
682,0.0124594277589676
683,0.0121853003120134
684,0.0116471486394849
685,0.0112180003262985
686,0.010886940285169
687,0.0105801453794813
688,0.0104699896354267
689,0.0105518431350063
690,0.0107685624426824
691,0.0110662053473354
692,0.0111411467555038
693,0.0112819442754786
694,0.0115108310285056
695,0.0114653367845545
696,0.0116718993363587
697,0.0117049190320405
698,0.0115377745549832
699,0.0115767268733974
700,0.0117214051301588
701,0.011643768587088
702,0.0118222967616408
703,0.0117580662803518
704,0.0119957775622791
705,0.0119452459952204
706,0.0121135241501469
707,0.0122105863198073
708,0.0121630990595635
709,0.0122847065089186
710,0.0121394866134051
711,0.0121591238050487
712,0.0121570649335626
713,0.0117299456730145
714,0.0114606999261208
715,0.0109523686667146
716,0.0105126042866515
717,0.0101776941883954
718,0.0100758767647392
719,0.0100818691520137
720,0.0101979285658192
721,0.0100925937276352
722,0.0103451719374166
723,0.0102870895332009
724,0.0102421063911086
725,0.0102807599422244
726,0.0101724414628275
727,0.0103463980888175
728,0.0104313701354803
729,0.0105214089048825
730,0.0107375150072802
731,0.0109755828445307
732,0.0111783630952732
733,0.0115516662715634
734,0.0116212210490143
735,0.0116506114834608
736,0.011782669458896
737,0.0117766541356509
738,0.0117706388124058
739,0.0117646234891607
740,0.011941035898829
741,0.0119542768232686
742,0.0119808129472862
743,0.0120073490713038
744,0.0120338851953214
745,0.0120070170376725
746,0.0119512760876938
747,0.0120138024261037
748,0.0117669948368382
749,0.0118354221553806
750,0.0117533445894938
751,0.0116705055789042
752,0.0117756271353886
753,0.0115310365323801
754,0.0114117803663348
755,0.0105835181306183
756,0.00975525589490179
757,0.00892699365918531
758,0.00767016425318815
759,0.00645690100102805
760,0.00563276189913569
761,0.00545273752227642
762,0.00566111904406317
763,0.00617457644988444
764,0.00689032096524938
765,0.00763647859173998
766,0.00843181097143237
767,0.00930721751510072
768,0.0097164940680463
769,0.0100679438060792
770,0.0103000764815035
771,0.0104445236344835
772,0.0105391903206867
773,0.0106723784053604
774,0.0105882876496772
775,0.0105159546394629
776,0.0105891566905674
777,0.0104017583778012
778,0.0104609226135092
779,0.0103429288043095
780,0.0104756362341926
