"wavelength","measurement"
380,0.073140183321435
381,0.0702580754123692
382,0.0685713647543785
383,0.0670991170120627
384,0.0670775352688819
385,0.069380597889555
386,0.0722610471312439
387,0.0749876014460415
388,0.0777319416729121
389,0.0793140430439757
390,0.0779872675271127
391,0.0765882512389345
392,0.0766456795219392
393,0.0763068201969481
394,0.0773981371770292
395,0.0804196740370118
396,0.0881377951132918
397,0.0966331784425719
398,0.105128561771852
399,0.113623945101132
400,0.117762352094756
401,0.123160610893372
402,0.12627321539079
403,0.125989604557042
404,0.125353652355034
405,0.124848231517372
406,0.125626222573808
407,0.124714287538235
408,0.125359345295601
409,0.126697862681755
410,0.13122747031016
411,0.131466633610257
412,0.133977205917424
413,0.135439792027798
414,0.135048099149964
415,0.135887101882429
416,0.133865878965867
417,0.13318454309985
418,0.134751365628096
419,0.132341976098216
420,0.134478731580582
421,0.134364326636116
422,0.134801832066954
423,0.135206531073926
424,0.136112525468374
425,0.132977615386737
426,0.131363224330212
427,0.127423725524147
428,0.123702407718456
429,0.123024943867871
430,0.123587396623873
431,0.127564765612571
432,0.131985544978743
433,0.136157291390749
434,0.141322738594872
435,0.143620712317508
436,0.145044226004451
437,0.146963291513475
438,0.148882357022499
439,0.150801422531523
440,0.151170834133577
441,0.153429220755743
442,0.156593417276203
443,0.157038881642016
444,0.159099571831655
445,0.161160262021294
446,0.163220952210932
447,0.165420118782191
448,0.164882437318742
449,0.170561122326252
450,0.16909928730035
451,0.167775394928803
452,0.166852952978499
453,0.165930511028196
454,0.165008069077893
455,0.165176528445166
456,0.165056652068666
457,0.166396355071726
458,0.167040976977393
459,0.169119686050249
460,0.168801834504257
461,0.166963845936315
462,0.171164915296118
463,0.166555506470934
464,0.164848921358381
465,0.163004966490895
466,0.160882173950503
467,0.159880370326702
468,0.158529526060425
469,0.157200846295138
470,0.16020511394766
471,0.159972798084137
472,0.160661841283117
473,0.16230721349992
474,0.162712384921597
475,0.164523888941939
476,0.160644645820417
477,0.160511272341513
478,0.16037789886261
479,0.160244525383706
480,0.15972961021805
481,0.155724330223073
482,0.152785429315799
483,0.1512600926868
484,0.148035860037457
485,0.144439517949033
486,0.145410920685856
487,0.146269233257206
488,0.147924561708516
489,0.15118192388214
490,0.151656683008293
491,0.152896162443736
492,0.156770825831784
493,0.154723498279343
494,0.156427966880667
495,0.154027781661576
496,0.154493636379691
497,0.152294244114562
498,0.152378291762143
499,0.148918816518454
500,0.149370499146224
501,0.148244495614998
502,0.150470860159573
503,0.151476161973879
504,0.149142383538863
505,0.153545707791652
506,0.152889161951378
507,0.153069696442117
508,0.153705776667324
509,0.153592575751653
510,0.151139881187336
511,0.152556935717235
512,0.151135707343448
513,0.146558105607297
514,0.145403509923839
515,0.142717579322576
516,0.141644493005202
517,0.141149686060155
518,0.140297989013463
519,0.14332256527961
520,0.145368562780158
521,0.14678312526399
522,0.148197687747821
523,0.149612250231653
524,0.148686672417269
525,0.148721956505613
526,0.149006536327788
527,0.148040407853349
528,0.148681790641716
529,0.150665859901818
530,0.150064462710183
531,0.150258548041321
532,0.149590605937209
533,0.150806919544312
534,0.151213317870351
535,0.148923471861475
536,0.150251459803642
537,0.148931097918524
538,0.148004809370066
539,0.146715004394328
540,0.147379785553511
541,0.146357216168007
542,0.145426891629074
543,0.145806771870544
544,0.146887323164441
545,0.145364395612939
546,0.146534931452576
547,0.146213521393765
548,0.145892111334954
549,0.145570701276143
550,0.144538993738425
551,0.145399889245968
552,0.146744957735555
553,0.145318669343978
554,0.144434914243636
555,0.146047146991038
556,0.143795159514388
557,0.143494862930053
558,0.142448251103767
559,0.141287658230924
560,0.143094265656322
561,0.14053029740148
562,0.143123662953878
563,0.140939632914465
564,0.141670004362558
565,0.139567044593755
566,0.138778560199614
567,0.137145150301946
568,0.137821649683143
569,0.136666240660518
570,0.136435877894581
571,0.137017399632165
572,0.136906914684727
573,0.136700976821608
574,0.137587694269146
575,0.135510557576078
576,0.135914817974518
577,0.136319078372957
578,0.136723338771397
579,0.137127599169837
580,0.137531859568276
581,0.139142920734951
582,0.138177204798396
583,0.138557157031751
584,0.136305494197686
585,0.135413206364736
586,0.13136933574339
587,0.129425458367136
588,0.127963200655459
589,0.126500942943783
590,0.125038685232106
591,0.125455535477113
592,0.126767670113995
593,0.126977935853736
594,0.128682498990131
595,0.128771553831887
596,0.129739486767617
597,0.130269598494429
598,0.13044190845614
599,0.13085239213138
600,0.131796048882367
601,0.132619080539933
602,0.133153778456301
603,0.132440519975537
604,0.133764256185586
605,0.132881116547744
606,0.133181459089217
607,0.132489336848372
608,0.130791195568861
609,0.130797296098043
610,0.129809043016127
611,0.129034999396244
612,0.127866846546172
613,0.127120006840705
614,0.126006360119219
615,0.12765745552789
616,0.125830861376705
617,0.127062611929886
618,0.127139633928954
619,0.12701111348879
620,0.126746642851406
621,0.127304632657665
622,0.125064905098933
623,0.124883086677057
624,0.124101112331753
625,0.12331913798645
626,0.122537163641147
627,0.122282106021132
628,0.121725119328767
629,0.121635585751058
630,0.122529036462045
631,0.120850927386874
632,0.121648833297967
633,0.122391165465594
634,0.122001811650788
635,0.123031720644083
636,0.122099767944091
637,0.123426372418986
638,0.122649229748907
639,0.122997194827154
640,0.122405895781312
641,0.121906671843851
642,0.121147063399774
643,0.120255137199975
644,0.119363211000175
645,0.118471284800376
646,0.118995041459309
647,0.118662421475567
648,0.116327224430305
649,0.118391624365049
650,0.117234597021233
651,0.118001482186301
652,0.116762108912554
653,0.115242179361373
654,0.113022143742373
655,0.114177301389594
656,0.113014565159979
657,0.114900716638677
658,0.115636095710439
659,0.118765654444112
660,0.119662070517439
661,0.120138835771098
662,0.120679170101221
663,0.12030327660693
664,0.119395878194047
665,0.120039849300706
666,0.120336757567504
667,0.119906883892336
668,0.120551078362369
669,0.117986279560993
670,0.119087298468837
671,0.118741381976679
672,0.118190539333166
673,0.118700546972069
674,0.118599794736666
675,0.118939506682877
676,0.118612146689122
677,0.119580812528203
678,0.118089486460506
679,0.118099287118799
680,0.120484994841664
681,0.11825347179819
682,0.116118523023023
683,0.113393231868786
684,0.109906090265487
685,0.106757953874204
686,0.104198440039401
687,0.102309655734554
688,0.101294805455191
689,0.10190146842802
690,0.103037715535112
691,0.104941087166709
692,0.105474173147082
693,0.106178230251363
694,0.107301228704179
695,0.107831515849861
696,0.109185937630092
697,0.110213243082839
698,0.108362925440973
699,0.10877793270319
700,0.110497548605779
701,0.109880414764163
702,0.112105428298492
703,0.112503119724348
704,0.114474643976529
705,0.114418024241213
706,0.116731356687064
707,0.118030878440437
708,0.117976444169402
709,0.119737765651845
710,0.118770394225348
711,0.118529821799987
712,0.118955945882759
713,0.113610543497702
714,0.111439240222756
715,0.105212422694646
716,0.1008931557779
717,0.0970412989873449
718,0.096063143377193
719,0.0969093773700995
720,0.09848857347326
721,0.0974343529902355
722,0.100677992471107
723,0.100396081922623
724,0.100235945605272
725,0.100497476150768
726,0.100714429355621
727,0.102452067552653
728,0.104286160338997
729,0.107722029661146
730,0.110019355372382
731,0.113743344591363
732,0.11761702710264
733,0.121738928529805
734,0.124182081433006
735,0.12502771422547
736,0.12786241557653
737,0.129081758711203
738,0.130301101845875
739,0.131520444980548
740,0.133997535366494
741,0.134958564936042
742,0.136020693116397
743,0.137082821296753
744,0.138144949477109
745,0.139123373772868
746,0.138604599485662
747,0.139494331653597
748,0.138117680175884
749,0.139061204424636
750,0.139407494863189
751,0.1384839983116
752,0.140833101216843
753,0.140243259578787
754,0.137658759753878
755,0.128903103729663
756,0.120147447705449
757,0.111391791681234
758,0.0965854179854643
759,0.0842252609610307
760,0.076268337136335
761,0.0758019933951526
762,0.077887290768154
763,0.0841786923142377
764,0.0926820454967461
765,0.100701341760122
766,0.110814174129545
767,0.120281404528164
768,0.125871355337469
769,0.129900742476438
770,0.133072392144239
771,0.133921549151678
772,0.136121927570952
773,0.137488625636546
774,0.137363801588635
775,0.137320794308209
776,0.13784616366248
777,0.136457406947346
778,0.138668772008711
779,0.136703977256267
780,0.138756726089914
