"wavelength","measurement"
380,0.00651202722866129
381,0.00657500815315156
382,0.00649413252239203
383,0.00629580631290191
384,0.00651049909974733
385,0.00676500775382723
386,0.00700642011311254
387,0.00746857517124928
388,0.00805529016620395
389,0.00819742447766224
390,0.00830123440045837
391,0.00804627480862531
392,0.00848606185237426
393,0.00849980572507192
394,0.00916225932395733
395,0.00970733374896789
396,0.0109570224995174
397,0.012418863284244
398,0.0138807040689705
399,0.0153425448536971
400,0.0161821069612218
401,0.0173980337790693
402,0.0182014372493047
403,0.0187423345432868
404,0.0192099890418171
405,0.0195837198957361
406,0.0202201603800119
407,0.0207802880147685
408,0.0212147168520598
409,0.0219878426459275
410,0.0235093076215764
411,0.0240355181964945
412,0.0246433444313453
413,0.0255278856402832
414,0.0258523981028922
415,0.0264560793291318
416,0.0263592857207888
417,0.0263888189935147
418,0.0271500588926764
419,0.0269702586823116
420,0.0277353456873319
421,0.0279834304464927
422,0.0282180733086352
423,0.0289113131880284
424,0.0293385567525951
425,0.0285952182184474
426,0.0284653119356067
427,0.0279321553695337
428,0.0270990458653109
429,0.0273363534772687
430,0.0273414597843084
431,0.0285142681658792
432,0.0295744745462413
433,0.0305222355119537
434,0.03182731488967
435,0.0327082065430368
436,0.0329143732598808
437,0.0335002848486384
438,0.0340861964373961
439,0.0346721080261538
440,0.0348815112141883
441,0.0355139131695391
442,0.0364292811131735
443,0.0365340818500595
444,0.0371524653070832
445,0.0377708487641068
446,0.0383892322211304
447,0.0390185339346471
448,0.0390365674032796
449,0.040502332045013
450,0.040186494917413
451,0.0398238564509738
452,0.0397197785727203
453,0.0396157006944669
454,0.0395116228162134
455,0.0395543878510178
456,0.0392660409012868
457,0.0398451450877028
458,0.0399754594203337
459,0.0406009227230646
460,0.040474921501515
461,0.0400972434490604
462,0.0411587139989557
463,0.0400312215203384
464,0.0397003387765498
465,0.0393582577472253
466,0.0388994474773476
467,0.0387687347287461
468,0.0385222781105052
469,0.0382843750985961
470,0.0389672106407473
471,0.0389523361145735
472,0.0390785978132412
473,0.0397280652853712
474,0.0396895746586402
475,0.04024081571392
476,0.0393772726712589
477,0.0394543002354519
478,0.0395313277996449
479,0.0396083553638379
480,0.0394536672182087
481,0.0385807603578588
482,0.0377996380799015
483,0.0375282297155659
484,0.0366895813619729
485,0.0359256346790728
486,0.0362768587351288
487,0.0366054207322166
488,0.0369010954778412
489,0.0380450755819075
490,0.0381495437418735
491,0.0384949446734716
492,0.0393002414781415
493,0.0390198067344965
494,0.039573937876549
495,0.0392195869042252
496,0.0392792422619714
497,0.0387109831236967
498,0.0389304389282521
499,0.0380438233457831
500,0.0383207606054863
501,0.038129252499201
502,0.0387747973080911
503,0.0391752708809779
504,0.0387411316826268
505,0.0399002557448232
506,0.0396949741805961
507,0.0398620638246447
508,0.0402048430308013
509,0.040168596221422
510,0.0395482557008544
511,0.0400341785231375
512,0.039852127019312
513,0.0385278757358203
514,0.0383470403475386
515,0.0378306638702832
516,0.037589270628664
517,0.0374456899768452
518,0.0374676664956271
519,0.0381769811186904
520,0.0388345465392018
521,0.0393071889323334
522,0.039779831325465
523,0.0402524737185966
524,0.040099325200317
525,0.0402367949094504
526,0.0404673616084066
527,0.0401998401647734
528,0.0405021529847795
529,0.0411099692966029
530,0.0411176934392134
531,0.0412642126570706
532,0.0411353741603837
533,0.0415755919798277
534,0.0416651017503762
535,0.0411850057517261
536,0.0415833402792718
537,0.0414064878713641
538,0.0411744803602578
539,0.0408812829240777
540,0.041085259737709
541,0.0407886402158886
542,0.0405133239968726
543,0.0408610501617267
544,0.0410477767519642
545,0.0407577599080156
546,0.0411466241201724
547,0.0411297825343549
548,0.0411129409485373
549,0.0410960993627198
550,0.0408696439445122
551,0.0411308539637107
552,0.0414705897576978
553,0.0410968365616429
554,0.0408614566516457
555,0.0413701812835816
556,0.0408000398506841
557,0.0407231078709213
558,0.040604516293802
559,0.0402115673747996
560,0.0407477770165273
561,0.040025922279491
562,0.0406890694352559
563,0.0402312256620026
564,0.0403946073662597
565,0.0399124827253528
566,0.0396552350659087
567,0.039293903187935
568,0.0394302071703404
569,0.0391056311821888
570,0.039120546573622
571,0.0392406933338433
572,0.0394437713160555
573,0.0393263707119615
574,0.0396269347393841
575,0.0391806105633139
576,0.0393834360988189
577,0.0395862616343238
578,0.0397890871698287
579,0.0399919127053336
580,0.0401947382408385
581,0.0407258007222186
582,0.0405906959468364
583,0.0409658521419194
584,0.0404071831115315
585,0.040438992893109
586,0.0394074862370019
587,0.0391087995652504
588,0.0389103600729067
589,0.0387119205805629
590,0.0385134810882191
591,0.0387963527070196
592,0.0394319141566268
593,0.0395143074441016
594,0.0402539929849813
595,0.0404355320958782
596,0.0408725673340241
597,0.0412241431270511
598,0.0414311713266568
599,0.0416906930409163
600,0.042142483852496
601,0.0424002927721941
602,0.042842603964736
603,0.0428222919156929
604,0.0434183853493909
605,0.043169498293199
606,0.0434300481398213
607,0.0432764927063707
608,0.0428524059354937
609,0.0430108468967912
610,0.0427541568929333
611,0.0425945776611218
612,0.0423807959219477
613,0.042351080870849
614,0.0418536620504448
615,0.042555146878704
616,0.0421297734679277
617,0.0424780911905227
618,0.0425706841251199
619,0.0426514615481729
620,0.0425643078902748
621,0.0429734422188719
622,0.0421542865634008
623,0.0422829460543062
624,0.042006046417781
625,0.0417291467812558
626,0.0414522471447306
627,0.0416162700760616
628,0.0413949012869537
629,0.0413335725002555
630,0.0417232923137272
631,0.0411470362379773
632,0.0414295319894161
633,0.0416761921972638
634,0.0417327577304303
635,0.0420013278501691
636,0.0416578023385374
637,0.0419937551793316
638,0.0418179535249691
639,0.0418777465718298
640,0.0417002779801557
641,0.0415751719520908
642,0.0414744700953818
643,0.0411921837106707
644,0.0409098973259595
645,0.0406276109412484
646,0.0407603679137602
647,0.0408778376775159
648,0.039981724501654
649,0.0407295141695175
650,0.0403162132958149
651,0.0406959354060156
652,0.0401824990889321
653,0.0396295792173588
654,0.0389050447034688
655,0.0392801819595285
656,0.0389216329120287
657,0.0393592853507148
658,0.0397290392030636
659,0.0407741888360028
660,0.0410908546061005
661,0.0413450209641409
662,0.0414563149735698
663,0.0412589975615704
664,0.0409919575463119
665,0.0411791068540196
666,0.041172821707454
667,0.0414281728335482
668,0.0414223161367922
669,0.0405875014607707
670,0.0407716084622716
671,0.0408081746780512
672,0.04060358725421
673,0.0407335016251601
674,0.0408666496285555
675,0.0408986431014118
676,0.04077337840197
677,0.0410651128261733
678,0.0404841157475996
679,0.040538054197222
680,0.0414209788305673
681,0.0407897785614568
682,0.039892003271689
683,0.0391801231883246
684,0.0378292016822924
685,0.036979034980173
686,0.0362459501429835
687,0.0355548516976553
688,0.0353623505924407
689,0.0356288293861347
690,0.0361438729374189
691,0.0369698350787215
692,0.0370609979583758
693,0.0375336807306134
694,0.0381048752926353
695,0.038173405188238
696,0.0388358415620496
697,0.0392228083822572
698,0.0388484820070269
699,0.0390657629686797
700,0.0399202178679161
701,0.0398030835496622
702,0.0406474775035791
703,0.0410357463990034
704,0.0420261092542066
705,0.0419758654226591
706,0.0429549048314732
707,0.0437414059350436
708,0.0439158844856236
709,0.0446011945998692
710,0.0444945435345827
711,0.0448404606616169
712,0.0451658493993671
713,0.0437683463752288
714,0.0431402338010449
715,0.0411769166651381
716,0.0397615420217675
717,0.0386451197619822
718,0.0385400831772935
719,0.0392807775523492
720,0.0400167885250292
721,0.0398118256733177
722,0.0411729027053307
723,0.0415854893007609
724,0.0417660149795973
725,0.0423594130232227
726,0.042642364201015
727,0.0436786106069045
728,0.0446235190720909
729,0.0462371336988183
730,0.0476059785981382
731,0.0494469514584481
732,0.0512335708312199
733,0.0530775779092407
734,0.0547493759490676
735,0.0556653326591097
736,0.0566650580308779
737,0.0575015994146359
738,0.058338140798394
739,0.059174682182152
740,0.060536619330887
741,0.0613697102335042
742,0.0620800810446691
743,0.062790451855834
744,0.0635008226669989
745,0.0639568680134807
746,0.0640491223349547
747,0.0647060823640435
748,0.0643582456826642
749,0.0650659655966111
750,0.0651345006789114
751,0.0650393110477214
752,0.0659918045862939
753,0.0660013905450844
754,0.0649594547873782
755,0.0609184101023367
756,0.0568773654172951
757,0.0528363207322535
758,0.0462291297263863
759,0.0407545024345404
760,0.0370856140191365
761,0.0366280318658269
762,0.0380443703271972
763,0.041143742177978
764,0.0453521183416194
765,0.0491695420604959
766,0.0540220356667711
767,0.058185161963317
768,0.0612261088536168
769,0.0629156268623566
770,0.0644247491544679
771,0.0650602925713921
772,0.0658561455145679
773,0.0667881342604774
774,0.0662708977478347
775,0.0664860394621162
776,0.0667516071792008
777,0.0660039014602165
778,0.0670789377159469
779,0.0662323459639009
780,0.0670041679390228
