"wavelength","measurement"
380,0.00230497288677146
381,0.00225670075179874
382,0.00227856023740485
383,0.00229129579694097
384,0.0023578270101577
385,0.00250025680832254
386,0.00268260964169455
387,0.00287981291283642
388,0.00300979204527953
389,0.00316424266987784
390,0.00319247846531582
391,0.0032210561840089
392,0.00326238800341071
393,0.0033523723861824
394,0.00349436198433064
395,0.00368284112113898
396,0.00410864004210869
397,0.00460565354517082
398,0.00510266704823294
399,0.00559968055129507
400,0.00586728048685638
401,0.00632153466494381
402,0.00658091494991911
403,0.006707504677747
404,0.00679556950170762
405,0.00679775945806711
406,0.0069490015368362
407,0.00701941248479792
408,0.00712371550295799
409,0.00724964210337289
410,0.00761324730993303
411,0.00761464554400482
412,0.00789587672963706
413,0.00808230592178811
414,0.00808385960019638
415,0.0081724315189379
416,0.00812608401506943
417,0.0081025405249244
418,0.00824766507085102
419,0.00805508341640435
420,0.00829431008608008
421,0.00827478036502365
422,0.00838723717517996
423,0.00841425803104618
424,0.0084986209625858
425,0.00835024868348059
426,0.00826227972784367
427,0.00808631449037465
428,0.00778679525182659
429,0.00779503357748015
430,0.00783424748030669
431,0.00816852419547033
432,0.00847172644291168
433,0.00883700795451102
434,0.00923559057928969
435,0.00945964837149486
436,0.00949805726776518
437,0.00963899867082803
438,0.00977994007389089
439,0.00992088147695374
440,0.00997932284072541
441,0.0101916090103854
442,0.0104120403034033
443,0.0105080824806195
444,0.0106995271816606
445,0.0108909718827017
446,0.0110824165837427
447,0.0112910219463196
448,0.0113689616362157
449,0.0117972221855334
450,0.0117799581210763
451,0.0117224533116921
452,0.0117201420587026
453,0.011717830805713
454,0.0117155195527235
455,0.0117407075536989
456,0.0117349476973694
457,0.0119537077037124
458,0.0120097151367742
459,0.0122416068808512
460,0.0122618959503324
461,0.0121345430881426
462,0.0125653302466211
463,0.0122110876060729
464,0.0121286354372683
465,0.0120347083469344
466,0.0118982369688712
467,0.0118827821856154
468,0.0117987968426425
469,0.0117238528221557
470,0.0120019530392363
471,0.0120150422014396
472,0.0120942021028413
473,0.0122396606039413
474,0.0123037142965779
475,0.0124969456849036
476,0.0122408555566552
477,0.0122684588837205
478,0.0122960622107857
479,0.0123236655378509
480,0.0123576931093261
481,0.0120485794020773
482,0.0118395545536613
483,0.0118480888082795
484,0.0115934400803726
485,0.0113706905903316
486,0.0114615130239158
487,0.0115702586058883
488,0.0116823888086801
489,0.0120158606933994
490,0.0120901174452158
491,0.0121677916758621
492,0.012467349751016
493,0.0123638438273456
494,0.0125352481019168
495,0.0123858158101098
496,0.0124414421440303
497,0.012220091179235
498,0.0122912926555588
499,0.0119831673207244
500,0.0120787564474006
501,0.0119574085086278
502,0.0121642419284377
503,0.0122443007084571
504,0.0121061590754836
505,0.0124933349067497
506,0.0124434625221599
507,0.0124905535417619
508,0.01258280715588
509,0.0125797173966666
510,0.0123635277139952
511,0.0125682285514966
512,0.0124890145324918
513,0.0121153059814623
514,0.0120379782865373
515,0.0118200666050017
516,0.0117444338971603
517,0.0117256130109646
518,0.0116610806940041
519,0.0118874338915094
520,0.0121042222997928
521,0.0122377980340903
522,0.0123713737683877
523,0.0125049495026852
524,0.0124273941910906
525,0.0124939257619013
526,0.012513741554969
527,0.0124167837850175
528,0.0125290167166524
529,0.0126947525370656
530,0.0126940690119691
531,0.0127027982783056
532,0.0126641134746733
533,0.0127917418157355
534,0.0128280633888788
535,0.0126950280065202
536,0.0128518133610524
537,0.0128162111219067
538,0.0127846157618243
539,0.0128047790055275
540,0.0129540535045129
541,0.0129700251090308
542,0.0129869498530887
543,0.0130761671764742
544,0.0131864901822769
545,0.0130417336432233
546,0.0130752288757016
547,0.0129785809937234
548,0.0128819331117452
549,0.0127852852297669
550,0.0125988792970826
551,0.0126865795226471
552,0.0127223870246633
553,0.0125933586414601
554,0.0125195985726401
555,0.0125943786583279
556,0.0124432768832671
557,0.0123919218650702
558,0.0122891925375644
559,0.0122053457353565
560,0.0123508094614579
561,0.0121338465703092
562,0.0123546525464816
563,0.0121568742822116
564,0.0122026243690208
565,0.0120328088675941
566,0.0119702754106601
567,0.0118378282880286
568,0.0119066304116315
569,0.0117736399261073
570,0.0117457522500008
571,0.0117812153425495
572,0.0117897952356322
573,0.0117633463577139
574,0.0118657240726559
575,0.011714565436186
576,0.0117579949929985
577,0.0118014245498111
578,0.0118448541066236
579,0.0118882836634362
580,0.0119317132202487
581,0.0120699610163186
582,0.0119868542735237
583,0.0120274054387282
584,0.0118433301371414
585,0.0118055647945235
586,0.0114388083318278
587,0.0112145672656105
588,0.0110572840764956
589,0.0109000008873807
590,0.0107427176982657
591,0.0107511394753426
592,0.0108552539404875
593,0.0108321626374126
594,0.0110011017277586
595,0.0109415342489417
596,0.0110233838402195
597,0.0110449010653926
598,0.011097262717949
599,0.0110896268113051
600,0.0111893053703417
601,0.0111995943418233
602,0.0112698779375188
603,0.0111894443652739
604,0.0112809386669031
605,0.0112287331835961
606,0.0112717073065211
607,0.0113071103462106
608,0.0112497025500776
609,0.0113651952944585
610,0.0113622444815875
611,0.011322984288034
612,0.0112177218272953
613,0.0110669331042454
614,0.0108037888169763
615,0.0107958179120472
616,0.0106295401939462
617,0.0106849948209802
618,0.010613005743032
619,0.0106351254432466
620,0.0105505642166
621,0.0106098030352862
622,0.010386957031307
623,0.010334126176238
624,0.010235959310805
625,0.0101377924453719
626,0.0100396255799389
627,0.0100170650547069
628,0.00995976780759578
629,0.00992653668265807
630,0.00997409196161586
631,0.00980655240821013
632,0.0098266716323743
633,0.00986892719856672
634,0.00983069438583285
635,0.00985457662464967
636,0.00975176573216481
637,0.00982504497117968
638,0.00970761651723303
639,0.00973585581676758
640,0.00968559212379796
641,0.00963663013141972
642,0.00955644376422214
643,0.0094591297156064
644,0.00936181566699066
645,0.00926450161837493
646,0.00926326114563333
647,0.00919834460353684
648,0.00897880920924235
649,0.00916498910371097
650,0.00903905668483089
651,0.00911003036329396
652,0.00898161524127827
653,0.00880931872135019
654,0.00862624719794258
655,0.00868861200871656
656,0.00857755364783289
657,0.00862408540770282
658,0.00872377415272209
659,0.00896575139171558
660,0.00900547637005703
661,0.00904517817518475
662,0.00906724154197096
663,0.00898112258673822
664,0.00891880224948917
665,0.00893747907738102
666,0.00892393698156192
667,0.00888438293984338
668,0.00890720161784815
669,0.00872625770394273
670,0.00872641814311791
671,0.00866207203091141
672,0.00864278176922578
673,0.00863878602039775
674,0.00861652578128191
675,0.00858591237147162
676,0.00855390236682832
677,0.00858611795635729
678,0.00845025679652539
679,0.00840730183545622
680,0.00856905914822394
681,0.00838938307069941
682,0.00817452236349987
683,0.00800808587817544
684,0.00769172589125405
685,0.0074618296973
686,0.00725037115129885
687,0.00706135205083214
688,0.00693633071552609
689,0.00693863052702553
690,0.00699812254679542
691,0.00710435092154699
692,0.00710470306975629
693,0.00708880675758844
694,0.00719379726650659
695,0.00716476426361259
696,0.00726298789348189
697,0.00724860071972719
698,0.00712394329773806
699,0.0070977369250023
700,0.00719207116440134
701,0.00711590120503985
702,0.00719454582356949
703,0.00719241133607768
704,0.0073377190792448
705,0.00731530006755664
706,0.00738302125921552
707,0.00746784027346184
708,0.0074427921784455
709,0.0075001836298284
710,0.00737572413659237
711,0.00736210707472704
712,0.00733805133920601
713,0.00699359465559506
714,0.00678368639982031
715,0.00637468378574305
716,0.00601252501463558
717,0.00570879374910727
718,0.00563005426333979
719,0.00560376642548786
720,0.0056543216532826
721,0.0055674770011928
722,0.00573958575431603
723,0.00565767866539114
724,0.0055944601869142
725,0.00558242609355208
726,0.00554678702662335
727,0.00560589068316469
728,0.00566439414852546
729,0.00574730079349035
730,0.00592833286173821
731,0.00612236197871004
732,0.00626458739671437
733,0.00646113095927803
734,0.00661719511936974
735,0.00665028710100269
736,0.00674314162922984
737,0.00677728873004213
738,0.00681143583085441
739,0.0068455829316667
740,0.00697175019479192
741,0.00698780446745088
742,0.00700465179323096
743,0.00702149911901104
744,0.00703834644479112
745,0.00706367857310794
746,0.0070257104574862
747,0.00702006673022444
748,0.0069003485894377
749,0.00692559758799232
750,0.00690186276787153
751,0.00685525164238417
752,0.00691220254116574
753,0.00674037460915261
754,0.00677942982445632
755,0.00634588941430227
756,0.00591234900414822
757,0.00547880859399416
758,0.00477827903993369
759,0.00415284491808337
760,0.00369763393977002
761,0.0035087740958515
762,0.00362345160419745
763,0.00385863242145011
764,0.00423103491033407
765,0.00458449240685388
766,0.00504258091167624
767,0.00549795540677182
768,0.00574560218319924
769,0.00591563566167887
770,0.00602864478946228
771,0.00610923277419666
772,0.00614525288849117
773,0.00619419856628153
774,0.00612487467636601
775,0.0061042323560992
776,0.00612696780288636
777,0.00605921414627795
778,0.00606512931995758
779,0.00598560738808589
780,0.00606122107149004
