"wavelength","measurement"
380,0.00232729233814733
381,0.00228841824218794
382,0.00235370311505113
383,0.0023449924180999
384,0.00243870747290975
385,0.002640965300802
386,0.00280556966196308
387,0.00300667113145726
388,0.00322697845065334
389,0.00333494101347937
390,0.00334841300925586
391,0.00337633184165137
392,0.00346036199385017
393,0.00353761663818658
394,0.00375223603126688
395,0.00393010310104295
396,0.00445659568753497
397,0.00502301425505342
398,0.00558943282257187
399,0.00615585139009032
400,0.00645097571460464
401,0.00691355657998469
402,0.00722485499948642
403,0.00734943386158615
404,0.00750927013073002
405,0.00756439622980037
406,0.00777867499532509
407,0.00792226406718285
408,0.00802395039217227
409,0.00826626510951925
410,0.00871397781349843
411,0.00884983826281584
412,0.0090434168947654
413,0.0093641047798872
414,0.00940267674140606
415,0.00952394098821031
416,0.00949827788955599
417,0.00949428891346673
418,0.00962595866428926
419,0.00946495850323253
420,0.0097688404817607
421,0.00978794013982315
422,0.00990804003693765
423,0.0100346862968313
424,0.0101004436761521
425,0.00992340817015303
426,0.00991271845555232
427,0.00967267309314391
428,0.00939482895360113
429,0.00938910771429998
430,0.00949615545978595
431,0.00987720540008601
432,0.0102776107555346
433,0.010701600466025
434,0.0112480647419414
435,0.0115285749860504
436,0.0116688214113703
437,0.011886336816484
438,0.0121038522215977
439,0.0123213676267114
440,0.0124363168377942
441,0.0127515069224628
442,0.0131112047921824
443,0.013343050542745
444,0.0136164097548881
445,0.0138897689670311
446,0.0141631281791742
447,0.0144222133367056
448,0.0145753424739169
449,0.0151597786342577
450,0.0151647261944679
451,0.0150858192078406
452,0.015102960628516
453,0.0151201020491913
454,0.0151372434698666
455,0.0151268162913706
456,0.0152439503414994
457,0.0154874638709261
458,0.0156358853778695
459,0.0159646108401079
460,0.0160191861830888
461,0.0159259199259894
462,0.0164013199173725
463,0.0160077882254346
464,0.0158762454654981
465,0.0157857512924933
466,0.0156733988259175
467,0.0156462864617176
468,0.0155358374830844
469,0.0154674640275542
470,0.0158383919137398
471,0.0158721055986442
472,0.0160121937763368
473,0.0162552829956294
474,0.0163680819849016
475,0.0166208709769915
476,0.0162855671371049
477,0.0163194581930261
478,0.0163533492489474
479,0.0163872403048686
480,0.016334442220714
481,0.0159251495353801
482,0.0157030947331601
483,0.0157085217396468
484,0.015375915615553
485,0.0150951028258139
486,0.0152871093415266
487,0.0154587851872898
488,0.0156514551327806
489,0.0160850263158165
490,0.0163121078833413
491,0.01643757298032
492,0.0168472236471253
493,0.016702569322453
494,0.0169924592666989
495,0.016776592644178
496,0.0168797871163422
497,0.0165788845145526
498,0.0167040103450915
499,0.0163632098292786
500,0.0165069083042614
501,0.016392048072309
502,0.016728913852659
503,0.0168470757630738
504,0.0167198821188675
505,0.0172977374841148
506,0.0172438382115957
507,0.0172971950576333
508,0.0174221968979386
509,0.0174155537237655
510,0.0171235551155916
511,0.0173938140587501
512,0.0172084188883947
513,0.0167757066975801
514,0.0166608573191947
515,0.016403636519472
516,0.0163115472603744
517,0.0163044181790949
518,0.016266169578851
519,0.0165565980949254
520,0.0169025263951331
521,0.0170920465453528
522,0.0172815666955724
523,0.0174710868457921
524,0.0173900754714558
525,0.017407607766984
526,0.017454147085102
527,0.0173725219053327
528,0.0174805916070364
529,0.0177028228378748
530,0.0177240472308766
531,0.0177548404628615
532,0.017690457808056
533,0.0178715461212161
534,0.0179236576421918
535,0.0177506138918914
536,0.0179867553561426
537,0.0178842107027833
538,0.0178434728953104
539,0.0178242970591505
540,0.0179980693153498
541,0.0179967890331213
542,0.0180194546442275
543,0.0181579931462401
544,0.0182434014995801
545,0.0180579193547535
546,0.0181430202567576
547,0.0180336438102233
548,0.0179242673636889
549,0.0178148909171546
550,0.0176481523587345
551,0.0177850816194219
552,0.0178507571291827
553,0.0176948980570827
554,0.0176298409487617
555,0.0177818875929515
556,0.0175374075996155
557,0.0175195438379235
558,0.0174128365095706
559,0.0172660379343124
560,0.0174807136649337
561,0.0171810368588788
562,0.0174824441934432
563,0.0172275304989922
564,0.0173025001163708
565,0.0171140131014558
566,0.0170138888735316
567,0.0168418319506824
568,0.0169758926559292
569,0.0167648741946593
570,0.0167573557196461
571,0.0167803311137712
572,0.0168042846660115
573,0.0167652950846287
574,0.0168894478828067
575,0.0166528124062739
576,0.0167144341838371
577,0.0167760559614003
578,0.0168376777389635
579,0.0168992995165267
580,0.0169609212940899
581,0.0171808153552529
582,0.0170963511416583
583,0.0172449986940337
584,0.0169567086619316
585,0.0169939782073806
586,0.0165778346390312
587,0.0164625574866938
588,0.0163344542134832
589,0.0162063509402727
590,0.0160782476670622
591,0.0161507175911448
592,0.0162337574445021
593,0.0162183999791034
594,0.016368865726401
595,0.0162740776311937
596,0.0163138153921688
597,0.0163143338805228
598,0.0162410932612986
599,0.0161932156022743
600,0.0162473765279387
601,0.0163085280340955
602,0.0163356471573375
603,0.0162161113237524
604,0.0163608581799369
605,0.0162530341613371
606,0.0163099306653471
607,0.0162752264243085
608,0.016160805255442
609,0.0162245694791557
610,0.0161694629594197
611,0.0160688560238963
612,0.0159068677348153
613,0.0157646461542846
614,0.0154707031840097
615,0.0155897630225443
616,0.0153723762990887
617,0.0155102689861948
618,0.0154238627721141
619,0.0154688598958144
620,0.015367417253752
621,0.0154730397767111
622,0.0151377079453783
623,0.0150944671567105
624,0.0149499783948767
625,0.0148054896330429
626,0.0146610008712092
627,0.014619603942534
628,0.0145163077499351
629,0.0144845394981656
630,0.0146002252535255
631,0.0143890320636359
632,0.0144372836377138
633,0.0144792940813276
634,0.0144752118147569
635,0.0145187223267572
636,0.014402942214979
637,0.0145104991061563
638,0.0143303734508722
639,0.0144287124358045
640,0.0143305629922292
641,0.0143062573561087
642,0.0142119666634633
643,0.0141448774710614
644,0.0140777882786595
645,0.0140106990862577
646,0.0141181001814121
647,0.0140924821548327
648,0.0138582074176305
649,0.0140753555155082
650,0.0138881601443331
651,0.0139596597367521
652,0.0137701276791042
653,0.0134750668053912
654,0.0132114086263536
655,0.0133007085499217
656,0.0131069539965033
657,0.013200876202583
658,0.0133243474760049
659,0.013638892750122
660,0.013721939055824
661,0.0137263634132434
662,0.0137513715998414
663,0.0136411704572583
664,0.0135281519898563
665,0.01354485401744
666,0.0135632074788077
667,0.0135767166019005
668,0.013570170249248
669,0.0133156498218151
670,0.0133659857196347
671,0.0133011124047546
672,0.0132440659624414
673,0.0132766660329134
674,0.0133147360350074
675,0.0132797156566028
676,0.0132195063111555
677,0.0132964473872294
678,0.0131343823762219
679,0.013096220396927
680,0.0133847617596714
681,0.0131420626974803
682,0.0128250240372713
683,0.0125310588833294
684,0.0120287320963281
685,0.0116231729335756
686,0.0112987854576184
687,0.0110352696000332
688,0.0109404665234738
689,0.0111113145607684
690,0.0113938895721697
691,0.0117835300039274
692,0.0119587842240944
693,0.0120618916311657
694,0.0123266539057591
695,0.0123164185904995
696,0.0125269215001359
697,0.0125089093753667
698,0.0123714708509738
699,0.012390201027743
700,0.0125882407874133
701,0.0124988524108088
702,0.0126439484504081
703,0.0126473408109735
704,0.0128714759249045
705,0.0127757528025714
706,0.0129365796498867
707,0.0130855933012009
708,0.0129991311201568
709,0.013157332772441
710,0.0129369564511764
711,0.0129884511688624
712,0.0130585396188298
713,0.0127066387862918
714,0.0125854312208833
715,0.0121714466295296
716,0.0118429751906473
717,0.0115768610893983
718,0.011496179167168
719,0.0114951579546451
720,0.0115990803899547
721,0.0114843027698099
722,0.0118113478316903
723,0.0117748508841849
724,0.0117623383390218
725,0.0117761611324573
726,0.0117284046514741
727,0.0118706239115667
728,0.011932117525301
729,0.0120459681035331
730,0.0121556122514709
731,0.012346062199377
732,0.0124780587269772
733,0.0127068254983371
734,0.0128230222222204
735,0.0127947982256254
736,0.0128588905041316
737,0.0128344903149514
738,0.0128100901257711
739,0.0127856899365908
740,0.0129008308131521
741,0.0128868449448706
742,0.0128917947808625
743,0.0128967446168544
744,0.0129016944528463
745,0.0128832998186869
746,0.0128404467995219
747,0.0128259674879843
748,0.0126124116460044
749,0.0126924577770132
750,0.012576077546164
751,0.0125281824731738
752,0.0125757295859711
753,0.0123609613348151
754,0.0122143669272966
755,0.0113285493476463
756,0.0104427317679961
757,0.00955691418834578
758,0.00818162105534537
759,0.00691803900520884
760,0.00607017292091812
761,0.00586277613550878
762,0.00613171842330719
763,0.00663815313088596
764,0.00746764203349867
765,0.00825636164564694
766,0.00914005114808654
767,0.0100283401656579
768,0.0104962699977519
769,0.0108372590671261
770,0.011063347955064
771,0.0111726066340415
772,0.0112722698635993
773,0.0113845901114908
774,0.011277345170041
775,0.0112403241372121
776,0.0112821580774349
777,0.0110889795900536
778,0.0111336256535013
779,0.0110505492343204
780,0.0111201916691851
