"wavelength","measurement"
380,0.00228251371324736
381,0.0022777060823121
382,0.00232003314822405
383,0.00231030051129625
384,0.00240133722073271
385,0.00254541450718997
386,0.002688953739696
387,0.00294249889257523
388,0.00313754302871714
389,0.00325904706433066
390,0.0032582093905525
391,0.00330090066243864
392,0.00335670668055382
393,0.0035195427127618
394,0.00360516446109141
395,0.00385548939362503
396,0.00434331997879064
397,0.00488419019025689
398,0.00542506040172314
399,0.00596593061318939
400,0.00623201230309232
401,0.00665431709415842
402,0.00692107458059724
403,0.0070450963959684
404,0.00721738314515877
405,0.00727838732027766
406,0.00747738199011043
407,0.00756379192783705
408,0.00769201679776305
409,0.00789074030206115
410,0.0083536196690199
411,0.00840837605391943
412,0.00868147799393887
413,0.00893655872060439
414,0.00894820100449726
415,0.00907033884051228
416,0.00903242650849131
417,0.0089971503452316
418,0.00917338649117374
419,0.00903772428315643
420,0.0092694674787937
421,0.00927522013183892
422,0.00944745020610685
423,0.00955832371470349
424,0.00966457071845231
425,0.00950343385631074
426,0.0093890135775663
427,0.00917156117418768
428,0.0089389773760348
429,0.00896951108939001
430,0.00899977796596119
431,0.00937431045177148
432,0.0098025540034495
433,0.0101509764851443
434,0.0106092660888913
435,0.0109050602016412
436,0.0110367818231634
437,0.0112494595256307
438,0.011462137228098
439,0.0116748149305653
440,0.0117892364780859
441,0.0120268131433775
442,0.012328933296735
443,0.0125856651314105
444,0.0128350468416815
445,0.0130844285519526
446,0.0133338102622237
447,0.0136160463521832
448,0.0138227486391818
449,0.0142654723402592
450,0.0143008282238103
451,0.014183390338082
452,0.0142051907377862
453,0.0142269911374904
454,0.0142487915371945
455,0.0142124147422723
456,0.0142669317763989
457,0.0145688620002783
458,0.0146728024553521
459,0.0149820785325988
460,0.0150087374889707
461,0.0149150331716569
462,0.015354041093991
463,0.0149858613077713
464,0.0148598823006287
465,0.0147001957229435
466,0.0146120011868594
467,0.0146019937546769
468,0.0144976771409711
469,0.0144150594765731
470,0.0147571785994821
471,0.0147713698015399
472,0.0149141762986054
473,0.0151448162381398
474,0.0151789022325747
475,0.0154708446529829
476,0.0151074642379342
477,0.0151413321972175
478,0.0151752001565009
479,0.0152090681157842
480,0.0151588718405624
481,0.0147906589255618
482,0.0145764940063325
483,0.0145877704752691
484,0.0142715078958356
485,0.01403825886189
486,0.0141648051360623
487,0.0143537232276753
488,0.0145351639230919
489,0.0149517475425139
490,0.0151337044594231
491,0.0152167751554095
492,0.0156659133867715
493,0.0154950250296455
494,0.0157664643159858
495,0.0155386471573511
496,0.0156373528340284
497,0.0153809224800287
498,0.015452110080873
499,0.0151345586782875
500,0.0152838275707914
501,0.0152038022630557
502,0.0155023312143851
503,0.0155998817871171
504,0.0154777560787592
505,0.016013898656728
506,0.0159677999715179
507,0.0160356387643437
508,0.0161563463144791
509,0.0161140580549218
510,0.0158782120137336
511,0.0161543224948774
512,0.0160016678714201
513,0.0155258862203495
514,0.0154568695734648
515,0.0152211158036559
516,0.0151056347955923
517,0.0150915775835842
518,0.0150681046398939
519,0.0153597385787691
520,0.0156739188210795
521,0.0158531473537934
522,0.0160323758865072
523,0.016211604419221
524,0.0161336012266246
525,0.0161533128974006
526,0.016197251485351
527,0.0160819622878987
528,0.0162012963760041
529,0.0164201098027711
530,0.0164053414303057
531,0.0164695386782902
532,0.0164009225237285
533,0.0165570503940359
534,0.0166354936572034
535,0.0164501835081936
536,0.0166570657161876
537,0.016577060512522
538,0.0165527955457007
539,0.0164942062653291
540,0.016692015324254
541,0.0166427720354715
542,0.0166806854339427
543,0.0167944540639454
544,0.0168953103556784
545,0.0167199145774053
546,0.016786145699074
547,0.0166893989119112
548,0.0165926521247484
549,0.0164959053375856
550,0.0163122753777401
551,0.0164149368190191
552,0.0165291659694947
553,0.0163841942165039
554,0.0162677484520473
555,0.0164429879679068
556,0.0162170247171796
557,0.0161925288891423
558,0.0161001523291376
559,0.0159825088727524
560,0.0162007636328985
561,0.0158786295526995
562,0.0161796319065084
563,0.0159138060118319
564,0.0160072718190287
565,0.0158045461728943
566,0.0157520923132214
567,0.0154958151235229
568,0.0156328007646165
569,0.0154664648009317
570,0.0154524679939442
571,0.0154886829494453
572,0.0154712442268365
573,0.0154569012347141
574,0.0155765491357849
575,0.0153337382734025
576,0.0153987264660483
577,0.015463714658694
578,0.0155287028513398
579,0.0155936910439856
580,0.0156586792366314
581,0.0158596777316934
582,0.0157536809943547
583,0.01589061935012
584,0.0156156891672501
585,0.0156227380568731
586,0.0152419047033153
587,0.0151194810310895
588,0.0150041181818339
589,0.0148887553325782
590,0.0147733924833225
591,0.0148111063261417
592,0.0148977861892687
593,0.0148682313741796
594,0.0150096420556244
595,0.0149031089513746
596,0.0149764294761359
597,0.0150042039829678
598,0.014900416362242
599,0.014830586344396
600,0.0148831422687543
601,0.0149775413048874
602,0.0149503980475583
603,0.0148829371929195
604,0.0150212364311852
605,0.0148751307459995
606,0.0149365779277474
607,0.0148758625648596
608,0.0147500897165024
609,0.0148311519900379
610,0.014761637522596
611,0.0146879489607057
612,0.0145456388454312
613,0.0144360755777631
614,0.0141355118573837
615,0.0142496804791997
616,0.0140677182534235
617,0.014171130151078
618,0.0141165204006451
619,0.0141269749703958
620,0.0140430653209834
621,0.0140944872739648
622,0.0138061413423225
623,0.0137972239906244
624,0.0136543023528249
625,0.0135113807150254
626,0.0133684590772259
627,0.0133485037239148
628,0.0132745881866017
629,0.01321889744342
630,0.013320332938752
631,0.013113809558908
632,0.0131689347647198
633,0.0132187367121271
634,0.0132046857498146
635,0.0132452186655276
636,0.0130927197177564
637,0.0132140395867397
638,0.0130840015696537
639,0.0131629962702087
640,0.013063043832817
641,0.0130288185298292
642,0.0129537932029598
643,0.0128911221234814
644,0.012828451044003
645,0.0127657799645246
646,0.0128507338347785
647,0.0128346262229051
648,0.0125915647764889
649,0.0128016800401692
650,0.0126066677236734
651,0.0126699631370811
652,0.0125218860363684
653,0.0122610521977294
654,0.011975699126862
655,0.0120463992795247
656,0.0119279932241474
657,0.0119626550574928
658,0.0120863497589816
659,0.0123373636486597
660,0.0124260542191149
661,0.0124251881841945
662,0.0124453556872651
663,0.0123306231732441
664,0.0122181490755257
665,0.0122764728216485
666,0.0122641202615858
667,0.0122561969899157
668,0.0122496821323316
669,0.0120804938657902
670,0.0120933450143481
671,0.0120194845764404
672,0.0119312446863461
673,0.0119529214498056
674,0.0119841324258183
675,0.0119557761870288
676,0.0118840480382321
677,0.0119771104464501
678,0.0118217451319189
679,0.011787576805458
680,0.0120505774624528
681,0.0117976034820807
682,0.0115397691793779
683,0.0112452669824342
684,0.0108267640053211
685,0.010422899776228
686,0.0101254552114545
687,0.00992566171123187
688,0.00984208330191673
689,0.0100029080785557
690,0.0102024292805607
691,0.0105580759614334
692,0.010707295015434
693,0.0107916374743736
694,0.0110366947958484
695,0.0110051194085156
696,0.0112099799464537
697,0.0112406796179577
698,0.0110745658021463
699,0.0111334588972536
700,0.0112909192687251
701,0.0112323225925878
702,0.0113691372333546
703,0.0113575591202786
704,0.011561598705603
705,0.0114655059610784
706,0.0116425030143382
707,0.0117871745840352
708,0.0117294758924065
709,0.0118162224104697
710,0.011683005520909
711,0.0116926350222352
712,0.0117792579671288
713,0.0114679411938886
714,0.0113464010456753
715,0.0109891828530886
716,0.0107009067707905
717,0.0104584168921682
718,0.0104035735295939
719,0.0104447107148106
720,0.0105332160407563
721,0.0104101609258778
722,0.0107120338039939
723,0.0106873907687475
724,0.0106748459486169
725,0.0106825639997389
726,0.0106465202120332
727,0.0107887200288729
728,0.010821296420571
729,0.0109388949181075
730,0.0110509939580721
731,0.0111910873256031
732,0.0113603183660461
733,0.0115929265406522
734,0.0117248203283325
735,0.0116710312060387
736,0.0117770735636196
737,0.0117511562156577
738,0.0117252388676958
739,0.011699321519734
740,0.0117753133694326
741,0.0117407801626197
742,0.0117616140600623
743,0.0117824479575049
744,0.0118032818549475
745,0.011816496396549
746,0.0116893623853523
747,0.0117671772303332
748,0.0115792529366433
749,0.0116449614304313
750,0.0115062113158424
751,0.0114705268842903
752,0.0115007820411003
753,0.0113575256302877
754,0.0112422887547863
755,0.0104192213166593
756,0.00959615387853222
757,0.00877308644040518
758,0.0075548088776258
759,0.00637160486994613
760,0.00560056087020996
761,0.0054408265471019
762,0.00564708430976019
763,0.00615324458160633
764,0.00691786169301736
765,0.00763064252962868
766,0.00847920023806718
767,0.00923988606686788
768,0.00971773666368417
769,0.00997026504815661
770,0.0102283640644519
771,0.0102925080192692
772,0.0103650381667688
773,0.010447210960326
774,0.0103636611947448
775,0.0103913071745684
776,0.0103821049517743
777,0.0101808199177575
778,0.0102717197622659
779,0.010169812597769
780,0.0102756412901503
