"wavelength","measurement"
380,0.00244308403984024
381,0.00232414824435643
382,0.00238090500606622
383,0.00240314104268143
384,0.002492727118815
385,0.00266164034223538
386,0.00283218215570938
387,0.00307839641002546
388,0.00324930200800722
389,0.00334461800693757
390,0.00336722694660451
391,0.00340196327390286
392,0.00344961290099422
393,0.0035459497129624
394,0.00370886558294051
395,0.00391713200304852
396,0.00445746128115023
397,0.0049809034563868
398,0.00550434563162337
399,0.00602778780685994
400,0.00634236991587093
401,0.00685466871259577
402,0.00711798409254079
403,0.00716143609204287
404,0.00734921669972573
405,0.00742982248892387
406,0.00761795656829271
407,0.00774220340182914
408,0.00787757524096366
409,0.00804546868200932
410,0.00850915383471217
411,0.00857686848057248
412,0.00884865663948742
413,0.00906197554929341
414,0.0091132776002786
415,0.00921397452866806
416,0.00922593770664453
417,0.00918401381099602
418,0.00942972708101485
419,0.00924188586679686
420,0.00947477643126539
421,0.00947320694428816
422,0.00959127091843485
423,0.00966692961934276
424,0.009806043047056
425,0.00961669054605997
426,0.00955240415426352
427,0.00933193005434454
428,0.00908470307096433
429,0.00912570652490488
430,0.00914293631364899
431,0.00951096120372163
432,0.00990975416230695
433,0.0103432811943166
434,0.010749035976147
435,0.0110630204831064
436,0.0111588977768273
437,0.0113990262055949
438,0.0116391546343625
439,0.0118792830631301
440,0.0119089963843025
441,0.0122046246573319
442,0.0125142421215257
443,0.0127783530267382
444,0.0130319855487607
445,0.0132856180707833
446,0.0135392505928058
447,0.0138350536623045
448,0.0139429552309738
449,0.0145196889839814
450,0.0144913483803156
451,0.0144397615828156
452,0.0144343798514675
453,0.0144289981201194
454,0.0144236163887713
455,0.0144115839577156
456,0.0145075945783929
457,0.0147488193567034
458,0.0148340296724973
459,0.0151439495024851
460,0.0152331477238843
461,0.0150930767869398
462,0.0155772087109433
463,0.0151043643633979
464,0.0150150124786314
465,0.0149243880891573
466,0.0147681309333191
467,0.0147858464720768
468,0.0146338374146422
469,0.0145300153232175
470,0.0149508912440714
471,0.0149427394088118
472,0.015077709201589
473,0.0152805385847761
474,0.0153473289701726
475,0.0155936831862543
476,0.0152772047566366
477,0.0153084634006706
478,0.0153397220447047
479,0.0153709806887388
480,0.0153092121916215
481,0.0149225099972101
482,0.0146829978612046
483,0.0147342132757182
484,0.0144008058528709
485,0.0141679115398234
486,0.0143170833142506
487,0.0144679477361715
488,0.0146674003705309
489,0.0150791186205959
490,0.0152401207288881
491,0.0153661914804251
492,0.0157754126625618
493,0.0156158928912601
494,0.0158709099137941
495,0.0157190380615406
496,0.0157752998500016
497,0.0155384010417556
498,0.0156406289108291
499,0.015289957086599
500,0.0154160990523932
501,0.0153331221164427
502,0.0156509417536566
503,0.0157382054203403
504,0.0156172796320579
505,0.0161352394795403
506,0.016111270342218
507,0.016172416515134
508,0.0163254408908051
509,0.0162614774326586
510,0.0160486751120434
511,0.0162978311841931
512,0.0160903480959744
513,0.0156671877574096
514,0.0155652696523977
515,0.0153066692291814
516,0.0152339649338806
517,0.0152161842472587
518,0.0151678118671853
519,0.0154464481316665
520,0.0158350409357363
521,0.0160080771801776
522,0.0161811134246188
523,0.0163541496690601
524,0.0162130587078252
525,0.0162838501879444
526,0.0163296806206853
527,0.0162184860410088
528,0.0163717156816105
529,0.0164910539824145
530,0.0165443920224067
531,0.0165877789776958
532,0.0165163250559484
533,0.0166904254517655
534,0.0167537339566091
535,0.0165684238075993
536,0.0167768037260524
537,0.0167041633602952
538,0.0166421239022665
539,0.0166110933701971
540,0.0167837172453486
541,0.0167875331961068
542,0.016785218617158
543,0.0169376562043367
544,0.0170089173870555
545,0.0168147969435904
546,0.0169144626995512
547,0.0168015607840733
548,0.0166886588685954
549,0.0165757569531175
550,0.0164574481897881
551,0.0165455923498624
552,0.0166341283212042
553,0.0164712979037328
554,0.0164032430766255
555,0.0165455285831136
556,0.0163133686648435
557,0.0162915551398945
558,0.0161969035489438
559,0.0160822905476398
560,0.0162487166432131
561,0.0159893024729432
562,0.0162283206342415
563,0.0160008308721945
564,0.0160750541654806
565,0.0158830577316996
566,0.0157998263600185
567,0.0156093258109523
568,0.0157330422628904
569,0.015544748637679
570,0.0155565194574212
571,0.0155623860694082
572,0.0155425496962836
573,0.0155426648652163
574,0.015607576266203
575,0.0154463030384366
576,0.0154991895554018
577,0.0155520760723669
578,0.0156049625893321
579,0.0156578491062972
580,0.0157107356232623
581,0.0158809609855864
582,0.0158157965649758
583,0.0159189970219774
584,0.015685231980382
585,0.0156984118484927
586,0.0153364969428399
587,0.0152297160242984
588,0.0150991614862043
589,0.0149686069481101
590,0.014838052410016
591,0.0148903141889325
592,0.0149989473343157
593,0.0149669050936688
594,0.0150531938992388
595,0.0150100507332815
596,0.0150551775155401
597,0.0150546531773809
598,0.0149558316492302
599,0.0149005846016442
600,0.0149470183060554
601,0.0150036724110561
602,0.0150026602598956
603,0.0149070625932686
604,0.0150406803915319
605,0.0149281199172147
606,0.0149741520673363
607,0.0149673893151403
608,0.0148435433457364
609,0.0148989868877339
610,0.0148466041258948
611,0.0147581158198622
612,0.0146049429244886
613,0.0144749634984565
614,0.0141843407217679
615,0.0143070051280597
616,0.0141498208139145
617,0.0142068704712085
618,0.0141420252711539
619,0.0141764169326288
620,0.0141159801722835
621,0.014165283653234
622,0.013844740231173
623,0.013856869652769
624,0.0137047281911294
625,0.0135525867294899
626,0.0134004452678503
627,0.0133875613413342
628,0.0133194056393468
629,0.0132416587010556
630,0.0133583931773495
631,0.0131749266558897
632,0.0132058257381344
633,0.0132259099569577
634,0.0132511936009142
635,0.0132609840387817
636,0.0131782293505784
637,0.0132384452603911
638,0.0131146695999033
639,0.013179116364361
640,0.0131211392332583
641,0.0130776123600506
642,0.0129795268903443
643,0.0129228170926276
644,0.0128661072949109
645,0.0128093974971943
646,0.0129279841637235
647,0.0128788743705049
648,0.0126070849106034
649,0.0128205897295334
650,0.0126443469657507
651,0.0127279008837898
652,0.0125408701733286
653,0.0122707741779028
654,0.0120235295176068
655,0.012079037981431
656,0.0119336424828968
657,0.0120136954534029
658,0.0120998554287359
659,0.0123636524085609
660,0.0124581805463905
661,0.0124574371310398
662,0.0124944911005737
663,0.0123851669854328
664,0.0122193927883047
665,0.0122963065370562
666,0.012299460973297
667,0.0123096021918139
668,0.0123032844013955
669,0.0120207168255351
670,0.0120849674701717
671,0.0120086590201393
672,0.0119723310007544
673,0.0119942092106499
674,0.0120115685545508
675,0.0119692030299169
676,0.0119208601847804
677,0.011995639139294
678,0.0118748481641631
679,0.0118061668080868
680,0.012038008956553
681,0.0118349148654487
682,0.0115572512266086
683,0.0112615491095894
684,0.0108355794765324
685,0.0104519693728004
686,0.0101476033712414
687,0.00992550405749932
688,0.009826712062994
689,0.010004169308416
690,0.0102165962201376
691,0.010578938805373
692,0.0107202576556651
693,0.0108307881512879
694,0.0110406580355137
695,0.011056352492321
696,0.0112245059861992
697,0.0112326918288423
698,0.011099943673815
699,0.0111065920736664
700,0.0113208822364486
701,0.0112228502308244
702,0.011351970493589
703,0.0113601516483249
704,0.0115410292727768
705,0.0114655059610784
706,0.0116150011965505
707,0.0117593224246197
708,0.0117016587671537
709,0.0118442847748619
710,0.0116776518629081
711,0.0117137737602067
712,0.011780668092181
713,0.0114198918396264
714,0.0113735919352682
715,0.0109648647648442
716,0.0106809460565427
717,0.010464285114435
718,0.0103803633967476
719,0.0103493521029752
720,0.0104743586472744
721,0.0103589672555055
722,0.0106496554771519
723,0.0106709685049411
724,0.0106246102436333
725,0.0106388150889588
726,0.0106147792605483
727,0.0107238630350137
728,0.0107813749920753
729,0.0109188553769935
730,0.0110309763133097
731,0.0112004677226893
732,0.0113477761357684
733,0.0115677019434456
734,0.0116217760970357
735,0.0116311798458687
736,0.0117049469809821
737,0.0116922053977417
738,0.0116794638145012
739,0.0116667222312608
740,0.0117835113635247
741,0.0117030001973245
742,0.011721428415589
743,0.0117398566338536
744,0.0117582848521182
745,0.0117394124798772
746,0.0117274291928554
747,0.0116720594783669
748,0.0115007764120007
749,0.0115744420400117
750,0.0114629660211524
751,0.0114095236483377
752,0.0115358162038871
753,0.0112408268340447
754,0.0111819599264673
755,0.0103613842931685
756,0.00954080865986968
757,0.00872023302657085
758,0.00751655157186255
759,0.00634853706338616
760,0.0055746093141256
761,0.00538501712578243
762,0.0055830768943486
763,0.00610094514547106
764,0.00685869775061105
765,0.00759798193137062
766,0.00837636621174705
767,0.00916088402978351
768,0.00960934972256232
769,0.00995042695347855
770,0.0101194253352661
771,0.0102541543695583
772,0.0103487823152357
773,0.010447210960326
774,0.0103408232998781
775,0.0103371793930626
776,0.0103046487971229
777,0.010187099791437
778,0.010203534522942
779,0.0100934030887309
780,0.0101570900625499
