"wavelength","measurement"
380,0.00252119128752281
381,0.00245117407294878
382,0.00252944447278173
383,0.00253833347264671
384,0.0026071634190998
385,0.00283981448193493
386,0.00295938976425032
387,0.0032232796340225
388,0.00343255936425157
389,0.00356603731264569
390,0.00357299729850642
391,0.00361052688248837
392,0.00368615082162271
393,0.00376976145965966
394,0.00398453914787601
395,0.0042035667399403
396,0.00473132170212354
397,0.00531040909758596
398,0.00588949649304837
399,0.00646858388851079
400,0.00681025407825657
401,0.00730331042650832
402,0.00763223058918991
403,0.00773302941357872
404,0.00793199415839177
405,0.00792673076575909
406,0.00816471879391852
407,0.00829070765340792
408,0.00844654539628928
409,0.0086455666885161
410,0.00911731886342631
411,0.00924270577989552
412,0.00951125356077425
413,0.00979266116473959
414,0.00978424155345939
415,0.0099477150554244
416,0.00990078324942502
417,0.00987932618396535
418,0.0100632387429497
419,0.00987759094086987
420,0.0101797787896872
421,0.010170561194077
422,0.010309701175733
423,0.0104554182383825
424,0.0105140685866301
425,0.0103476221135228
426,0.0103009022918605
427,0.0100385331961639
428,0.00971488621385077
429,0.00977441116816576
430,0.00979921343982595
431,0.0102465480185069
432,0.0106837116829551
433,0.0110699175588729
434,0.0116068532453541
435,0.0119273678733249
436,0.0120882155826993
437,0.012310516138922
438,0.0125328166951448
439,0.0127551172513675
440,0.0128839835664123
441,0.0131622888265418
442,0.0135324368381894
443,0.0137692441688076
444,0.0140524014000232
445,0.0143355586312388
446,0.0146187158624545
447,0.0149104478021935
448,0.015066449588951
449,0.0156557560336364
450,0.0156524086379367
451,0.015582417392055
452,0.0155894527576201
453,0.0155964881231852
454,0.0156035234887503
455,0.0156322910233243
456,0.0156521166929357
457,0.0159664397408404
458,0.0160654648109323
459,0.0164243095232733
460,0.0164942090820598
461,0.0163404732704743
462,0.016843879720901
463,0.0163978353767828
464,0.0162674402654785
465,0.0161830326277625
466,0.0160259670961044
467,0.0160020827821107
468,0.0158873206161813
469,0.0157968309994691
470,0.0161652871690682
471,0.0162178021317456
472,0.0163403266627825
473,0.0165741636822185
474,0.0166823977921764
475,0.0169811815371183
476,0.0165434664069984
477,0.01658820177163
478,0.0166329371362616
479,0.0166776725008932
480,0.0166601931920775
481,0.0162131387182575
482,0.0160323744427428
483,0.0159656480606103
484,0.0156469414499709
485,0.0153958930498716
486,0.015575720789844
487,0.0157225431865452
488,0.0159345049442996
489,0.0163677721136721
490,0.016555860579837
491,0.0166912694453003
492,0.0171358773631504
493,0.0169730272237791
494,0.0172567847042911
495,0.0170626235375203
496,0.0171389001867581
497,0.0168617175605461
498,0.0169865538598596
499,0.0166118013279908
500,0.0167653084095197
501,0.0166308080451604
502,0.0170022941193476
503,0.0170970484083128
504,0.0169688618326493
505,0.0175672983440043
506,0.0174702139342846
507,0.0175747540687483
508,0.0176815512452431
509,0.0176767161601159
510,0.0173842957600616
511,0.0176752996047212
512,0.0175070814797693
513,0.0170026093998299
514,0.0169144505407128
515,0.0166262292113488
516,0.0165243117023706
517,0.0165195502307433
518,0.0165093847025472
519,0.0167820022018613
520,0.0171326922344047
521,0.0173317016468563
522,0.0175307110593079
523,0.0177297204717594
524,0.0176237296908631
525,0.0176826246212483
526,0.0177027741548422
527,0.0176137305333703
528,0.017717173239685
529,0.017916335764914
530,0.0179578108179866
531,0.0179746432707224
532,0.0179195938420171
533,0.0180958740201269
534,0.0181752371065312
535,0.0179833028029025
536,0.0182179475478244
537,0.0181218493409475
538,0.0180510749718407
539,0.0180327039740293
540,0.0181937221701658
541,0.0181925920080406
542,0.0181875665630135
543,0.0183639663077018
544,0.0184276874662165
545,0.0182608916820464
546,0.0183444080292458
547,0.018220179616544
548,0.0180959512038421
549,0.0179717227911403
550,0.0178782360813823
551,0.0179624315968108
552,0.0180491360430921
553,0.0178798734460665
554,0.0178095622372832
555,0.0179654744136856
556,0.0177139727659292
557,0.0177153236149456
558,0.0175800277769053
559,0.0174509491783474
560,0.0176490292723898
561,0.0173776193822187
562,0.0176630369734763
563,0.0173953749798243
564,0.0174780139136109
565,0.0172583950542654
566,0.0171642573119691
567,0.0170036370675886
568,0.0171197124893162
569,0.0169274325115299
570,0.016924865646314
571,0.0169341211240708
572,0.0169451464618092
573,0.0169267155027895
574,0.0170215792991517
575,0.0168270195542907
576,0.0168773315642536
577,0.0169276435742164
578,0.0169779555841793
579,0.0170282675941422
580,0.0170785796041051
581,0.0172946730651375
582,0.0172247611824745
583,0.0173360813337054
584,0.0170742248407089
585,0.017097017785337
586,0.0166751060908608
587,0.0165446800011116
588,0.016413246817664
589,0.0162818136342164
590,0.0161503804507687
591,0.0162259720188541
592,0.0163227453498128
593,0.016331737749454
594,0.0164335529710822
595,0.0163474937357394
596,0.0164093248506391
597,0.0163828469677741
598,0.0163009767159645
599,0.0162585177938269
600,0.016320792329611
601,0.0163540084504862
602,0.016384026081261
603,0.0162842847991007
604,0.0164028415393312
605,0.0163114776530965
606,0.0163204956975452
607,0.0163060453613275
608,0.0161851996624084
609,0.0162442098711331
610,0.0161839274113345
611,0.0161019900249287
612,0.015929379388291
613,0.015798297420068
614,0.0155181515820429
615,0.0155825966713613
616,0.015403650932842
617,0.0155210614567192
618,0.0154455235850074
619,0.0154683465409081
620,0.0153931357744415
621,0.0154947090085903
622,0.0151267338797856
623,0.0151247474675044
624,0.0149721188107364
625,0.0148194901539685
626,0.0146668614972006
627,0.0146208550301529
628,0.0145669145387576
629,0.0144960093837161
630,0.0146174626745004
631,0.0143713993623365
632,0.014430848434904
633,0.0144728448648112
634,0.0144654033619766
635,0.0145251097592171
636,0.0143981260170792
637,0.0144897093545358
638,0.0143637168519183
639,0.0144361085548743
640,0.0143312650730252
641,0.0142927288967938
642,0.014204748725959
643,0.0141435301557345
644,0.01408231158551
645,0.0140210930152854
646,0.0141250565916498
647,0.0141001189819582
648,0.0138241328492435
649,0.0140567371054001
650,0.013842406740565
651,0.0139118820747399
652,0.0137484411128108
653,0.0134347471093733
654,0.0131652508914032
655,0.0132413345543069
656,0.0130659904885287
657,0.0131558514144784
658,0.0132523299081316
659,0.013552316739821
660,0.0136490069310937
661,0.0136538783110903
662,0.0136531377707924
663,0.0135451799711744
664,0.0134504374285783
665,0.0134593721064415
666,0.0134767072061195
667,0.0134802829327631
668,0.0134517783807596
669,0.0131881552526455
670,0.013251598026046
671,0.0131690222115734
672,0.0131241827832487
673,0.0131259794124568
674,0.0131619712642591
675,0.0131071402369249
676,0.0130604646982958
677,0.0131303755995993
678,0.0129579753760508
679,0.0128877356409321
680,0.0132094622947178
681,0.0129429278289567
682,0.0126039480640121
683,0.0123160771096524
684,0.0118370127689485
685,0.0114265501762395
686,0.0110785315455433
687,0.0108282501388765
688,0.0107321346905027
689,0.0108902875999672
690,0.0111443288482434
691,0.0115379650778464
692,0.0116896203674317
693,0.0118197538043029
694,0.0120620087759237
695,0.0120594720324245
696,0.0122371551104171
697,0.0122502923900319
698,0.012081350699052
699,0.0121126622125374
700,0.0123119008509017
701,0.0122189043080513
702,0.0123622734106445
703,0.0123307562920597
704,0.0125548882788702
705,0.0124772142881832
706,0.01267647241393
707,0.0127550266152119
708,0.0126949314060608
709,0.012825783943376
710,0.012618443965735
711,0.0126822046985801
712,0.0127483537924962
713,0.0123836832206474
714,0.0123032410962427
715,0.0118689037148012
716,0.0115326000760538
717,0.0113080455549202
718,0.0112251082526524
719,0.0112395642601592
720,0.0113357833505725
721,0.0112037544876633
722,0.0114843736591742
723,0.0114873736843212
724,0.0114691258534204
725,0.0114772460675186
726,0.0114296981647538
727,0.0115721852403595
728,0.0116228031835298
729,0.0117553338699252
730,0.0118556998049782
731,0.0120472997329513
732,0.012171396924665
733,0.0124254126161149
734,0.0125017443463674
735,0.0124815380023836
736,0.0125749954401836
737,0.0125469409634261
738,0.0125188864866687
739,0.0124908320099112
740,0.012614782536173
741,0.0125904174412543
742,0.0125872724037753
743,0.0125841273662963
744,0.0125809823288172
745,0.0126131088714412
746,0.0125283862214956
747,0.012540666558234
748,0.0123211634634703
749,0.0123876024291484
750,0.0123091692628029
751,0.0122094811599094
752,0.0123368702430004
753,0.0120940324929248
754,0.0119612141679897
755,0.0110877616681825
756,0.0102143091683753
757,0.00934085666856808
758,0.00797839731276611
759,0.00675936439480239
760,0.0059479486369707
761,0.00571494121349688
762,0.00597807867509415
763,0.00649815998159793
764,0.00730144547785641
765,0.00806444476301811
766,0.00893690579523522
767,0.0097866019825745
768,0.0102647337185489
769,0.0105893650232151
770,0.0108141300277836
771,0.0109244669310291
772,0.0110088320304675
773,0.0110972161648645
774,0.0110000504872816
775,0.0109750426948147
776,0.0109966707390073
777,0.0108332591243583
778,0.0108701938408139
779,0.010737380811413
780,0.0108524442742444
