"wavelength","measurement"
380,0.0136281749966735
381,0.0130513015268771
382,0.0129854885628694
383,0.0126807404769813
384,0.012547451716841
385,0.0131841543281142
386,0.0137159410406415
387,0.0142399302754124
388,0.0149189824432461
389,0.0154370524995684
390,0.0152739968491802
391,0.0152031326807386
392,0.0150926619333493
393,0.0153833999577653
394,0.0156976858434764
395,0.0164230835605133
396,0.0182584809451223
397,0.0202126175735756
398,0.0221667542020289
399,0.0241208908304822
400,0.0256398769139926
401,0.0270391668788463
402,0.0282082649548726
403,0.0285223895801581
404,0.0286305555833545
405,0.0286962918116594
406,0.0294349630077291
407,0.0296203531726693
408,0.0297953619214475
409,0.0305653099269618
410,0.0316816275790753
411,0.0315877362022173
412,0.0322681178332447
413,0.0332775269184089
414,0.0329903312896627
415,0.0334102254596391
416,0.0328460414009313
417,0.0325926386365562
418,0.0329814206689244
419,0.0321488059247233
420,0.0327829698927147
421,0.0324465750684083
422,0.0325555909554771
423,0.0324289638676149
424,0.0326560496387787
425,0.0317108003585049
426,0.0312538405619185
427,0.0305655034957355
428,0.029273483011437
429,0.0291032451556672
430,0.0288086170137632
431,0.0298930948631332
432,0.0308386177670149
433,0.0317603797915523
434,0.032957218835355
435,0.033401939702764
436,0.0337669214294262
437,0.0341427258916548
438,0.0345185303538835
439,0.0348943348161121
440,0.0349985598052369
441,0.0352841422847357
442,0.0360916124654864
443,0.0362833854764777
444,0.0367144820259385
445,0.0371455785753994
446,0.0375766751248602
447,0.0381139950796466
448,0.0380696539702886
449,0.0395420438075949
450,0.0391197204659834
451,0.0387126532493907
452,0.0384977218922617
453,0.0382827905351327
454,0.0380678591780037
455,0.0380475444191544
456,0.0380026124033257
457,0.0378958826183457
458,0.0381966260199317
459,0.0384571880839906
460,0.0385695676826499
461,0.0380030774510009
462,0.0391208923115037
463,0.0379079934881448
464,0.0375046636720447
465,0.0370067027106463
466,0.0364927142787368
467,0.0364258776024018
468,0.0357786568840858
469,0.0356091612115286
470,0.0362736961283282
471,0.0360986598975632
472,0.0363416017775164
473,0.036748524150776
474,0.0366987097065312
475,0.0372340941508329
476,0.0364163645998129
477,0.0364160014556625
478,0.0364156383115121
479,0.0364152751673618
480,0.0362936178125034
481,0.035329237581268
482,0.0347011111608776
483,0.0344073494040885
484,0.0336107167304852
485,0.0326036694548393
486,0.032882270428246
487,0.0330692834167105
488,0.0333042759994138
489,0.034134971369884
490,0.0341739749720593
491,0.034431103646497
492,0.0351879408946946
493,0.0347349931093371
494,0.0351953199740343
495,0.0347377329758643
496,0.0348496631659284
497,0.034200691987685
498,0.0342648838989599
499,0.0335683283790401
500,0.0336730691130728
501,0.0333116033419878
502,0.0337227421121185
503,0.0338549631828229
504,0.03349472141734
505,0.0347561546710908
506,0.034405290818924
507,0.0345320369208259
508,0.0347094410107892
509,0.0346959218040833
510,0.0341696808965758
511,0.0346671316802328
512,0.0343075987091746
513,0.0335296576071362
514,0.0331819000843603
515,0.0326426593501872
516,0.0324904947707716
517,0.0324112682477916
518,0.0324296384979005
519,0.0329737747084018
520,0.0337360086475337
521,0.0341592237498807
522,0.0345824388522277
523,0.0350056539545747
524,0.034984002178666
525,0.0350540341041036
526,0.0352574286342813
527,0.0350926668005285
528,0.0353167687858119
529,0.0358629891845719
530,0.0358494709917583
531,0.0360268986933453
532,0.035931827068384
533,0.0361734796410546
534,0.0363776288164374
535,0.0359145174556129
536,0.0362684756155485
537,0.0360195049328157
538,0.0358029061084371
539,0.0355383682719482
540,0.0357218564404029
541,0.0354887851426072
542,0.0351290459299552
543,0.0353004609457572
544,0.0357080000188913
545,0.0352839038828673
546,0.0356234231710318
547,0.0355766841702692
548,0.0355299451695066
549,0.0354832061687439
550,0.0352528002519222
551,0.035395936709376
552,0.035700666827504
553,0.0352588918240602
554,0.0352325857349734
555,0.0353424936446869
556,0.0347909513305089
557,0.0347135338463815
558,0.0344201713836786
559,0.0341327503609607
560,0.0343452268568026
561,0.0337662625833835
562,0.0342593375257686
563,0.0336465725269289
564,0.0337453731024644
565,0.0331991546393156
566,0.0328278558145745
567,0.032343174925874
568,0.0324829028951268
569,0.0320852889829465
570,0.0319883135873243
571,0.0319160066696679
572,0.0318086555443166
573,0.0317436768665035
574,0.0318470073387132
575,0.0313363431095408
576,0.0313646369876674
577,0.0313929308657941
578,0.0314212247439207
579,0.0314495186220473
580,0.0314778125001739
581,0.0317508115923273
582,0.0316186555216662
583,0.0317851348550846
584,0.0312274087472255
585,0.0310447016424643
586,0.0301336672198417
587,0.0297647400964871
588,0.0294287602497041
589,0.0290927804029212
590,0.0287568005561383
591,0.0288318771948506
592,0.0290961705559133
593,0.0291484938158383
594,0.0295125426471908
595,0.0295122914602696
596,0.029753786764229
597,0.0297811771342755
598,0.0298147370874153
599,0.0297483510145914
600,0.0300478921590147
601,0.0301264456617915
602,0.0302914464485553
603,0.0301337252818752
604,0.0304073415952248
605,0.030026076997064
606,0.0301799454652405
607,0.0299722856330927
608,0.0296354519296457
609,0.0295823047613803
610,0.0292323698498255
611,0.0290713594629754
612,0.028760859699377
613,0.0286846602441189
614,0.0282610333555285
615,0.0285689379912631
616,0.0282066921394882
617,0.0283631826067253
618,0.0283429293393832
619,0.0283641095364184
620,0.0283528520069799
621,0.0283392099425602
622,0.0279524491186059
623,0.0277992128805886
624,0.0276296110417649
625,0.0274600092029412
626,0.0272904073641175
627,0.0272773120029953
628,0.0270974976222254
629,0.0271159538481664
630,0.027276732201979
631,0.0269843276059313
632,0.0269852563762283
633,0.0271820703422843
634,0.0272370964485908
635,0.0273509884747285
636,0.0270520668364013
637,0.0272539231839785
638,0.0271162336251453
639,0.0271275504810112
640,0.0270411630982483
641,0.0268216817031523
642,0.0267021808407466
643,0.0264807969606812
644,0.0262594130806158
645,0.0260380292005504
646,0.0261429337991826
647,0.0259536851322948
648,0.0254385728136084
649,0.025983068794329
650,0.0256536918888659
651,0.0258208737479036
652,0.0255969434036342
653,0.0251580120600722
654,0.0246420023278605
655,0.0249441733855308
656,0.0247109802151442
657,0.0247655934097556
658,0.0249609722208093
659,0.0255786263992828
660,0.0259084249848684
661,0.0259357354367088
662,0.0260125558155407
663,0.025794346399129
664,0.0256870091654397
665,0.0257796694728794
666,0.0256694833995388
667,0.0256699217223297
668,0.0258634544997603
669,0.0254449435057577
670,0.0255508611113035
671,0.0253894925971048
672,0.0253927224992862
673,0.0253329492342424
674,0.0253754771694243
675,0.0254500082509006
676,0.0254889478267252
677,0.0256738609242237
678,0.0252331901556108
679,0.0252254683487345
680,0.0258452991181863
681,0.0254881792985035
682,0.0250619664689043
683,0.0245857682637689
684,0.0239442205280422
685,0.0234470007021254
686,0.0229404338115035
687,0.0227225658397118
688,0.0225617600898167
689,0.0228532781088553
690,0.0233410739903942
691,0.0240293750287675
692,0.0242959933563198
693,0.0247655905414565
694,0.0255571026848776
695,0.0257187376202675
696,0.0266266586687935
697,0.0272058750570442
698,0.027277838798316
699,0.027882227819796
700,0.0287595729004516
701,0.0289329473237901
702,0.0300017731108712
703,0.0304919423660153
704,0.0314348026301949
705,0.0321795219629422
706,0.033226622668282
707,0.0342222946920308
708,0.034682180396619
709,0.0358156473917398
710,0.0359991815376475
711,0.0365893666529829
712,0.0373796478131291
713,0.0367626811143704
714,0.0368032458251751
715,0.0355216202193596
716,0.034862726414499
717,0.0343555129105177
718,0.0346715318386518
719,0.0355129952857974
720,0.0366821453306719
721,0.0368995251233301
722,0.0386901351905326
723,0.0392515812324344
724,0.0396469997645914
725,0.0406874237186029
726,0.0411936627305219
727,0.0425097922763898
728,0.0435997726352002
729,0.0454366019365473
730,0.0470046510703981
731,0.0490701596111469
732,0.0512605046758932
733,0.053112216566649
734,0.0548956366308576
735,0.055798607542221
736,0.0571618460843281
737,0.0582152033279803
738,0.0592685605716326
739,0.0603219178152848
740,0.0618226152547276
741,0.062721820709672
742,0.06365120069494
743,0.0645805806802079
744,0.0655099606654759
745,0.0660961725661566
746,0.0665272847697565
747,0.067404658462825
748,0.0672492877948096
749,0.0676967825228619
750,0.0681771636699092
751,0.0683853569015798
752,0.0693905255995422
753,0.0688816140375773
754,0.0685210779223003
755,0.0646644840492763
756,0.0608078901762523
757,0.0569512963032283
758,0.0501191077798681
759,0.0443653094884974
760,0.0398934055914225
761,0.0391923698147957
762,0.0405834460866531
763,0.0435963666382699
764,0.0477085476047581
765,0.0517218493191638
766,0.0568042140964086
767,0.0614328220220324
768,0.0642810654555551
769,0.0663383327717084
770,0.0680406425710564
771,0.0687048264795681
772,0.0696546063656656
773,0.07084676122183
774,0.0702142462167934
775,0.0704353949976926
776,0.0707738088405243
777,0.070109557810973
778,0.0710987085055928
779,0.0705005253472633
780,0.0714007783926
