"wavelength","measurement"
380,0.00590689085343458
381,0.00573092997194387
382,0.00559284789197719
383,0.00561306296832164
384,0.00550595744749672
385,0.00592254424238017
386,0.00608140970473236
387,0.00647179641211369
388,0.00668327206559859
389,0.0069741214871152
390,0.00688984142405511
391,0.0068732501040887
392,0.00680313727491302
393,0.0069976491690243
394,0.00721301795444773
395,0.00755913063869529
396,0.00849289573025632
397,0.00948252796373038
398,0.0104721601972044
399,0.0114617924306785
400,0.0120002321144006
401,0.0126883092414477
402,0.0131771924906727
403,0.0134372098657964
404,0.0135479308689979
405,0.0135511769593309
406,0.013853554354235
407,0.0141056274241825
408,0.0143450027905648
409,0.0146371042035879
410,0.0151589036390512
411,0.0153007516400387
412,0.015787311670252
413,0.0159729058867027
414,0.0160388595171229
415,0.0163683511318794
416,0.0161005151689271
417,0.0160381329584996
418,0.0161139629796045
419,0.0158878855374937
420,0.0162182174794587
421,0.0162889230370984
422,0.0164582488073508
423,0.0164818760582794
424,0.0165647775940507
425,0.0162445099518901
426,0.0161434166700223
427,0.0157209899396075
428,0.0151939904045529
429,0.0151261261742121
430,0.015249769341987
431,0.0158861838456661
432,0.016321275327129
433,0.01693127378942
434,0.0176175477101819
435,0.0180774955946033
436,0.0181985969810222
437,0.0185435493434016
438,0.018888501705781
439,0.0192334540681603
440,0.0193947756689064
441,0.0197190790660946
442,0.0202861080934085
443,0.0204355546950214
444,0.0208083646127336
445,0.0211811745304457
446,0.0215539844481579
447,0.0219977076266865
448,0.0221445291474477
449,0.0230341423600845
450,0.0228115734115953
451,0.0226598080878746
452,0.0226264179027436
453,0.0225930277176127
454,0.0225596375324817
455,0.0226962507190331
456,0.0226842951921476
457,0.0228020325657648
458,0.0230468597625823
459,0.0232857567595088
460,0.0233412767554979
461,0.0230377497239555
462,0.023777444377397
463,0.0230389848180848
464,0.0228621075884003
465,0.0226282482069676
466,0.0223519782640902
467,0.0222933892310726
468,0.0221745075403319
469,0.0219791599579331
470,0.0224095240278033
471,0.0224194991321315
472,0.0225707369025337
473,0.0228368145817758
474,0.0228733416937361
475,0.023205959585901
476,0.0227012731171178
477,0.0227398848248447
478,0.0227784965325717
479,0.0228171082402987
480,0.0227172887958819
481,0.0222701476169456
482,0.0218397998904597
483,0.021789114510738
484,0.0211417330247208
485,0.0207338542233711
486,0.0209637369721917
487,0.0211822941263872
488,0.0213462735377342
489,0.0218997560980742
490,0.02212020255069
491,0.0223374774829415
492,0.0228650722135552
493,0.022615721647723
494,0.0229993923417422
495,0.022812028069863
496,0.0228386893943307
497,0.022572305885818
498,0.0226989604926303
499,0.0222661547354328
500,0.0224513855128156
501,0.022313957350814
502,0.0226626786534341
503,0.0228829208390717
504,0.0227222250320548
505,0.0234737461099397
506,0.0233654123146181
507,0.0235623159813326
508,0.0236710129716473
509,0.0237257365889393
510,0.0233726535166795
511,0.023714590122244
512,0.0235282049806367
513,0.0229390507150386
514,0.0228261817245848
515,0.0224858649088569
516,0.0223877775063523
517,0.0223843346819094
518,0.0222870666607096
519,0.0227680825836626
520,0.0232947380593939
521,0.0236062790003782
522,0.0239178199413625
523,0.0242293608823468
524,0.0241767456995504
525,0.0242607109542992
526,0.0244297919783425
527,0.0242686596928343
528,0.0244911366422888
529,0.0249309536808491
530,0.0249903622782928
531,0.0250679934048018
532,0.025003129584713
533,0.0252786599128687
534,0.0253921059247635
535,0.0251037392754091
536,0.0253312615147473
537,0.0252838514582331
538,0.02508588479287
539,0.0250126229839334
540,0.0251942917486027
541,0.0250720034841506
542,0.0249301225786512
543,0.025067799904409
544,0.0252678004692052
545,0.0250669342298651
546,0.0252917229120313
547,0.0252987360268042
548,0.025305749141577
549,0.0253127622563499
550,0.0252217730333691
551,0.0253787733359383
552,0.0255483999112186
553,0.025398414714444
554,0.0253153885014227
555,0.0255998476773268
556,0.0252162565247984
557,0.0252251387822275
558,0.0250411682086032
559,0.0248673768371266
560,0.0251684130133958
561,0.0248174507151381
562,0.0252477919417711
563,0.0249013874904216
564,0.025050280356574
565,0.0247174684505243
566,0.024646259026726
567,0.0243391050125634
568,0.0245642100314158
569,0.0242958893013564
570,0.024305175817182
571,0.0243956264384569
572,0.0243715804776719
573,0.0243521168815095
574,0.0245462062467962
575,0.0242822809344446
576,0.0243580531058018
577,0.024433825277159
578,0.0245095974485162
579,0.0245853696198734
580,0.0246611417912306
581,0.0250095386318978
582,0.0248645916523059
583,0.0250370633581555
584,0.0246582201247616
585,0.0247092456049052
586,0.0240890480421727
587,0.0238022569816222
588,0.0236784965342488
589,0.0235547360868754
590,0.0234309756395019
591,0.0235635336786185
592,0.0238372692161586
593,0.0238825226774347
594,0.0243146275681882
595,0.0243301316723804
596,0.0245138155485138
597,0.0245905128256932
598,0.0247162316258922
599,0.0248078737233023
600,0.0250294466529202
601,0.0251894649790985
602,0.0252432694047416
603,0.0252217599340158
604,0.0255055803695537
605,0.0253026510107709
606,0.0254656794151242
607,0.0253958114482057
608,0.0250989968752208
609,0.0250561746594129
610,0.0249378889685163
611,0.0248318028473867
612,0.0246362518897397
613,0.0245334970895054
614,0.0243745580333101
615,0.0245759324360826
616,0.024377400077605
617,0.0246143889910914
618,0.0245817790437706
619,0.0247024264765407
620,0.0246228510221193
621,0.0248536852414642
622,0.0243329806953739
623,0.0243179545624392
624,0.0242262757361317
625,0.0241345969098241
626,0.0240429180835166
627,0.0240622198227816
628,0.0240328406954119
629,0.0239985015225798
630,0.0242040677977903
631,0.0238677162736095
632,0.0240045153566834
633,0.0241650792705013
634,0.0241540667241439
635,0.0243863968178407
636,0.0240775855633953
637,0.0244128818373365
638,0.0241786514069387
639,0.024342356476819
640,0.0241685466321563
641,0.0241672584677147
642,0.0240446351343585
643,0.0239455190901931
644,0.0238464030460276
645,0.0237472870018621
646,0.0238865787632905
647,0.0237863120204895
648,0.0233055693452995
649,0.0237921583179966
650,0.0234919122766009
651,0.0238033598398745
652,0.0234961928545284
653,0.0231980407215391
654,0.0226767086686807
655,0.0229314342774674
656,0.0226796172228311
657,0.023024486579791
658,0.0231888723601932
659,0.023769371565693
660,0.0240022477924654
661,0.0240597138961296
662,0.0241884230988386
663,0.0240758360257116
664,0.0239584707483103
665,0.0240598634281384
666,0.0240622026379534
667,0.024168000743077
668,0.0242356387845975
669,0.0237522701625584
670,0.0240019170010686
671,0.0239192048157722
672,0.0238185924383325
673,0.0239185919799092
674,0.0238879228675569
675,0.0240088456977072
676,0.0239783601311868
677,0.0242246726298938
678,0.0239890064393279
679,0.023924100538612
680,0.0244462280638007
681,0.0241139802535038
682,0.0236974342649795
683,0.0233372351273987
684,0.0226978704397223
685,0.0221305080501284
686,0.0218704191496859
687,0.0214304248500312
688,0.0214297287898966
689,0.0215241130446453
690,0.0219891235381365
691,0.0225201084744255
692,0.0227588634175073
693,0.0230589510949124
694,0.0235275817628721
695,0.023598956834528
696,0.0241359807649918
697,0.0244528451978975
698,0.0243343873002034
699,0.0245936517067065
700,0.0252240877006286
701,0.0253365052698763
702,0.025980775926586
703,0.0261526736282308
704,0.0268875319973055
705,0.0271431560420106
706,0.027656209949501
707,0.0284503555888671
708,0.0287170573513362
709,0.0292455341531447
710,0.0293850515418659
711,0.0296389977574578
712,0.0301127370174061
713,0.0292982618420264
714,0.0290715354618987
715,0.0281445414741557
716,0.0273414743245093
717,0.0269372231545509
718,0.0269907255685011
719,0.0276364279080466
720,0.0282230689526901
721,0.028384474838711
722,0.029606565076797
723,0.0297863082347046
724,0.0302410833390116
725,0.0306481194955829
726,0.0309465744855995
727,0.031922536656343
728,0.0325570735143124
729,0.0337406861827875
730,0.0347772335013686
731,0.0361195154653738
732,0.037533632864154
733,0.0390100350279237
734,0.0400063627918259
735,0.0405969893383611
736,0.0415868089383705
737,0.0422426138459376
738,0.0428984187535048
739,0.0435542236610719
740,0.0447533952814274
741,0.0452371430892325
742,0.0459076678675956
743,0.0465781926459587
744,0.0472487174243217
745,0.0477819169960864
746,0.047952943885896
747,0.0485667360159911
748,0.0482964712019344
749,0.0487783969415174
750,0.0491177671026399
751,0.0491265646531899
752,0.0500426768808191
753,0.0497945704882449
754,0.0495050836499436
755,0.0466411361982266
756,0.0437771887465097
757,0.0409132412947927
758,0.0360496828660302
759,0.0320732241856424
760,0.029342546886074
761,0.0290243140562356
762,0.0302577824632396
763,0.0323502983498133
764,0.0356246729961567
765,0.0385655116626571
766,0.0421903721657266
767,0.0456510931607784
768,0.0475045966110023
769,0.0490427961294826
770,0.0503527651739172
771,0.0509338924037123
772,0.0514155312600324
773,0.0523462909444704
774,0.0519740135961833
775,0.0522620687650484
776,0.0523782644552031
777,0.0518651566509695
778,0.0527165738167332
779,0.0521569288575777
780,0.0528710882290352
