"wavelength","measurement"
380,0.0922129839616709
381,0.0883675008326701
382,0.086923460100337
383,0.0841566675769771
384,0.0848425010336975
385,0.0872010119512342
386,0.0917606573134685
387,0.095598770297345
388,0.0981704433279747
389,0.101150672168192
390,0.10042040224757
391,0.0991430309097922
392,0.0984044081674207
393,0.098448860558052
394,0.0985655949178142
395,0.103902560741143
396,0.114027119405409
397,0.125215715700524
398,0.136404311995638
399,0.147592908290753
400,0.154869528667639
401,0.162087782782762
402,0.167068133562352
403,0.167506448189657
404,0.166475893450815
405,0.165556008404831
406,0.166574515211617
407,0.167052410279965
408,0.166966795705092
409,0.169600885992991
410,0.174986175950855
411,0.174389901732115
412,0.178914250039517
413,0.181423269768172
414,0.181021509024358
415,0.182474369469486
416,0.179795842192745
417,0.176169241451128
418,0.17998125071471
419,0.175085393481142
420,0.178279441682345
421,0.177479121658089
422,0.17892139338629
423,0.179088313972625
424,0.179561912419499
425,0.176033129145567
426,0.174051324652339
427,0.169843769302949
428,0.16382637578051
429,0.162946294115842
430,0.163527019250346
431,0.168908464438874
432,0.174399420669495
433,0.180750158123238
434,0.187440531856168
435,0.191323702060573
436,0.193049323599669
437,0.196141571119713
438,0.199233818639757
439,0.202326066159801
440,0.203839446139851
441,0.207904569535336
442,0.211901194184559
443,0.2143921032683
444,0.217590838648785
445,0.22078957402927
446,0.223988309409755
447,0.227440821535363
448,0.228736294338664
449,0.237881255171069
450,0.235938999244089
451,0.235462679351742
452,0.234987216724608
453,0.234511754097474
454,0.23403629147034
455,0.23401361926117
456,0.235297703239507
457,0.237258116799119
458,0.239448772176454
459,0.242025245829056
460,0.242667803219419
461,0.240079629577239
462,0.247869313264183
463,0.242032892146451
464,0.239497619852778
465,0.237480051628645
466,0.234122297467284
467,0.234517240806507
468,0.23184060212627
469,0.230657890115928
470,0.235054540966596
471,0.235853699364399
472,0.236954139648773
473,0.24039484572243
474,0.24145909722612
475,0.244975799363992
476,0.240455556181152
477,0.240743469317396
478,0.241031382453639
479,0.241319295589882
480,0.241105227272756
481,0.235638104922572
482,0.231042287925435
483,0.229522263588308
484,0.225152752514588
485,0.219144921871094
486,0.220935135648648
487,0.222899981454856
488,0.224942130841764
489,0.231312554912014
490,0.232804768044022
491,0.235555048759309
492,0.240485255653916
493,0.237650780255851
494,0.242288900538445
495,0.239101132583213
496,0.240770408821604
497,0.236303485041336
498,0.237794215711578
499,0.232681737490686
500,0.234136006310565
501,0.232255992675115
502,0.23663264426917
503,0.237878967881648
504,0.235513706869925
505,0.242688913503427
506,0.241466221904993
507,0.243030891764791
508,0.243989872858333
509,0.244224972806204
510,0.240110394008772
511,0.24270609865693
512,0.241170073481266
513,0.234285585069808
514,0.232910737140249
515,0.228525932150103
516,0.227148875458653
517,0.225904323560153
518,0.225505850499204
519,0.229914163346604
520,0.233981944478873
521,0.236565545563487
522,0.239149146648101
523,0.241732747732715
524,0.24071530313343
525,0.241058448889696
526,0.242177682649112
527,0.240943359622696
528,0.241545003368096
529,0.244949322657881
530,0.244994615345424
531,0.245857294500286
532,0.245562739694356
533,0.247416880341087
534,0.247631017616029
535,0.244804124735495
536,0.247523279507761
537,0.246002319532453
538,0.244037591317163
539,0.242391392186294
540,0.244442554440356
541,0.24223286612219
542,0.241151086288595
543,0.242450442838751
544,0.243801762555484
545,0.242165741787937
546,0.243991868963681
547,0.243836371796084
548,0.243680874628488
549,0.243525377460891
550,0.242223514579654
551,0.243290218035454
552,0.246724955873273
553,0.244316562104929
554,0.243071953667976
555,0.245908153210164
556,0.242546307917346
557,0.241671005611576
558,0.241239986898497
559,0.238587785713905
560,0.242709419789985
561,0.238741165491091
562,0.243232335635595
563,0.240355619045641
564,0.24194209892245
565,0.23877708148564
566,0.238004106170529
567,0.236040227108311
568,0.238044757359902
569,0.235497352543474
570,0.235916575891352
571,0.237017998652184
572,0.236925732589253
573,0.237049622363449
574,0.239074956956874
575,0.23616882115521
576,0.236870177468413
577,0.237571533781615
578,0.238272890094817
579,0.238974246408019
580,0.239675602721222
581,0.242640790594543
582,0.241178721887494
583,0.24255709171882
584,0.238942787841696
585,0.238475289023822
586,0.232361072964138
587,0.230061418584511
588,0.227981214102895
589,0.225901009621278
590,0.223820805139662
591,0.224791135688712
592,0.227303683450799
593,0.227362193608196
594,0.230503165896412
595,0.229923273069535
596,0.23176317974062
597,0.232693405066042
598,0.232581162951455
599,0.232849411983838
600,0.234674961508857
601,0.235603347763693
602,0.237061489044068
603,0.236264470090538
604,0.237937218404183
605,0.237048171417195
606,0.237610472532407
607,0.23706703836701
608,0.233842812874959
609,0.234379853469357
610,0.232329421549382
611,0.231521665540635
612,0.229495400309916
613,0.228481416046818
614,0.226658467145004
615,0.229900127163467
616,0.226765369126975
617,0.228824655792385
618,0.228321693361093
619,0.229580173028257
620,0.229310922700776
621,0.230334011315588
622,0.226680342055569
623,0.227071511970779
624,0.225788990257905
625,0.224506468545032
626,0.223223946832159
627,0.22361687598578
628,0.223325969458632
629,0.222346523191334
630,0.224480532800712
631,0.221117458235514
632,0.222411463977784
633,0.224381099419661
634,0.224884457162091
635,0.225438219667254
636,0.222841182366186
637,0.225575521661479
638,0.224213516926801
639,0.225113401577332
640,0.224333599747842
641,0.224143210459724
642,0.22273198911353
643,0.221520741226865
644,0.220309493340201
645,0.219098245453537
646,0.220896101245875
647,0.220972014348057
648,0.216386314446547
649,0.22052969290391
650,0.218176827221493
651,0.220559651975958
652,0.217882183507899
653,0.214816957838265
654,0.210664729919353
655,0.21265370836458
656,0.209966333055897
657,0.212407149483132
658,0.214831073558257
659,0.220075075081707
660,0.222062404399661
661,0.223002245022955
662,0.224409373301423
663,0.22368128544536
664,0.221809497997077
665,0.223610622828409
666,0.223513977949788
667,0.223900022247073
668,0.224154734350187
669,0.220554446740195
670,0.221982780118036
671,0.221821870082664
672,0.220902598387056
673,0.221342638868023
674,0.222289775511904
675,0.222023351138316
676,0.222132248658134
677,0.223952341454676
678,0.220577504662492
679,0.221294224503888
680,0.226570988083825
681,0.222065843406764
682,0.218167971391076
683,0.214485085284916
684,0.208189905772079
685,0.2026816212972
686,0.199500377632503
687,0.195404871930657
688,0.193903483404991
689,0.194676971957965
690,0.196740607023845
691,0.201717111902053
692,0.202426986402355
693,0.204408241943059
694,0.206959140566796
695,0.206801487818654
696,0.20948393434426
697,0.210905248378547
698,0.208559533054794
699,0.209205400377996
700,0.212992455762838
701,0.211295146822863
702,0.21429671449233
703,0.214793366476725
704,0.218619273272719
705,0.21833389455958
706,0.221909602607143
707,0.223962568195297
708,0.223952890275183
709,0.226721646574071
710,0.225115807041571
711,0.225418427859351
712,0.225944861809747
713,0.218551770896868
714,0.215110325254249
715,0.205625863163921
716,0.19763991304119
717,0.192194545282061
718,0.191113247394884
719,0.192569459468218
720,0.194864955586284
721,0.192921540683483
722,0.198666605373906
723,0.198177176055218
724,0.197550938216856
725,0.198561880411722
726,0.19810070261595
727,0.201764766309754
728,0.204682604607767
729,0.209588110804925
730,0.213264069965421
731,0.219575233477135
732,0.225208680234254
733,0.231678861765784
734,0.236615919193785
735,0.237249191195653
736,0.240972440067787
737,0.242808427482484
738,0.24464441489718
739,0.246480402311876
740,0.250546273273588
741,0.251266836140777
742,0.253557599802098
743,0.25584836346342
744,0.258139127124742
745,0.259587796697075
746,0.259358195987412
747,0.260619060305193
748,0.257800209904469
749,0.260067624374551
750,0.260778511719907
751,0.25980012779282
752,0.263655012310734
753,0.261497720444733
754,0.259762285433292
755,0.244293020756188
756,0.228823756079084
757,0.21335449140198
758,0.188369200389368
759,0.167551158757891
760,0.152466950830202
761,0.150833972758568
762,0.155323529591794
763,0.165993386490642
764,0.180535593592908
765,0.194897864255175
766,0.212809923264178
767,0.229472692607623
768,0.23970553578342
769,0.246600347670282
770,0.252222683989621
771,0.255163616300472
772,0.25762358292961
773,0.261607378617618
774,0.259417316555835
775,0.2609649087813
776,0.261415271298094
777,0.2592460593679
778,0.262016271694289
779,0.260479998557271
780,0.263786767702201
