"wavelength","measurement"
380,0.00654099881974857
381,0.00637748528126367
382,0.00627885442115762
383,0.00607500693329493
384,0.0062507719578231
385,0.00649207772056306
386,0.00678165067457887
387,0.0071838301484974
388,0.007346160616325
389,0.00770113775155765
390,0.00764690586543644
391,0.00770492587278612
392,0.00763839762903364
393,0.00775158618950016
394,0.00788962144070642
395,0.00835497094326331
396,0.00922026525818975
397,0.010231609342889
398,0.0112429534275883
399,0.0122542975122876
400,0.0129602776016596
401,0.0136532121017077
402,0.0143359175213013
403,0.0145369606736363
404,0.0145137844236526
405,0.014546133191581
406,0.0149097082912466
407,0.0149249000078105
408,0.0152256263329687
409,0.0155497604325417
410,0.0161680527515567
411,0.0162068724944094
412,0.016607038820872
413,0.0170843221823221
414,0.0169996946521852
415,0.017275438265799
416,0.0170757509862983
417,0.0167683493745662
418,0.0173038894885691
419,0.0167846552994561
420,0.0171713431583354
421,0.0171763832670631
422,0.0172195186427902
423,0.0173322020612802
424,0.0175975538000414
425,0.017156428483554
426,0.0168839608481488
427,0.0167215983877134
428,0.0160956954652863
429,0.0161734900843598
430,0.0162202049319219
431,0.0168161395955755
432,0.0174344085872155
433,0.0179962593137062
434,0.0187803560511622
435,0.0191833557828167
436,0.0194020825739789
437,0.0197266703351134
438,0.0200512580962479
439,0.0203758458573824
440,0.0205993626127468
441,0.0209809570360902
442,0.0215422715069323
443,0.0219109492750081
444,0.022252270254877
445,0.0225935912347459
446,0.0229349122146148
447,0.023408865396879
448,0.0235332079305008
449,0.0244414817675437
450,0.0243476461912096
451,0.0242278823837309
452,0.024162937456773
453,0.0240979925298151
454,0.0240330476028573
455,0.0240548085944286
456,0.0241216100458269
457,0.0242905186751232
458,0.0245374238924758
459,0.0248532284294099
460,0.0249103510987367
461,0.024651956075693
462,0.0254604332088494
463,0.024681036644994
464,0.0244975746877385
465,0.0243764868832251
466,0.023959057005392
467,0.0239127776465198
468,0.0237964856888711
469,0.0235974184497142
470,0.0239554258445491
471,0.0240417266431349
472,0.0241756441123762
473,0.0245074599712492
474,0.0245708454986268
475,0.0248517518497735
476,0.0244463947625724
477,0.0244696118015012
478,0.02449282884043
479,0.0245160458793587
480,0.0246053990343632
481,0.0239107448294801
482,0.0235454391457457
483,0.0234157889856867
484,0.0229262539395227
485,0.0223636665093279
486,0.022608204497973
487,0.022790432658162
488,0.022980543177739
489,0.0237129329160564
490,0.023957692208934
491,0.0241218217659979
492,0.0247435196565478
493,0.0244413406136597
494,0.0249173013946981
495,0.0246025336838063
496,0.0247631442119725
497,0.024440446346956
498,0.0246145213823815
499,0.0241448671260436
500,0.0242809579128205
501,0.0241644554176083
502,0.02459353637185
503,0.0248376316357059
504,0.0246225748114883
505,0.0254642404201899
506,0.0253735983721998
507,0.02553625885802
508,0.0256167674997748
509,0.0257434114077899
510,0.0252592364100674
511,0.0257457512943679
512,0.0255854453104773
513,0.0248563883123473
514,0.0247353838714983
515,0.0244187980502823
516,0.0242814984002786
517,0.0242299156326123
518,0.0242380681906885
519,0.0247453191228983
520,0.025267538024787
521,0.02562417893812
522,0.0259808198514531
523,0.0263374607647862
524,0.0262347341167836
525,0.0263276764202445
526,0.0264496279385497
527,0.0263573300832697
528,0.0265820409047994
529,0.0269760375905589
530,0.0270820146281962
531,0.027117004773323
532,0.0271217130807525
533,0.0274017319332642
534,0.0275017123720909
535,0.0272245670336265
536,0.0275002370087651
537,0.027439862701637
538,0.0272571149391686
539,0.0270891577344432
540,0.0273052800795861
541,0.0271767889238364
542,0.0270269491996872
543,0.0272422405924344
544,0.027338049207596
545,0.0272591290058381
546,0.0274881074969084
547,0.0274977977948041
548,0.0275074880926998
549,0.0275171783905955
550,0.0274146561536444
551,0.0275142511389289
552,0.027868800761636
553,0.0276286112909544
554,0.0275863428532051
555,0.027858915751648
556,0.0274792208876231
557,0.0275190786386549
558,0.027371398096152
559,0.0272009419476344
560,0.0274552226618618
561,0.0270819112527481
562,0.0275830506390151
563,0.0271254513088275
564,0.0273266479518506
565,0.0270492568534745
566,0.0269180965372359
567,0.0265833671905713
568,0.0268179272028589
569,0.0264952454555988
570,0.026556170781724
571,0.0266762331956253
572,0.0266424153432736
573,0.0267442510008017
574,0.0269613076880536
575,0.0265781611425467
576,0.0266701003136677
577,0.0267620394847887
578,0.0268539786559097
579,0.0269459178270307
580,0.0270378569981517
581,0.0273884565405862
582,0.0273174039712257
583,0.0274636718381266
584,0.0270574195138735
585,0.0270993848244836
586,0.0263557528419607
587,0.0261651325717789
588,0.0260048128164563
589,0.0258444930611338
590,0.0256841733058112
591,0.0258491276850714
592,0.0261116626919269
593,0.0262249089851144
594,0.0267026887672315
595,0.0266713335083551
596,0.0268457909733122
597,0.0270358442706863
598,0.0271150985317185
599,0.0271213963257481
600,0.0273876570869753
601,0.0275637489019935
602,0.0277254753241317
603,0.0276744060112928
604,0.0279967113871425
605,0.0278513431971845
606,0.0279206528754006
607,0.0277616378275224
608,0.0274739665448923
609,0.0275359285145715
610,0.0273467407630141
611,0.0272198640464299
612,0.0269751471229203
613,0.0269669630372426
614,0.0267031358945335
615,0.0270585020090663
616,0.0267243580304622
617,0.0269556947280928
618,0.0269347632561798
619,0.0270978646484838
620,0.027068161686907
621,0.0272175245136441
622,0.026786811244356
623,0.0268180210683293
624,0.0266596170026368
625,0.0265012129369442
626,0.0263428088712516
627,0.0264990885291452
628,0.0263943447920153
629,0.0263266118291827
630,0.0265489477301123
631,0.0262120143601815
632,0.0264156841440779
633,0.0265279133002473
634,0.0265448293498829
635,0.0267054677351156
636,0.0264461445397158
637,0.0268438126000207
638,0.0266366587771965
639,0.026744278072832
640,0.0265614392289438
641,0.0266214214999824
642,0.0264330210241104
643,0.0263009813420905
644,0.0261689416600706
645,0.0260369019780506
646,0.0262037794620836
647,0.026201138124026
648,0.0257807203849727
649,0.0262438692860328
650,0.0259201416125894
651,0.0261687186645708
652,0.0259019172281207
653,0.0255230729602243
654,0.0250492470543261
655,0.0253293245136421
656,0.0250519893668337
657,0.0252715021350081
658,0.0255992514997844
659,0.0261964476002844
660,0.0264740116586662
661,0.026529981587545
662,0.0267325436400748
663,0.0265841626632291
664,0.0264700079275547
665,0.0265438252748807
666,0.02664472499868
667,0.0266317538401146
668,0.0267932664593125
669,0.0262625709195843
670,0.0263894171345674
671,0.0264439997660311
672,0.0262538870441406
673,0.0263654923304064
674,0.026419653211352
675,0.0263851453005212
676,0.0265206935747627
677,0.0267427347936187
678,0.0264062638268905
679,0.0264381417326012
680,0.0270256230036218
681,0.0265926431478814
682,0.0261242921074148
683,0.0256996327728323
684,0.0249792252842834
685,0.0243718194389763
686,0.0239113989688386
687,0.0236134685430723
688,0.0235231266770496
689,0.023748052181819
690,0.0241748270974627
691,0.024766469453174
692,0.0249578247478481
693,0.0253037327780541
694,0.0256470899780497
695,0.025919399245356
696,0.0263621537742408
697,0.0267417640372067
698,0.0266128848665286
699,0.0268227962853209
700,0.027534482882169
701,0.0274747260599734
702,0.0280487310498112
703,0.028383200090501
704,0.0290256592764785
705,0.0293708460062504
706,0.0300704542072877
707,0.0305814695487338
708,0.0307679804987498
709,0.0315759510625417
710,0.0314235896868898
711,0.0316983161078336
712,0.0322563191004839
713,0.031416616755807
714,0.0310702899037763
715,0.0300702742744267
716,0.0293024399629545
717,0.0286390388520521
718,0.0287064640035881
719,0.0292375427304124
720,0.0298813293397738
721,0.0299981616853147
722,0.0311042360369209
723,0.0314489116847068
724,0.0317252575557595
725,0.0322798227802268
726,0.0324795510146163
727,0.0334523234238384
728,0.0342038424478364
729,0.0352511577494082
730,0.0363085787842653
731,0.0377868879725042
732,0.0391172715338188
733,0.0407222200478956
734,0.0418493592044881
735,0.0423745281041648
736,0.0432410171854105
737,0.0439087326140119
738,0.0445764480426132
739,0.0452441634712146
740,0.0463483176025984
741,0.0469572765377515
742,0.047542121066081
743,0.0481269655944105
744,0.0487118101227401
745,0.0492645742578436
746,0.0494801331277224
747,0.0500575702885542
748,0.0498185796835522
749,0.0503652045924984
750,0.0506773215143019
751,0.0506566111732521
752,0.05145573084475
753,0.0513727024034915
754,0.0509743896297621
755,0.0480180949454612
756,0.0450618002611603
757,0.0421055055768595
758,0.03712699105209
759,0.032872716611301
760,0.0301593336376368
761,0.0297221133519533
762,0.0309597689703356
763,0.0332781345187768
764,0.0363398029831379
765,0.0395685721749945
766,0.0432226496467888
767,0.0467054288298217
768,0.0486267277000062
769,0.0502430088400964
770,0.0513379131492413
771,0.0520699254500967
772,0.0526910306546362
773,0.0533921171194221
774,0.0532094175845606
775,0.0532312783228675
776,0.0536437477908273
777,0.0530133461174848
778,0.0538439103471778
779,0.0533795841899716
780,0.0542057696484813
