"wavelength","measurement"
380,0.00712158771441493
381,0.00695051859909487
382,0.00683229956270277
383,0.00682951290656288
384,0.00685079403012099
385,0.00716904359205358
386,0.00771175154040962
387,0.007843979401892
388,0.0084292515767354
389,0.00850696463520593
390,0.00847160597747905
391,0.00858518277064252
392,0.00879283287974209
393,0.00893997681939122
394,0.00917179365176974
395,0.0100068551538937
396,0.0110922206783205
397,0.0124397113983028
398,0.0137872021182851
399,0.0151346928382675
400,0.0158401872306959
401,0.0169262794421976
402,0.0175388835394234
403,0.0180146607907631
404,0.0181175040743571
405,0.0183387198098407
406,0.0186579689286644
407,0.0190781881609639
408,0.019338928404028
409,0.0198544577982467
410,0.0207522997962492
411,0.0209001406141182
412,0.0215315906629843
413,0.0217234694270706
414,0.0217371618592748
415,0.0220269742065396
416,0.0216717860296023
417,0.0215701090623824
418,0.0218591631237363
419,0.0213710877263855
420,0.021720436543556
421,0.021638459407274
422,0.0218362975980445
423,0.021732564184865
424,0.0217398053856454
425,0.0213139955843495
426,0.0209552831308852
427,0.0203518397431912
428,0.0198098085095432
429,0.0197603112126941
430,0.0198353806011176
431,0.0204778418290941
432,0.0213837870443827
433,0.0220455058583965
434,0.0228566399164174
435,0.023138701409955
436,0.0234200053413811
437,0.0237430473653149
438,0.0240660893892488
439,0.0243891314131826
440,0.0245426135494243
441,0.0248903295138347
442,0.0253615561789114
443,0.0256397877984643
444,0.0260049045820762
445,0.0263700213656881
446,0.0267351381493
447,0.0271137144866679
448,0.027188539780549
449,0.0279909477943746
450,0.0277192325251023
451,0.0275586378496359
452,0.0274163882683773
453,0.0272741386871188
454,0.0271318891058602
455,0.0271670914265969
456,0.0272011141737431
457,0.0275661384293496
458,0.0276070223834678
459,0.0280193558441088
460,0.0280735831905014
461,0.0276715571341864
462,0.028479369341134
463,0.0275065944407891
464,0.027306924282873
465,0.0271026282494759
466,0.0267983442671
467,0.0267190777748565
468,0.0265847730949444
469,0.0266027784403853
470,0.0270738714994383
471,0.0270588408630723
472,0.0273095385976869
473,0.0275430689025746
474,0.0276256595708365
475,0.0279055440896678
476,0.0273983602648821
477,0.0274360264339526
478,0.027473692603023
479,0.0275113587720934
480,0.0273735139243331
481,0.0267621029588511
482,0.0263097975268085
483,0.026112956285104
484,0.0257444742674934
485,0.0251478606481556
486,0.0254950120890191
487,0.0257943295718961
488,0.0261084567218661
489,0.0267422635846456
490,0.0267970861268212
491,0.0270159057232883
492,0.0276059527205777
493,0.0272370279218843
494,0.0275749664124297
495,0.0270609706771166
496,0.0272739385961508
497,0.0267115786368219
498,0.0267764177549731
499,0.0261732064239508
500,0.0263487084157606
501,0.0261660058086205
502,0.0264981152225261
503,0.0266335594121833
504,0.02632815680412
505,0.0270681899155872
506,0.0269071354040372
507,0.0269313548661553
508,0.0270792230804948
509,0.026943926740262
510,0.0263222868375049
511,0.0266021641696955
512,0.0262602818284406
513,0.0253964410239386
514,0.0251757405753186
515,0.0248047011274794
516,0.0246321637508005
517,0.0245855161718088
518,0.0244859690155891
519,0.0249010648479904
520,0.0252981158344097
521,0.0254439920570981
522,0.0255898682797866
523,0.025735744502475
524,0.0255770331664038
525,0.0254903193552595
526,0.0254642312527688
527,0.0252226014399017
528,0.0254067178176448
529,0.0255736740331811
530,0.0256083107945649
531,0.025552844222503
532,0.025385475096428
533,0.0256820667660125
534,0.0256481647955317
535,0.0253854229037131
536,0.0256171854085463
537,0.0253938999133802
538,0.0251615751689911
539,0.0249369798472147
540,0.02512321659709
541,0.0248577581980653
542,0.0247108599253679
543,0.024849258589469
544,0.0248847727691439
545,0.0246638712940145
546,0.0248796280618767
547,0.0248104391534911
548,0.0247412502451054
549,0.0246720613367197
550,0.0244560433559053
551,0.0246739029684409
552,0.0248674451277334
553,0.0244844906098681
554,0.0244255845306328
555,0.0246503453728559
556,0.0242186629012004
557,0.0242133519342898
558,0.0240204421183027
559,0.023747892025388
560,0.0240535475112423
561,0.0235085041436137
562,0.0238192994840842
563,0.0234248106739983
564,0.0234591518945074
565,0.0231329263260065
566,0.0230005051818111
567,0.0226783583633079
568,0.0228241698007268
569,0.0226050287398616
570,0.0225562268845109
571,0.0225606156101
572,0.0225672872656908
573,0.0225551803656451
574,0.0226383626426617
575,0.0224038931933761
576,0.0225382158349796
577,0.0226725384765831
578,0.0228068611181866
579,0.0229411837597901
580,0.0230755064013935
581,0.0233684344553853
582,0.0233196102304031
583,0.0235075363183832
584,0.0231082164433166
585,0.0231023442998155
586,0.0225619931149105
587,0.0223500295023704
588,0.0222170449170193
589,0.0220840603316682
590,0.0219510757463171
591,0.0220072393218119
592,0.0222585630208062
593,0.0222501966617902
594,0.0225403779335826
595,0.0225599574138382
596,0.0226350347609289
597,0.0227047066137771
598,0.0226610702212982
599,0.0226546297588466
600,0.022836554513166
601,0.0230220119083436
602,0.0230393120234986
603,0.0229634134071245
604,0.0230932138130986
605,0.0229688712175726
606,0.0230906654539065
607,0.0229459578554167
608,0.0226431844489061
609,0.0226536584997088
610,0.0225520134608646
611,0.022416328556707
612,0.0222026210363269
613,0.0221963048145723
614,0.0219549223612736
615,0.0223072706433379
616,0.0219653104858669
617,0.0222714981834858
618,0.0221647311510729
619,0.0222720387022162
620,0.0221755968672864
621,0.0222593053686728
622,0.0218724503755616
623,0.0218209969214311
624,0.0216481920688909
625,0.0214753872163507
626,0.0213025823638106
627,0.0212226252336394
628,0.0212403698703674
629,0.0210746972002249
630,0.0214082573318293
631,0.0211715936502297
632,0.0213580503004935
633,0.0214574670128063
634,0.0216697172364397
635,0.021777493893298
636,0.0215605056664915
637,0.0219204087980442
638,0.0217109850970944
639,0.0218445373384508
640,0.0218310416982355
641,0.0217802954975839
642,0.0216638820169063
643,0.0215853643631559
644,0.0215068467094054
645,0.021428329055655
646,0.0215387730412394
647,0.021640448649849
648,0.0213242762724678
649,0.0217237909908376
650,0.0214771750156354
651,0.0216145406532279
652,0.0213473499683802
653,0.0210510239012731
654,0.0207107007559849
655,0.0210410632098638
656,0.0209233865970251
657,0.0211212156139556
658,0.0213455749968937
659,0.0218296716707193
660,0.0220541318565045
661,0.0221131398118209
662,0.0221913151309327
663,0.0221241249975207
664,0.0219705855466941
665,0.0220442957144231
666,0.0221815526805087
667,0.0222228247187129
668,0.0222941777454045
669,0.0219835645187767
670,0.0221670971553679
671,0.0220870737701515
672,0.02209382079685
673,0.0221809620112841
674,0.0221931871560013
675,0.0222773378191064
676,0.0221900002167633
677,0.0224821194187964
678,0.0222291458614686
679,0.022236650307423
680,0.0228063587738849
681,0.0223925116115024
682,0.021578586799944
683,0.0211720489689608
684,0.0201834205856774
685,0.0194793544638399
686,0.019003132619055
687,0.0187671904155084
688,0.0187876653488368
689,0.0191152122374862
690,0.0196962635282498
691,0.0203213354168573
692,0.0208058093754093
693,0.0210995302048254
694,0.0216591857211971
695,0.0217308131018064
696,0.0220366378146923
697,0.0223432641412055
698,0.0221149671466932
699,0.0223529229853594
700,0.0228027147582837
701,0.0227880138050558
702,0.0233461113694786
703,0.0232941423989541
704,0.0237783922724362
705,0.0238025043247678
706,0.0242820934098444
707,0.0246061973645221
708,0.0246104412836322
709,0.0248714181188407
710,0.0248037199818927
711,0.0248512187163701
712,0.0248461526516939
713,0.0240784312628516
714,0.0237425876384181
715,0.0228096977681951
716,0.0221450578810958
717,0.02186473373576
718,0.0217894349340005
719,0.0220279813351606
720,0.022376280392351
721,0.0220991946117021
722,0.0227306944016003
723,0.0227730588846531
724,0.0228394263005631
725,0.0230196960001709
726,0.0229997911603319
727,0.0234757444071253
728,0.0238553359719208
729,0.0244644959946449
730,0.0249905957834995
731,0.025503037493156
732,0.0262475105584378
733,0.0269053035338395
734,0.0271597275945651
735,0.0273288054445678
736,0.0278006827766302
737,0.0279772847162773
738,0.0281538866559244
739,0.0283304885955715
740,0.0287095391185833
741,0.0288999479134895
742,0.0290798847331496
743,0.0292598215528097
744,0.0294397583724697
745,0.0295598334299204
746,0.0296465154757694
747,0.0297935667899448
748,0.0295872084236226
749,0.0298191394345466
750,0.0299735796135076
751,0.0298838817435676
752,0.0303473973043926
753,0.0299892069347468
754,0.0290325457742779
755,0.0266260155894067
756,0.0242194854045355
757,0.0218129552196643
758,0.0183266562927515
759,0.0155305023682292
760,0.0142476722654614
761,0.0142680309787894
762,0.0151101865553599
763,0.0170515302536606
764,0.0193015679616666
765,0.0214543899387138
766,0.023963727646245
767,0.0263126050763029
768,0.0275810741289261
769,0.0285228693582627
770,0.0294541534795286
771,0.0298621700817661
772,0.0302210733351556
773,0.0307197834273267
774,0.0305496064063133
775,0.0307035823718636
776,0.0306982082301593
777,0.0304803426616229
778,0.0308869697774819
779,0.0305163595094017
780,0.0310401874876105
