"wavelength","measurement"
380,0.00183448399108096
381,0.00186302380157017
382,0.00182580563443342
383,0.00185097753140483
384,0.0018967786473225
385,0.00205126451924375
386,0.00221745688975059
387,0.00232864788178076
388,0.00246339715523277
389,0.00260802949690722
390,0.0025895427701262
391,0.0026597611409861
392,0.00267988546969844
393,0.00278100194388909
394,0.00290952875716512
395,0.00305673770191711
396,0.00342678315403366
397,0.0038376526918941
398,0.00424852222975455
399,0.00465939176761499
400,0.00485823551794803
401,0.00520628190395341
402,0.00542326541308319
403,0.00554392666731295
404,0.00559161742948931
405,0.00556066479025683
406,0.00569363250225148
407,0.00578923142586105
408,0.00585225614158059
409,0.00597308137566562
410,0.00629807296414606
411,0.00632894213342307
412,0.00650880618919639
413,0.00669913286415066
414,0.00673472135700007
415,0.00677939212757979
416,0.00679241882436265
417,0.00676640850799981
418,0.00686082749350133
419,0.00673473095387432
420,0.00695566998145351
421,0.00692536167938666
422,0.00702749814481999
423,0.00707967420785332
424,0.00719135802019475
425,0.00705268823070405
426,0.00706706223270339
427,0.00688268313931685
428,0.00666464200669633
429,0.00673187136188124
430,0.00673618509262277
431,0.00703914033548141
432,0.00729853423938276
433,0.00758666717148734
434,0.00793897063582473
435,0.00814817244301973
436,0.00821785375118505
437,0.00840866091051078
438,0.00859946806983651
439,0.00879027522916224
440,0.00887966252179201
441,0.00906626869945568
442,0.00933728046026974
443,0.00947321823542672
444,0.00966599337475574
445,0.00985876851408477
446,0.0100515436534138
447,0.0102982993243146
448,0.0103755103194906
449,0.0108190626070451
450,0.0108445804199784
451,0.0107877728239912
452,0.0108006165204118
453,0.0108134602168325
454,0.0108263039132532
455,0.0109141659079471
456,0.0108891200717085
457,0.0111314277554696
458,0.0111785719741777
459,0.0114267719018333
460,0.0114857101665638
461,0.0114113358685744
462,0.0117765077176435
463,0.011446832643469
464,0.0113814982529552
465,0.0113460300885844
466,0.0111921372074595
467,0.0112433600724901
468,0.0111424774196137
469,0.0110959599394151
470,0.0113683793352481
471,0.0113948798905662
472,0.0114690621659733
473,0.0116438310826887
474,0.0116924386367242
475,0.0119113153303858
476,0.0116215722647069
477,0.0116671017816633
478,0.0117126312986196
479,0.011758160815576
480,0.0117459387638135
481,0.0114772719208582
482,0.0113201527014621
483,0.011322323160461
484,0.0110711190407381
485,0.0108760329428445
486,0.0109924291563448
487,0.0111015346344198
488,0.0112300173225745
489,0.0115392610404775
490,0.0117266634311346
491,0.0118038428519274
492,0.0121430331531402
493,0.0120251911414013
494,0.0122383854078867
495,0.0120809644938346
496,0.0121593876304561
497,0.0119898720347825
498,0.0120786425155743
499,0.0118308472913658
500,0.0119193309253768
501,0.0118259718483443
502,0.0120519345965531
503,0.0121225477443467
504,0.0120392824793019
505,0.0124557296279712
506,0.0123823367453319
507,0.0124527065167845
508,0.0125241079971473
509,0.0125069494270504
510,0.0123274357495215
511,0.0125212759408452
512,0.0124248167585534
513,0.012089803423038
514,0.0119999917033111
515,0.0118077997639189
516,0.0117300366561376
517,0.0117013396791749
518,0.0116558846851712
519,0.0118863039395029
520,0.0121133870601021
521,0.0122333968564258
522,0.0123534066527495
523,0.0124734164490733
524,0.0123810107470505
525,0.0124171926810648
526,0.0124094191169527
527,0.012327765830949
528,0.0124092549867481
529,0.01253674765079
530,0.0125289052434138
531,0.0125470956754136
532,0.0124921692194025
533,0.0126613423317596
534,0.012689242882792
535,0.0125493934029736
536,0.0126889970477291
537,0.0126046452491749
538,0.0125140136928253
539,0.0124360856688185
540,0.0125192844922632
541,0.0124120631671016
542,0.0123359900163964
543,0.0124400873826393
544,0.0124657240161278
545,0.0123424966758997
546,0.0124398194877082
547,0.012419923003524
548,0.0124000265193397
549,0.0123801300351555
550,0.0122951743987939
551,0.0124239967162959
552,0.0124403865746378
553,0.0123652152212663
554,0.0122950545922131
555,0.012417670861835
556,0.0122845354441771
557,0.0122360626498925
558,0.012168742251187
559,0.0120673805680527
560,0.0122033654763128
561,0.0119953041836205
562,0.0121852173891788
563,0.0119953276623244
564,0.0120249933167521
565,0.0118489772041007
566,0.0118161798872099
567,0.0116786328544358
568,0.0117397842878955
569,0.0115838894202874
570,0.011575967999885
571,0.0115843110435301
572,0.0115819445433471
573,0.0115500675215846
574,0.0116218963780694
575,0.0115174597564176
576,0.0115595156954757
577,0.0116015716345337
578,0.0116436275735918
579,0.0116856835126498
580,0.0117277394517079
581,0.0118760335152128
582,0.0118600550029081
583,0.0119366669288988
584,0.0117724879622305
585,0.0117633235824854
586,0.0114455792805859
587,0.0113354633236229
588,0.0112277935886441
589,0.0111201238536653
590,0.0110124541186865
591,0.0110384757344672
592,0.0111153269287377
593,0.0111164214944837
594,0.0112575210755207
595,0.0111598425605211
596,0.0112409319041819
597,0.0112618477829644
598,0.0112132902418994
599,0.0111863036953563
600,0.0112374621097415
601,0.0113137883853081
602,0.0113316122511748
603,0.0112541745331343
604,0.011322871745594
605,0.0112796453082646
606,0.0112881736380129
607,0.0112332271089388
608,0.0111068082430129
609,0.0110759062907892
610,0.0110190579857842
611,0.010939658889382
612,0.0108440891407475
613,0.0108039779501415
614,0.0106354849351574
615,0.0107255052429855
616,0.010638405657404
617,0.0107202765786249
618,0.010683102627919
619,0.0107054096807769
620,0.0106476786946104
621,0.0107147759950602
622,0.0104783006298925
623,0.0104542809494913
624,0.0103381643016731
625,0.0102220476538549
626,0.0101059310060368
627,0.0100660324961919
628,0.0100136607421045
629,0.00999300546931893
630,0.010070054307644
631,0.00992995146360741
632,0.00997762162364344
633,0.010039737648554
634,0.0100827057601391
635,0.0101167106374145
636,0.0100551743150567
637,0.0101170359459408
638,0.0100475641362396
639,0.0101103188877776
640,0.0100293942650013
641,0.0100252606763968
642,0.00996194369054172
643,0.00988825389860172
644,0.00981456410666171
645,0.00974087431472171
646,0.00981681660678939
647,0.00977843409184695
648,0.00959264297201453
649,0.00976647563882808
650,0.00961825091626534
651,0.00968797942255535
652,0.00954312399013236
653,0.00935154132541842
654,0.00916877286109771
655,0.00922290809976687
656,0.00914085769045614
657,0.00917066354121246
658,0.00925883133873546
659,0.00948242205700594
660,0.00955077811283563
661,0.00956422214561467
662,0.00957034348343506
663,0.00950418217919964
664,0.00940855306987342
665,0.00944032743648583
666,0.00942089604420293
667,0.00944341375847674
668,0.00943113291230133
669,0.00923706783039272
670,0.00927452370532242
671,0.00916247574762177
672,0.00916709510924366
673,0.00916244130703765
674,0.00918049660108813
675,0.00914055174031738
676,0.00906036305843496
677,0.00912189288199801
678,0.00900637108457437
679,0.00893019003229755
680,0.00915853856247932
681,0.0089580061754842
682,0.00869128813770582
683,0.00847241259163797
684,0.00805837415732278
685,0.00773302833077632
686,0.00742272982002846
687,0.00719956539878627
688,0.00710005411897079
689,0.00713258711598219
690,0.00733805014116282
691,0.00757070080421129
692,0.00762644310549731
693,0.00771113161253942
694,0.00785540422323778
695,0.00782966899235827
696,0.00794229328893315
697,0.00793663706194401
698,0.00778292556975804
699,0.0077720223320413
700,0.00785706817114582
701,0.0077716880333884
702,0.00781202244886802
703,0.00777511521231223
704,0.00789037558017698
705,0.0078375501996377
706,0.00794287534187772
707,0.00794156236933072
708,0.00788569582084745
709,0.00793757593794178
710,0.00778129816519151
711,0.00776976383675603
712,0.00777303949204032
713,0.00747255296228434
714,0.00731836114038187
715,0.00697131058055798
716,0.00667457201858199
717,0.00645120270454021
718,0.00634664105636727
719,0.00637988861917607
720,0.00633376217789395
721,0.0062303491879599
722,0.00638223159858218
723,0.00632349854505822
724,0.00628156365500605
725,0.00625373690298172
726,0.00622054874542158
727,0.00624010726557766
728,0.00628700526749724
729,0.00635625791537567
730,0.00646989072812019
731,0.00658207251034202
732,0.00665240515159608
733,0.00681333246341911
734,0.00686670100047252
735,0.00688306669536673
736,0.00689558628440101
737,0.00689115945662041
738,0.00688673262883982
739,0.00688230580105922
740,0.00692562577318371
741,0.00690764450624962
742,0.00690627361477287
743,0.00690490272329612
744,0.00690353183181937
745,0.00687855311169625
746,0.00682030808840936
747,0.00681311071771169
748,0.00668223116389034
749,0.00673872159983113
750,0.00667396544518599
751,0.00661100865969068
752,0.00665828382501291
753,0.00648769381988456
754,0.00645000146542911
755,0.00595776215106598
756,0.00546552283670285
757,0.00497328352233971
758,0.00420639293769005
759,0.00350145958938208
760,0.00298916014948151
761,0.0028140031508432
762,0.00290963546842334
763,0.00318939084397323
764,0.00362841137579456
765,0.00404749752632676
766,0.0045875695230709
767,0.00504848057873101
768,0.00534949740671799
769,0.00555222926594773
770,0.00570799910735263
771,0.00579012290731475
772,0.0058388311665812
773,0.00589863122455641
774,0.00585001604612801
775,0.00582910691201874
776,0.0058513078735973
777,0.00574472467154701
778,0.0057586461849422
779,0.00572029319619462
780,0.00574379361427835
