"wavelength","measurement"
380,0.00447455611251119
381,0.00435221705605048
382,0.00426830743886385
383,0.00418783699123313
384,0.00414964389119469
385,0.00444787467627557
386,0.00459016481050799
387,0.00481888775157039
388,0.00510900298399763
389,0.00518632892414343
390,0.00510126893226963
391,0.00514448525029453
392,0.00518234373393189
393,0.00522776909442483
394,0.00528457204312123
395,0.0056699723030421
396,0.00627124106399189
397,0.00696812676235066
398,0.00766501246070943
399,0.0083618981590682
400,0.00877446091278506
401,0.00920311473333887
402,0.00955744998924235
403,0.0096258348328246
404,0.00961618709989025
405,0.00955303551917896
406,0.00971065640590725
407,0.00976408625094298
408,0.00979323363014619
409,0.00997255427400357
410,0.0103982664497297
411,0.0103780460100335
412,0.0105744067149929
413,0.0108640077586147
414,0.010717017981096
415,0.0108107727864525
416,0.0106727897578835
417,0.0105266856635345
418,0.0106114585289122
419,0.0103879593544831
420,0.0105921830807818
421,0.0105122908678233
422,0.0106543404466544
423,0.0106817178800454
424,0.0106876873097716
425,0.0105150512058451
426,0.0104220217841339
427,0.010051012190789
428,0.00973470402691392
429,0.00974111919550807
430,0.00975173690505686
431,0.0101017903273246
432,0.0104599570367643
433,0.0108932288061565
434,0.0113274023001437
435,0.0115253852257477
436,0.0116252426130919
437,0.011805423051846
438,0.0119856034906001
439,0.0121657839293542
440,0.0122336175154367
441,0.0124499550215272
442,0.0127213345561682
443,0.012814221451341
444,0.0130040178656513
445,0.0131938142799616
446,0.0133836106942719
447,0.0136131362021629
448,0.0136941477933944
449,0.01413858023019
450,0.0140536597615729
451,0.0140007658496342
452,0.0139245973733427
453,0.0138484288970512
454,0.0137722604207597
455,0.0137624678087524
456,0.013789782978884
457,0.0139528221024516
458,0.0140258736687088
459,0.0142531108337635
460,0.0142388326579781
461,0.0140729286676177
462,0.0144356903528807
463,0.0140148019212764
464,0.0138311554286694
465,0.0136790286108401
466,0.0135450920806811
467,0.0134437921752898
468,0.013369630802095
469,0.013202364477225
470,0.0135112806456482
471,0.0135069052242528
472,0.0135421681843942
473,0.0136816459984572
474,0.0136580685847158
475,0.0138418469879462
476,0.0135460823398994
477,0.0135260948027999
478,0.0135061072657004
479,0.013486119728601
480,0.0134690978033709
481,0.013117279948985
482,0.0128836368118814
483,0.0128286935967971
484,0.0125204347742384
485,0.0122854160483835
486,0.012382803406603
487,0.0124766594940845
488,0.012634329338439
489,0.0129598496113888
490,0.0131285587344033
491,0.0131784411247496
492,0.0135121157006042
493,0.0133335008413431
494,0.0135498829214401
495,0.0133404564720187
496,0.0134211780708982
497,0.0131877627333015
498,0.0132787860383761
499,0.0129500885336734
500,0.013079945066928
501,0.0129697389426586
502,0.0131843467885141
503,0.0132654573688335
504,0.0130950123392931
505,0.0135842914980099
506,0.0134906234396577
507,0.0135727887064442
508,0.0136338197409724
509,0.013575440568121
510,0.0133785228863327
511,0.0135690639801115
512,0.0134129587305327
513,0.0130500668167196
514,0.0129713781228685
515,0.0127653180340087
516,0.0126754941100739
517,0.0126837130655195
518,0.0126495729333135
519,0.0128567828772617
520,0.0131515035771394
521,0.0132968263080572
522,0.013442149038975
523,0.0135874717698928
524,0.0134654505316714
525,0.013509501226634
526,0.0135018376572242
527,0.0134368185139682
528,0.0135029158267213
529,0.013714488302792
530,0.0136934137554392
531,0.0137258165217398
532,0.0137141783809842
533,0.0138603210545629
534,0.0138912714721911
535,0.013782806309354
536,0.0139266493049449
537,0.0138415170127651
538,0.0137396432838975
539,0.013666612654257
540,0.0137501859057326
541,0.0136741050040069
542,0.0135826681946175
543,0.013661857738573
544,0.0137110887380911
545,0.0135912783206741
546,0.01373636453245
547,0.0137248274802516
548,0.0137132904280532
549,0.0137017533758548
550,0.0136561818890697
551,0.0137642347348563
552,0.0138512262939257
553,0.0137581492339738
554,0.0137035766548409
555,0.0138701573125292
556,0.0136679858606797
557,0.0136532207537499
558,0.0135938476232951
559,0.013479181422607
560,0.0136801030025179
561,0.0133967639440028
562,0.0136137173524944
563,0.0134189151268349
564,0.0134791797947441
565,0.0133033242662558
566,0.0132355822821041
567,0.0131075004749969
568,0.0131662145139267
569,0.0130111358407165
570,0.0129956065401233
571,0.013013193208685
572,0.0130114128792448
573,0.0130134907322454
574,0.0130793293016655
575,0.0129344683674676
576,0.0130026432675541
577,0.0130708181676406
578,0.0131389930677272
579,0.0132071679678137
580,0.0132753428679002
581,0.013463756558889
582,0.0134487546752484
583,0.0135521124514282
584,0.0133504599865145
585,0.0133686208577006
586,0.0130335906309766
587,0.0128847724377738
588,0.012767106155362
589,0.0126494398729503
590,0.0125317735905386
591,0.0126052325959897
592,0.0126853126415067
593,0.0127391220529274
594,0.0129101147449024
595,0.0128866228238896
596,0.0129202333242037
597,0.0130000038693854
598,0.0129780675288724
599,0.0129741780670648
600,0.0130472169912073
601,0.0131476478088927
602,0.0132183758475626
603,0.0131485428568176
604,0.0132915520702807
605,0.0131936258171773
606,0.0132321766638704
607,0.0132069229504712
608,0.0130407019527863
609,0.0130510627656905
610,0.0129709057857144
611,0.0129113647168075
612,0.012802303342911
613,0.0127519035336524
614,0.012638531215105
615,0.0127795938394731
616,0.0126594644615344
617,0.012793089206402
618,0.01278704454136
619,0.0128294153136136
620,0.012785819593242
621,0.0128819016055087
622,0.012598850347604
623,0.0125903670773407
624,0.0124810789836898
625,0.012371790890039
626,0.0122625027963881
627,0.0122415374655657
628,0.0122201018186871
629,0.0122173338888792
630,0.0123712199287633
631,0.0122327858021105
632,0.0123151214071586
633,0.012423507852481
634,0.0124923601526662
635,0.0125752182329255
636,0.0125279741434856
637,0.0126587304837613
638,0.0125752833160658
639,0.0127103037052297
640,0.0126406079698164
641,0.0126364022063846
642,0.0125778269093282
643,0.0125258674388084
644,0.0124739079682886
645,0.0124219484977687
646,0.0125028941334284
647,0.0125155256400902
648,0.012316501363286
649,0.0125244484997174
650,0.012380428510166
651,0.0125056453381439
652,0.0123781524920554
653,0.0121483195079845
654,0.0119682119873747
655,0.0120781052300698
656,0.0119259558603618
657,0.0120914454148104
658,0.0122338025302304
659,0.0125344796178566
660,0.0126870046152761
661,0.0127234679273657
662,0.0127773222809675
663,0.0126848038008077
664,0.0126179674808073
665,0.0127029568341131
666,0.0127230046156382
667,0.0127424400521545
668,0.0127827433309052
669,0.0125376046944044
670,0.012650624317338
671,0.0125651261360151
672,0.0125949824294073
673,0.0126049689929303
674,0.0126872589319367
675,0.0126696358334152
676,0.0126388360925676
677,0.0127731702984561
678,0.0126614817581235
679,0.0126331083893155
680,0.012954303032337
681,0.0127195818696729
682,0.0124457290291043
683,0.0121745328754819
684,0.0116041257761268
685,0.0112651451065379
686,0.0108765174563072
687,0.0106199426958528
688,0.0105562409025351
689,0.0107824847722726
690,0.0111406164501302
691,0.0115928887129419
692,0.0118291868931442
693,0.0120568409601267
694,0.0123598768052591
695,0.0124645851660576
696,0.0127223167938283
697,0.012858774666118
698,0.0127531073648071
699,0.0128306798400926
700,0.01308838243594
701,0.0130817557845572
702,0.0132852885578768
703,0.0133488896672248
704,0.0136024830492939
705,0.0136675961144412
706,0.0139100312324038
707,0.0140632211909417
708,0.0141213026507205
709,0.0143103804169593
710,0.0141711864068496
711,0.0142299048399417
712,0.0143212939296369
713,0.0138239538485868
714,0.0135968975107888
715,0.0130440689435886
716,0.012551624391223
717,0.0122337852800328
718,0.0121477008243352
719,0.0122840846063169
720,0.0123707869525473
721,0.0122839896534241
722,0.0126857709365354
723,0.0126546920099565
724,0.0126327820938861
725,0.012699555001138
726,0.0126726245016627
727,0.012872767598845
728,0.0130525508892916
729,0.0133415003367277
730,0.0135974575388441
731,0.013967762011058
732,0.0143271233446459
733,0.0146810712385041
734,0.0148769596628615
735,0.015016320371584
736,0.0151774005587719
737,0.0152596738665261
738,0.0153419471742802
739,0.0154242204820343
740,0.0156508060863167
741,0.0157757507367821
742,0.015855218636216
743,0.0159346865356499
744,0.0160141544350838
745,0.0160895942084014
746,0.0160746270176963
747,0.0161494843381338
748,0.0160281252867728
749,0.0161413560125919
750,0.0161595407956312
751,0.0160456132512474
752,0.0163470079545499
753,0.0161715444415368
754,0.0159972642578404
755,0.014791683171901
756,0.0135861020859616
757,0.0123805210000222
758,0.0103965240382207
759,0.00865669473758532
760,0.00742031419432311
761,0.0071205853548392
762,0.00756572431554765
763,0.00843625765045389
764,0.00974137184816037
765,0.0110304372150569
766,0.0125364319619145
767,0.013940191504126
768,0.0147357976550261
769,0.0154095206841268
770,0.0158569424047108
771,0.0160771661780313
772,0.0163075143107454
773,0.0165572400086194
774,0.0164644453104744
775,0.0165524278499417
776,0.0166439911544128
777,0.0164918293973949
778,0.0167369238458356
779,0.0165319157191386
780,0.016830037041658
