"wavelength","measurement"
380,0.0114618306107663
381,0.0110246116502643
382,0.0106270048905209
383,0.0107117512276232
384,0.0107094561707193
385,0.0113116562485545
386,0.0117318718621223
387,0.0121786395250438
388,0.0126281739929625
389,0.0128099440765285
390,0.0128363560718586
391,0.0127402709190934
392,0.0127502634753001
393,0.0128282209889908
394,0.0132709561872248
395,0.0141128281151593
396,0.0155610009415734
397,0.0171720867288257
398,0.018783172516078
399,0.0203942583033303
400,0.0212440801652428
401,0.0223779933529782
402,0.0230968387995047
403,0.0232409521253733
404,0.0232492403479268
405,0.0232640237148027
406,0.0235066076550835
407,0.0236457673446234
408,0.0237447034541964
409,0.024311592266835
410,0.0251552164863463
411,0.0253242057088755
412,0.025772665957826
413,0.0261229335516701
414,0.0259886324854362
415,0.0261190825592316
416,0.025899295117853
417,0.0254131589171521
418,0.0257790279887272
419,0.0253097678021341
420,0.0256997318587667
421,0.025579462288755
422,0.0257307615641985
423,0.0257697062460702
424,0.0257358076288234
425,0.02514585750075
426,0.0248324506666043
427,0.0239980348978667
428,0.0233454259788946
429,0.0232596283320912
430,0.0233633642088645
431,0.0242382849397788
432,0.025061408304987
433,0.0258433478916952
434,0.0269040587146945
435,0.0271970261518635
436,0.027559139207786
437,0.0279180757427206
438,0.0282770122776552
439,0.0286359488125898
440,0.028789192701522
441,0.0291895223537981
442,0.0297391370236152
443,0.0300055992810995
444,0.0304422145963455
445,0.0308788299115914
446,0.0313154452268374
447,0.031796345586586
448,0.0318614248701693
449,0.0328173134210458
450,0.0325250003790058
451,0.0322666241769946
452,0.0321293174761302
453,0.0319920107752658
454,0.0318547040744014
455,0.0319304063091493
456,0.0319283697163638
457,0.0321704429273405
458,0.0323926171112058
459,0.0328445807937197
460,0.0329155810211955
461,0.0323981418578998
462,0.0330190963576628
463,0.0321609573926333
464,0.0317939638099363
465,0.0315399830269352
466,0.0311936056135305
467,0.0311798199392321
468,0.0308698275883873
469,0.0306437489041745
470,0.0313213059832047
471,0.0312564578776924
472,0.0313539788817516
473,0.0316857356261896
474,0.0316499491044518
475,0.0320851056172552
476,0.0314264635929424
477,0.0314187299756913
478,0.0314109963584401
479,0.031403262741189
480,0.0312065815648393
481,0.0303474879169791
482,0.0299086877514449
483,0.0297563927754148
484,0.0291241926002809
485,0.0285827333398424
486,0.0289272981898481
487,0.0291237977552486
488,0.0294922635823106
489,0.0301970258378322
490,0.0304672378466442
491,0.0305525551248305
492,0.031249993372738
493,0.0307926899688269
494,0.0311723079954076
495,0.0307176895897466
496,0.0307725477103403
497,0.0301426772360861
498,0.0302914227943451
499,0.0296360086261999
500,0.029830582002649
501,0.0295643623626811
502,0.0301331219308471
503,0.0302149887587971
504,0.0298002913573211
505,0.0307390891295001
506,0.0305817812366208
507,0.0305723325028426
508,0.0306999387168971
509,0.0305331466192671
510,0.0299824941865808
511,0.0302909452522973
512,0.0299320330310364
513,0.0290180988496861
514,0.0288211915975189
515,0.0283279729081373
516,0.0281729516831924
517,0.0281568080061673
518,0.0279446903514172
519,0.0285118050357436
520,0.0289147541217493
521,0.0291287163118941
522,0.029342678502039
523,0.0295566406921838
524,0.0293661385454317
525,0.0293185691433408
526,0.0293362087096037
527,0.0291501776030838
528,0.0292987360711977
529,0.0295085705500183
530,0.0295520828795495
531,0.0294816926188917
532,0.0294194170791406
533,0.0296699775897771
534,0.0297411328321368
535,0.0294364351570222
536,0.0296422607481898
537,0.0293395911277383
538,0.0291172225928596
539,0.0289606052772801
540,0.0290791426678981
541,0.0288555395552022
542,0.0286119482886604
543,0.0287466419401721
544,0.0288225442829239
545,0.0285741188723105
546,0.0288509404716935
547,0.0287460230493248
548,0.028641105626956
549,0.0285361882045872
550,0.0284821379975341
551,0.028614065935065
552,0.0288501148526782
553,0.0285324656616438
554,0.0284427286567003
555,0.0286635012523615
556,0.0282890798906041
557,0.0281956218501784
558,0.0279603345961961
559,0.0277114340659968
560,0.0280539748907024
561,0.0275739300922684
562,0.0279287295431066
563,0.0274019831902199
564,0.0275231047774322
565,0.0270566497224967
566,0.0269193834378734
567,0.0266241096177922
568,0.0267639456304924
569,0.0264510766091041
570,0.0264108122559531
571,0.026437594911523
572,0.0264078367442615
573,0.0264003470591078
574,0.0265224395878923
575,0.0261817557181908
576,0.026328789047101
577,0.0264758223760111
578,0.0266228557049213
579,0.0267698890338315
580,0.0269169223627417
581,0.0272035556465002
582,0.027110264526107
583,0.0272447563529957
584,0.0268280928350882
585,0.0267748872056886
586,0.0261606022343659
587,0.0258768063745854
588,0.0256964812445309
589,0.0255161561144764
590,0.0253358309844219
591,0.0255169736064397
592,0.0256959917207824
593,0.0256686046731167
594,0.0259850694199374
595,0.0259439567362874
596,0.0260675298248207
597,0.0261654765382969
598,0.0260769635708157
599,0.0261089803566663
600,0.0263312670228719
601,0.0264710117292792
602,0.0265537974927512
603,0.0263834147224518
604,0.02656470367928
605,0.0264519835014719
606,0.0265305840097773
607,0.0263457427061908
608,0.0260852669155426
609,0.0260603153061296
610,0.025930708271283
611,0.0257397696535106
612,0.0255165987312552
613,0.0253983252484772
614,0.0252348843793416
615,0.0255405029112313
616,0.0253054832222693
617,0.0254687867264531
618,0.0254845148748026
619,0.0255533234824148
620,0.0254174646821336
621,0.0256358857167826
622,0.0251139831728336
623,0.0250832016874146
624,0.0248591137445416
625,0.0246350258016686
626,0.0244109378587956
627,0.0243892337548296
628,0.0243259788369508
629,0.0242991912573419
630,0.0245532072799836
631,0.0243243457922136
632,0.0244664300507116
633,0.0246575536241763
634,0.0248084375634972
635,0.0249229284100631
636,0.0248052055224643
637,0.0250595408576457
638,0.0249511574740623
639,0.0250276156479053
640,0.025015782930776
641,0.0250031072614106
642,0.0249340791229539
643,0.0248248173866788
644,0.0247155556504036
645,0.0246062939141284
646,0.0246453193761731
647,0.0247790902900947
648,0.0243939141021378
649,0.0248252189709601
650,0.024576582417434
651,0.0246387300127768
652,0.0244041033815787
653,0.0240094629907563
654,0.0236600280022339
655,0.0238650933124569
656,0.0238276309626314
657,0.0240738965702511
658,0.0242376173781507
659,0.0249092219412891
660,0.0250307136519328
661,0.0251069885963363
662,0.0251180393379847
663,0.0250497114651378
664,0.0248856981497276
665,0.0250568186485582
666,0.0250023742694183
667,0.0252073389193589
668,0.0251966541797886
669,0.0247239016395778
670,0.0249331480462182
671,0.0248712413749572
672,0.0248575512152915
673,0.0248385516838317
674,0.0249957938266188
675,0.0250377525734816
676,0.0249209132731518
677,0.025063798376621
678,0.0248564441144011
679,0.0249387429790636
680,0.0254776420118877
681,0.0250780813035321
682,0.0241049109166047
683,0.0235526436911628
684,0.0225809151950866
685,0.0217899248055002
686,0.0212010647931244
687,0.0208915871046212
688,0.0209412814559289
689,0.0213581044624856
690,0.0218961405322515
691,0.0226556820603718
692,0.0229838880284594
693,0.0234210896859638
694,0.0238980266879132
695,0.0240311301547727
696,0.0244410228267542
697,0.0245885231725893
698,0.0244513932772967
699,0.0246159653083315
700,0.0250914514915908
701,0.0250106104927738
702,0.0255138094641034
703,0.0255979373089215
704,0.0260601576228844
705,0.0260751650286499
706,0.0265015019739968
707,0.0268532739248411
708,0.0268836512880318
709,0.0272359351930832
710,0.0270406252774461
711,0.0270156250711612
712,0.0270379435511074
713,0.026066425732787
714,0.0256943540715076
715,0.0247293715782026
716,0.0239026025866867
717,0.0235645618216934
718,0.0235336368376731
719,0.023792032936177
720,0.0240312793151877
721,0.023857997373886
722,0.0243606568313912
723,0.0242338381692294
724,0.0244473115838294
725,0.024518388423031
726,0.0245096003828626
727,0.0249890346333585
728,0.0254015219025303
729,0.0259964887140911
730,0.0264080600656255
731,0.02704418642706
732,0.0276638359231529
733,0.0283424117813135
734,0.0286775331677666
735,0.0288735095083951
736,0.0293355452768297
737,0.02942676367299
738,0.0295179820691504
739,0.0296092004653107
740,0.0301018166227917
741,0.0302409174750695
742,0.0304016601914128
743,0.0305624029077561
744,0.0307231456240994
745,0.0307737242915795
746,0.0306489008919328
747,0.0308046637192293
748,0.0305780414635512
749,0.0308090039426949
750,0.0309765894138666
751,0.0306822797625411
752,0.0310516005237639
753,0.0308653222743699
754,0.0298484669087991
755,0.0273843054079149
756,0.0249201439070306
757,0.0224559824061464
758,0.0188032978637127
759,0.0160573820195255
760,0.0146455227139225
761,0.0144794117625475
762,0.0154727367393485
763,0.017355559750166
764,0.0195926977542069
765,0.021807652557381
766,0.0242769587467703
767,0.026644851097094
768,0.0280219465423156
769,0.0290328872589157
770,0.0298774640684516
771,0.0302321373895533
772,0.0307253903339031
773,0.0310247708035647
774,0.0309475699764253
775,0.0310869138626599
776,0.0312593571859725
777,0.0308186521504237
778,0.0314331196394335
779,0.0309951207867026
780,0.0314262871985569
