"wavelength","measurement"
380,0.00771622307973049
381,0.00752883216827108
382,0.00747528678829989
383,0.00727592766493277
384,0.00746764544403018
385,0.00778335081190464
386,0.00814496083603192
387,0.00849251759634319
388,0.00880204295872491
389,0.00912088231338303
390,0.00901133544384851
391,0.00906478161036375
392,0.00922147479923709
393,0.00932552569120326
394,0.00954653274212911
395,0.0105055658819941
396,0.0114698423770672
397,0.0128198456408466
398,0.0141698489046261
399,0.0155198521684055
400,0.0161674022368309
401,0.0172097440490748
402,0.0179388064990049
403,0.0181152599280659
404,0.0183791786938466
405,0.0184164333737977
406,0.0188403231247917
407,0.0190141329019504
408,0.0192930014406669
409,0.0196420602005144
410,0.0206760567521114
411,0.0208002231747448
412,0.0212589601839144
413,0.0216738759027032
414,0.0215070693310024
415,0.0216927474502731
416,0.0215395171542057
417,0.0213256716619661
418,0.0215369634666536
419,0.0211563528786094
420,0.0214772261994127
421,0.02140356577787
422,0.0214612176587205
423,0.0215876546821481
424,0.0216188040031684
425,0.021033973552016
426,0.0207662775106749
427,0.02010332189374
428,0.0195086562760323
429,0.0195194965498458
430,0.0197216831250275
431,0.0202555303957593
432,0.0210196142719298
433,0.0217277615842099
434,0.0225569971568931
435,0.022877445547765
436,0.0232528919632478
437,0.0235374180541679
438,0.0238219441450879
439,0.024106470236008
440,0.0242128762609503
441,0.0245849093643584
442,0.0251064550751702
443,0.0252307690407955
444,0.0256438968357243
445,0.026057024630653
446,0.0264701524255818
447,0.0267508564173647
448,0.0268343490134915
449,0.0277082866171999
450,0.0273855413886376
451,0.0272501013667677
452,0.0271514350064652
453,0.0270527686461627
454,0.0269541022858602
455,0.0269456369849448
456,0.026868932511265
457,0.0271586096685838
458,0.0272777622835444
459,0.0276811849783934
460,0.0276867196155397
461,0.0273147369608297
462,0.028124886417821
463,0.0271868975889617
464,0.0269574810549671
465,0.0267609612472366
466,0.0264859123674922
467,0.0264408598074006
468,0.0261410656512086
469,0.0259892503038822
470,0.0266428631142739
471,0.026644563292805
472,0.0268466900499464
473,0.0270781509146912
474,0.0271607805371204
475,0.027503829238386
476,0.0269579834024588
477,0.0269535303780312
478,0.0269490773536036
479,0.026944624329176
480,0.0268140152180097
481,0.0261219301718484
482,0.0257324967659846
483,0.025654076193167
484,0.0251898740477202
485,0.0246366845864882
486,0.0250640085731256
487,0.0252557005607556
488,0.0254934288499182
489,0.0261487968443519
490,0.0262449108039683
491,0.0264644510525323
492,0.0270342224056916
493,0.026662526991842
494,0.0270607324486216
495,0.0265692132678966
496,0.0266481398969176
497,0.0261681680016334
498,0.0262480823825673
499,0.0256667657282575
500,0.0257291423833109
501,0.0255783335007271
502,0.0259843584472686
503,0.0261261034735022
504,0.0257420913556318
505,0.0265678236353724
506,0.0263993921783716
507,0.0263656916628412
508,0.0265124886375774
509,0.026339562571639
510,0.0258906259700366
511,0.0261069593166608
512,0.0257891798664828
513,0.0250047373936778
514,0.0248152392331429
515,0.024374471825663
516,0.024258145312538
517,0.0242196391545323
518,0.0240624690461905
519,0.0244939937986915
520,0.024924886218037
521,0.0250771817628944
522,0.0252294773077518
523,0.0253817728526092
524,0.0251815704589892
525,0.0251832046995014
526,0.0251592201220501
527,0.0249922849251668
528,0.0250926498430063
529,0.0252686629024624
530,0.0252191586622686
531,0.0252541436669026
532,0.0251057062661826
533,0.0253497098097811
534,0.0254588475419822
535,0.0251224822737831
536,0.0252959693441904
537,0.0250504945814208
538,0.0248762845855171
539,0.0246876147446227
540,0.0248981588949537
541,0.0245990635723816
542,0.0244572682956133
543,0.0245520382922297
544,0.0245493384336881
545,0.0243993603242114
546,0.0244999710078835
547,0.02448077003481
548,0.0244615690617366
549,0.0244423680886632
550,0.0242515826697802
551,0.0244263979273421
552,0.0246253060231935
553,0.0242988618290439
554,0.0242060583202669
555,0.0244603220750223
556,0.0240579769606876
557,0.0239422674487384
558,0.023807557593478
559,0.0235893972567914
560,0.0239149193680181
561,0.0233191868900642
562,0.0236239832887555
563,0.0232502180957248
564,0.0233572477925968
565,0.022977265473088
566,0.0227754669567585
567,0.0226257702373219
568,0.0226224845990287
569,0.0224521725869957
570,0.0223711166810402
571,0.0224329433264562
572,0.0224030954501123
573,0.0223460549179741
574,0.0224658687201568
575,0.0222566464406153
576,0.0223809578611978
577,0.0225052692817802
578,0.0226295807023627
579,0.0227538921229452
580,0.0228782035435276
581,0.0231423055136456
582,0.0230472816461305
583,0.0232367074695554
584,0.0228806461973832
585,0.0228288860446883
586,0.0223306053605722
587,0.0221387031442416
588,0.0219857139708418
589,0.021832724797442
590,0.0216797356240422
591,0.0217887940895912
592,0.0219987874169773
593,0.0220006562654449
594,0.0223036339812272
595,0.0222140444073526
596,0.0223583043557404
597,0.0224262232710558
598,0.0223951495975624
599,0.0223843852225298
600,0.0225825928188211
601,0.0227357669477685
602,0.0228649823858551
603,0.022718917575457
604,0.0228878279654978
605,0.0227331985048206
606,0.0227907183649494
607,0.0227236756377075
608,0.0224503613202909
609,0.0224061047659007
610,0.0223027846978585
611,0.0221177083440769
612,0.0219777775821113
613,0.0219368700597081
614,0.0217160359297114
615,0.0220635246793929
616,0.021765358744618
617,0.0219785628446601
618,0.0218876891125453
619,0.0220463236485051
620,0.0219192297531047
621,0.0220962821781162
622,0.0215797292846567
623,0.0215557190414573
624,0.0214098347647691
625,0.0212639504880809
626,0.0211180662113927
627,0.0209895697540094
628,0.0209518558295414
629,0.0209284729943584
630,0.021202579327973
631,0.0209087504057183
632,0.0211800297554891
633,0.0212898277534132
634,0.0213709387725045
635,0.0214970238880394
636,0.0213679065243388
637,0.0215925997408564
638,0.0215016746171283
639,0.0216343601282602
640,0.0215630370265439
641,0.0214727913001518
642,0.0214769750524645
643,0.0213718468331109
644,0.0212667186137574
645,0.0211615903944039
646,0.0214037968512087
647,0.0213871978690591
648,0.0210864416034253
649,0.0214269602352722
650,0.0212107285106398
651,0.0213793840831939
652,0.0210394172751068
653,0.0208393201746476
654,0.0204485002552355
655,0.0207882798790827
656,0.0206470067793432
657,0.0209320444385338
658,0.0210649491749656
659,0.0215170352617327
660,0.0217581580926219
661,0.021803230194552
662,0.0219020804380098
663,0.021842827216205
664,0.0217280179463128
665,0.0217997219744209
666,0.0218724318851296
667,0.0219589102345981
668,0.0218438675702949
669,0.0215980643396739
670,0.021787936767009
671,0.0216850667626142
672,0.0217169781814512
673,0.0217811559142048
674,0.0218406275947036
675,0.0218687865114464
676,0.0218348745496883
677,0.0220676957704013
678,0.02184466822926
679,0.0218645893160722
680,0.0223871145472745
681,0.0218808486227425
682,0.0212951952321307
683,0.0208127552059744
684,0.0198979839240757
685,0.0192125963255051
686,0.0186343340392237
687,0.0184658994077761
688,0.01848382284314
689,0.0188215757236475
690,0.0193471757571214
691,0.0200167819976055
692,0.0203878311592392
693,0.0207803008030068
694,0.0212236002213636
695,0.0213419628643074
696,0.0216835182872383
697,0.0219344596314575
698,0.0217555662597464
699,0.0220095663461092
700,0.0223998994517729
701,0.0224539915581682
702,0.022840048042282
703,0.0228995366832223
704,0.0234387801025271
705,0.0234367246929098
706,0.0238386975994478
707,0.0242190903260142
708,0.0242004876259459
709,0.0245658226756111
710,0.0244657682333689
711,0.024490999791908
712,0.0245366228375571
713,0.0236732397521296
714,0.0233577691572447
715,0.0224566853647014
716,0.0218461041234074
717,0.0215656144228602
718,0.021401139793387
719,0.0216691160680155
720,0.021983622384989
721,0.0218064540437135
722,0.0224309420834802
723,0.0224142130945917
724,0.0224589414705127
725,0.0226709198623816
726,0.0226605782706386
727,0.0231108655903883
728,0.023467703052153
729,0.0240634238871252
730,0.0245762110892718
731,0.0251842755413461
732,0.025728280722661
733,0.0265058480242667
734,0.0268424459011164
735,0.0269920466674206
736,0.0272125722343536
737,0.0274196785332532
738,0.0276267848321528
739,0.0278338911310524
740,0.0282502694849724
741,0.0283955109227817
742,0.0285879325530926
743,0.0287803541834034
744,0.0289727758137142
745,0.0291277148509852
746,0.0289377443999806
747,0.0291968863308409
748,0.0289802245872421
749,0.0291728995359718
750,0.0293388701484824
751,0.029205592303767
752,0.0297046535423417
753,0.0293320890849264
754,0.0283697016618501
755,0.0260207749520173
756,0.0236718482421844
757,0.0213229215323516
758,0.0179210265476463
759,0.015181911262735
760,0.0139554478401908
761,0.0138622064628472
762,0.0146996485851627
763,0.0165583339748824
764,0.0187669999224772
765,0.020843296437673
766,0.0233330986302546
767,0.0255000698371102
768,0.0268579873966188
769,0.0278611354396058
770,0.028714355409408
771,0.0291884577566346
772,0.0294312483755554
773,0.0299318964375545
774,0.0297132993864666
775,0.0299158706758447
776,0.0299304508063895
777,0.0296836325529353
778,0.0301714498921915
779,0.0298375052341737
780,0.0302156446263177
