"wavelength","measurement"
380,0.0345178671985731
381,0.0338369555468343
382,0.0343375998177003
383,0.0334996991180396
384,0.0344684942643421
385,0.0345366453517181
386,0.0367643119154193
387,0.0403061377909035
388,0.0416928335303861
389,0.0445009881280648
390,0.0430409489189704
391,0.0447826073173092
392,0.0464044269976968
393,0.0470266498886098
394,0.0491531055073196
395,0.0535187787866871
396,0.0604692212922835
397,0.0688663520601687
398,0.0772634828280539
399,0.0856606135959391
400,0.0930246408603182
401,0.100936327977747
402,0.107143436389881
403,0.110638812484059
404,0.114224823842858
405,0.116279005929508
406,0.120941011818022
407,0.124290004221801
408,0.12788024590825
409,0.13189043391735
410,0.138825769955663
411,0.141971863461037
412,0.147223664858961
413,0.151886964973857
414,0.153623546311093
415,0.157133719337603
416,0.156462328398804
417,0.156038895022861
418,0.158538588726083
419,0.157445910397084
420,0.161467005266292
421,0.162286968677217
422,0.1636551319969
423,0.163931461537175
424,0.165944388482669
425,0.163146580885561
426,0.162781897714154
427,0.15762000072017
428,0.153147689859087
429,0.152318412802913
430,0.153106383026584
431,0.157250220237369
432,0.16307389409079
433,0.167985582776901
434,0.175905236561969
435,0.180277167395877
436,0.181412568585807
437,0.185005262337254
438,0.188597956088702
439,0.192190649840149
440,0.193003190296166
441,0.195416412850898
442,0.200580971871863
443,0.201918552708691
444,0.204783215444532
445,0.207647878180373
446,0.210512540916213
447,0.213363050917743
448,0.214774582161988
449,0.222697716677886
450,0.2215117724932
451,0.22134827071275
452,0.220319315591894
453,0.219290360471037
454,0.218261405350181
455,0.218065645224316
456,0.218267957722298
457,0.21873031671718
458,0.221728227702937
459,0.224761721866634
460,0.225956214883602
461,0.223027738421942
462,0.230425322228378
463,0.22287364167099
464,0.221703863935383
465,0.22044641161315
466,0.217974522857276
467,0.21778796824511
468,0.215250272654252
469,0.214294868084218
470,0.219255613419848
471,0.219686392723646
472,0.221227820499526
473,0.224667996049146
474,0.226370048954338
475,0.230273146406501
476,0.22594088420406
477,0.226590364944685
478,0.22723984568531
479,0.227889326425935
480,0.228064681354667
481,0.222955207117738
482,0.219037324524212
483,0.2186983176508
484,0.212373412736078
485,0.208223120083701
486,0.209256345647757
487,0.211194806334476
488,0.212925604833653
489,0.218982366190357
490,0.219668498610423
491,0.221850177558951
492,0.226968507416816
493,0.224792080017201
494,0.228567099812366
495,0.226019952766451
496,0.226510331261706
497,0.222110479111774
498,0.223756719234026
499,0.219319624473774
500,0.220262614924362
501,0.217882268813351
502,0.222090402734236
503,0.221557340701357
504,0.219381516199352
505,0.226975560871493
506,0.225843687572952
507,0.226972595318689
508,0.227453824548687
509,0.227784407549042
510,0.224171424722139
511,0.227582404775961
512,0.225519327515454
513,0.218758938927676
514,0.218015632106481
515,0.213737233591371
516,0.211704708651061
517,0.210825031896397
518,0.209643235281057
519,0.213150662247163
520,0.217113652240072
521,0.219763339092247
522,0.222413025944422
523,0.225062712796598
524,0.223608021886955
525,0.224024339962125
526,0.224434501485117
527,0.222930265907733
528,0.224415490909708
529,0.227550364353781
530,0.227686653161897
531,0.228087869631917
532,0.227272364426642
533,0.228521442350496
534,0.229665711901293
535,0.226657157589695
536,0.22944992711701
537,0.227404088720888
538,0.226048007600993
539,0.224216303130843
540,0.225179265848323
541,0.223630672144491
542,0.222639781422416
543,0.223980010205666
544,0.225037499318779
545,0.223832018847187
546,0.225499951593492
547,0.225645168331554
548,0.225790385069615
549,0.225935601807677
550,0.223564858012384
551,0.225399886861456
552,0.227301424952599
553,0.224725008516728
554,0.224127699586231
555,0.226105799151598
556,0.222870859650968
557,0.222129761621609
558,0.221183379115792
559,0.218856320607612
560,0.221598781909698
561,0.217306314530372
562,0.221966713059347
563,0.218464287148152
564,0.219548948471209
565,0.217479398056297
566,0.21535690154945
567,0.212862179140846
568,0.215098141424244
569,0.211457730557315
570,0.212008625141392
571,0.212197203508509
572,0.213221920291731
573,0.212823144853816
574,0.214855837121647
575,0.212284569043877
576,0.213004286339621
577,0.213724003635365
578,0.214443720931109
579,0.215163438226852
580,0.215883155522596
581,0.21883183934514
582,0.217599773664779
583,0.218447691368084
584,0.215448168341986
585,0.214977785076173
586,0.208899643064001
587,0.205742501664209
588,0.203177219778788
589,0.200611937893367
590,0.198046656007946
591,0.199230783872994
592,0.201853870563287
593,0.201762248965005
594,0.205900589882758
595,0.205729836081334
596,0.207562397964509
597,0.209070489780354
598,0.209625945572482
599,0.210059962484794
600,0.212151491306309
601,0.21360378164853
602,0.214501771928519
603,0.214693129860942
604,0.217236815397083
605,0.216300856343607
606,0.216379789935185
607,0.216124730863571
608,0.213291192577365
609,0.213642408486119
610,0.211987497144015
611,0.210747823837795
612,0.209321694431012
613,0.207449089014419
614,0.205948167783679
615,0.208005022238575
616,0.205589382363478
617,0.207552413296132
618,0.20820104151052
619,0.208233323466424
620,0.208068912021931
621,0.210616850826811
622,0.206138519452659
623,0.206479754233267
624,0.205321739363792
625,0.204163724494317
626,0.203005709624843
627,0.202298003227311
628,0.202311473308083
629,0.201034475071545
630,0.203377969156868
631,0.200153527629757
632,0.201813739390304
633,0.203353580378957
634,0.204104801420821
635,0.205501888198653
636,0.202731353420942
637,0.205206385741667
638,0.20387311304481
639,0.204371170081703
640,0.203842501429234
641,0.203398043925548
642,0.201980331639348
643,0.200321632604466
644,0.198662933569584
645,0.197004234534701
646,0.197871982105787
647,0.197109595407267
648,0.193562729525589
649,0.196418151937241
650,0.19471625441883
651,0.197405005443298
652,0.194982376317823
653,0.19256683509629
654,0.18931906003558
655,0.191044169325977
656,0.189419529551588
657,0.19071899405766
658,0.193579589820603
659,0.198413483396496
660,0.201459535751323
661,0.202531152301047
662,0.20393856004159
663,0.203042659615132
664,0.201900507352899
665,0.202872290252824
666,0.203169846060972
667,0.204155839576075
668,0.203892514879173
669,0.201685358375906
670,0.201464324785169
671,0.201648024932284
672,0.200979592261645
673,0.201037023732234
674,0.202158045794006
675,0.201690362198975
676,0.20197036981935
677,0.203040312727196
678,0.201633859723261
679,0.201357028622056
680,0.205378038120405
681,0.202991582478911
682,0.198738537508915
683,0.195965039036198
684,0.189103062510265
685,0.185056994938771
686,0.181103984501092
687,0.177156333162272
688,0.175940705633442
689,0.175821669764776
690,0.177434558983938
691,0.181083805931407
692,0.180895240658304
693,0.183608723272258
694,0.18536698584063
695,0.18636571788977
696,0.189446555525209
697,0.192045064893742
698,0.189871533401294
699,0.190098971488887
700,0.193982032025927
701,0.193902499065518
702,0.197364138531122
703,0.199405833110227
704,0.203594219525387
705,0.205427870366416
706,0.207984490174136
707,0.212383454658572
708,0.214503280914275
709,0.217591821227021
710,0.217557826257703
711,0.218455444970048
712,0.220538273945815
713,0.211261992280184
714,0.208074646471627
715,0.197294959242463
716,0.187364257979797
717,0.179907626414681
718,0.178856105072939
719,0.179923385375876
720,0.183505374228453
721,0.183781832289242
722,0.189880282405528
723,0.190604938057561
724,0.189127381869094
725,0.190902701141151
726,0.190431690712872
727,0.193746933971745
728,0.197849093296213
729,0.203192315659322
730,0.209543036714647
731,0.218976216525345
732,0.227334171903342
733,0.235585248827981
734,0.241124296038234
735,0.24469537740981
736,0.250406438051593
737,0.253605013734802
738,0.256803589418011
739,0.26000216510122
740,0.266224977838826
741,0.269707357237355
742,0.273006113859943
743,0.276304870482531
744,0.27960362710512
745,0.28287084842964
746,0.282463619123879
747,0.285173226786722
748,0.282422180214595
749,0.285140169281363
750,0.286867866063368
751,0.284680914087335
752,0.28866768808388
753,0.28800731948056
754,0.286276947643495
755,0.27041062347426
756,0.254544299305024
757,0.238677975135788
758,0.211069879877768
759,0.185854299272204
760,0.166696002235202
761,0.161648280226356
762,0.167302692086381
763,0.177602884159891
764,0.194743412566054
765,0.211010848186331
766,0.232554026111309
767,0.251556221000612
768,0.26271222965517
769,0.272386869576526
770,0.280381400629519
771,0.284397519889077
772,0.286492137404477
773,0.28980732914707
774,0.289165254496951
775,0.289996929921057
776,0.291514198667669
777,0.288394330261324
778,0.293344079688059
779,0.288697378277993
780,0.293050568164782
