"wavelength","measurement"
380,0.0282219308590963
381,0.0289984297343607
382,0.0299817598866806
383,0.0286844108799628
384,0.0288404935565679
385,0.030693285536545
386,0.0330394540875228
387,0.0356927561121084
388,0.036463897183752
389,0.0392109205691172
390,0.0394378714083485
391,0.041075924936607
392,0.0412118897561863
393,0.0424565614500809
394,0.0440157695576853
395,0.0486897986997955
396,0.0556689748036086
397,0.0642134375784579
398,0.0727579003533071
399,0.0813023631281563
400,0.0868150981584329
401,0.0954564547540689
402,0.102115635230764
403,0.105142210135244
404,0.10805876722418
405,0.111405864809115
406,0.115782463144872
407,0.118269327075309
408,0.122583236003424
409,0.12692810293672
410,0.134344196427077
411,0.138014726310643
412,0.143051989936646
413,0.14722474582024
414,0.150474131819296
415,0.152711734277803
416,0.15264075983597
417,0.15216660876653
418,0.154612306446258
419,0.154530125128373
420,0.156552210070632
421,0.157684386203121
422,0.158234919558109
423,0.160583708080506
424,0.161871063460291
425,0.158256083900474
426,0.157260611468885
427,0.153577530568361
428,0.148678916280714
429,0.147596556969776
430,0.148378356219333
431,0.153291540343447
432,0.158709858334776
433,0.164401596717443
434,0.171263627497678
435,0.175655204206205
436,0.177069263445955
437,0.180309054615277
438,0.183548845784599
439,0.186788636953921
440,0.187454231088856
441,0.190956630574651
442,0.195918029557218
443,0.196518950359226
444,0.199637330124511
445,0.202755709889796
446,0.205874089655081
447,0.208871497766957
448,0.209973660723019
449,0.218779630223055
450,0.216871489224128
451,0.215709350273439
452,0.214971459431611
453,0.214233568589782
454,0.213495677747954
455,0.213132240684845
456,0.213882709242768
457,0.215204279961509
458,0.217091897714157
459,0.219612140390243
460,0.220702208954631
461,0.217870346806439
462,0.225511684090365
463,0.219707931950675
464,0.217207007603719
465,0.216166069693552
466,0.214365660058423
467,0.213309914100198
468,0.211743038085333
469,0.211595066909486
470,0.216131750617741
471,0.216344810241092
472,0.217953347360458
473,0.221938497061491
474,0.222152573833523
475,0.227568524158242
476,0.223293632730764
477,0.224268776988091
478,0.225243921245418
479,0.226219065502746
480,0.225143785748018
481,0.221236976512962
482,0.217864839442614
483,0.217086150663602
484,0.2110507030034
485,0.205622440180669
486,0.207367449040149
487,0.20870886798137
488,0.210231588947152
489,0.217112753876855
490,0.218106470787899
491,0.220014312760133
492,0.224631636657144
493,0.222752524861896
494,0.22621846563329
495,0.2244455829957
496,0.225538402838803
497,0.220675727630345
498,0.222077442903342
499,0.217520640887432
500,0.218485952908447
501,0.216519062063052
502,0.219663594847931
503,0.219998976894713
504,0.218926406858468
505,0.224303529080272
506,0.223892599116855
507,0.224676317998108
508,0.226231682409767
509,0.225973805175501
510,0.221958551973564
511,0.224858498233597
512,0.223783741045983
513,0.21724598963365
514,0.21616646114473
515,0.211682299211517
516,0.209949452201602
517,0.209040391003796
518,0.207875251197489
519,0.211877898836217
520,0.215065370941685
521,0.217543443646568
522,0.220021516351452
523,0.222499589056336
524,0.22198351295153
525,0.220941938392344
526,0.222872473662593
527,0.220753551210604
528,0.221616857727686
529,0.225051119837743
530,0.224729213817918
531,0.225609452153513
532,0.224419060270831
533,0.226771971189269
534,0.227583008137928
535,0.22457445382633
536,0.227336657747488
537,0.225207125514949
538,0.223892891313263
539,0.2214962534473
540,0.223095694291723
541,0.221346254664785
542,0.220547435511998
543,0.221037226925208
544,0.223271829350504
545,0.22163493511441
546,0.223609608663826
547,0.223475910228146
548,0.223342211792466
549,0.223208513356785
550,0.221220852063893
551,0.222842789463102
552,0.225033591965823
553,0.222514184724401
554,0.221826311927712
555,0.22411686526832
556,0.220770800022908
557,0.220296909993745
558,0.218421964621393
559,0.216659357401674
560,0.220226222276758
561,0.215306918917541
562,0.218981890017739
563,0.215735945218144
564,0.216753304354773
565,0.214813537239189
566,0.213381032775427
567,0.210571205001144
568,0.212050258740912
569,0.209502881663868
570,0.209613515813522
571,0.210278223402097
572,0.210288055997296
573,0.210124307893789
574,0.212202077199091
575,0.210222692318146
576,0.210959784762878
577,0.211696877207611
578,0.212433969652343
579,0.213171062097076
580,0.213908154541809
581,0.217217743928532
582,0.215711069900112
583,0.216625325575139
584,0.214267969542746
585,0.212582675748303
586,0.207129344865141
587,0.204194165690499
588,0.201951992152812
589,0.199709818615124
590,0.197467645077437
591,0.198327989644457
592,0.200289432204
593,0.200463258914076
594,0.205154769808238
595,0.204873613423061
596,0.207005853236631
597,0.208107432132739
598,0.208876750746494
599,0.209567634456288
600,0.211874472421487
601,0.213561163358557
602,0.214160825608738
603,0.213802002630339
604,0.217022759732515
605,0.215770538255713
606,0.215997960911902
607,0.215355769636125
608,0.212994214448144
609,0.213376285227466
610,0.211604511063085
611,0.210641278112863
612,0.208615310737938
613,0.208091256008123
614,0.206163187662953
615,0.208679683267846
616,0.206342241205346
617,0.207662936406723
618,0.208136246282327
619,0.20883282395942
620,0.208307555161483
621,0.209902006149698
622,0.20611672820032
623,0.206260877495173
624,0.205198287741029
625,0.204135697986885
626,0.203073108232741
627,0.202910279565152
628,0.202692530959602
629,0.20175835926152
630,0.203241436354603
631,0.201320227423124
632,0.202176284119482
633,0.204038558505575
634,0.204218578756042
635,0.203997713258445
636,0.203580537311866
637,0.205206385741667
638,0.204548352602904
639,0.205317064707564
640,0.204033030254993
641,0.203754996209436
642,0.203112801810678
643,0.201436746911101
644,0.199760692011524
645,0.198084637111947
646,0.198722419475827
647,0.198205618262738
648,0.19424269373574
649,0.19835294516482
650,0.195839757393401
651,0.198040230091124
652,0.195498713292491
653,0.193799463070129
654,0.189882354266394
655,0.192506208083565
656,0.189419529551588
657,0.192342249513968
658,0.195042689214367
659,0.200477095708697
660,0.202495295187715
661,0.203063688082763
662,0.204256750894326
663,0.20449910592743
664,0.203253493427322
665,0.203903614301572
666,0.204362965337263
667,0.204286490668638
668,0.205990646077823
669,0.20208020429771
670,0.203314652804566
671,0.202099663100229
672,0.202525228434179
673,0.202614189725631
674,0.203366688927051
675,0.20403513951923
676,0.203295297245851
677,0.204752275936388
678,0.202204867671717
679,0.201629901383646
680,0.207176780653071
681,0.203539256431499
682,0.199975624975766
683,0.196516569847608
684,0.19048921757055
685,0.18630835278326
686,0.182509809541364
687,0.178084582659027
688,0.17714983087384
689,0.177740842714129
690,0.178766621599257
691,0.182950622022264
692,0.183178501080363
693,0.18475806720093
694,0.18673588145769
695,0.187205838162465
696,0.191368621118678
697,0.192902637452602
698,0.191871314700007
699,0.191797194638529
700,0.196770830217956
701,0.195719947363466
702,0.199660656905379
703,0.20102802793036
704,0.204955979953628
705,0.20693686638015
706,0.209952452387575
707,0.214989727006895
708,0.21600128488037
709,0.219875853020845
710,0.218864337183332
711,0.220193731240694
712,0.222196530395924
713,0.214123010153637
714,0.209710918826456
715,0.198645534780123
716,0.18871907606216
717,0.182708477290525
718,0.181111596111487
719,0.182184468859715
720,0.185125254933292
721,0.185392070847029
722,0.192230266485192
723,0.191297051372998
724,0.192073539901021
725,0.192429438705462
726,0.192226287122305
727,0.197527378777399
728,0.200271393478771
729,0.206009365342215
730,0.212359411447246
731,0.220553478940212
732,0.22926530111504
733,0.23863795258484
734,0.245661890441196
735,0.247503170631532
736,0.252876756126474
737,0.256424184690046
738,0.259971613253619
739,0.263519041817191
740,0.270087236262222
741,0.272169190222829
742,0.275418032664175
743,0.278666875105521
744,0.281915717546867
745,0.284124906075304
746,0.285252851212524
747,0.287939944462
748,0.285766462498325
749,0.288090859122405
750,0.288581757701971
751,0.287175337529847
752,0.29194601808177
753,0.291863406929843
754,0.289559134500206
755,0.273600470702697
756,0.257641806905187
757,0.241683143107677
758,0.213478295368571
759,0.188603034343228
760,0.168203551926879
761,0.163329677829391
762,0.1697490012151
763,0.17960290651228
764,0.197683496045338
765,0.213295651351919
766,0.235206387922543
767,0.255035107657196
768,0.267268144137532
769,0.275225999776169
770,0.283533032815138
771,0.287332975137776
772,0.289798429628819
773,0.295932792326656
774,0.291846832013754
775,0.293573973634637
776,0.294836111170237
777,0.291807457475009
778,0.296111472313631
779,0.291732051219863
780,0.29684725998822
