"wavelength","measurement"
380,0.00386356027139818
381,0.00404315076320563
382,0.00421980443417465
383,0.00416020039305625
384,0.00412446486755026
385,0.00446669332949798
386,0.0047797610419475
387,0.00517374200476828
388,0.00537804056221878
389,0.00586322214452018
390,0.00588189037575989
391,0.00596594941970338
392,0.00615784874508577
393,0.00633808325307984
394,0.00653635184506151
395,0.00719469551435305
396,0.00811946393139333
397,0.00923686916364854
398,0.0103542743959038
399,0.011471679628159
400,0.0122213297877094
401,0.0133181195085117
402,0.0141575787197333
403,0.0147418899790666
404,0.0151526380355679
405,0.0154098576625198
406,0.0160742850603005
407,0.0167317933455201
408,0.0172056258144477
409,0.017854905437582
410,0.0192514006450285
411,0.0194455003099833
412,0.0206413287135183
413,0.0211539873596147
414,0.0216080824204657
415,0.0221750376375956
416,0.0220621313077244
417,0.0223488367095887
418,0.0228588121749385
419,0.0227457842087562
420,0.0232819815652245
421,0.0234507844329688
422,0.0237107046234485
423,0.0241828593112449
424,0.0242052687622026
425,0.0239685866655217
426,0.0239178743081347
427,0.0234892715708581
428,0.0228390553138983
429,0.0228853960739077
430,0.0230093255692744
431,0.0239123955061278
432,0.0248451404212113
433,0.0257143256864857
434,0.027155555326761
435,0.0277221221145526
436,0.0280174003161963
437,0.028597672287977
438,0.0291779442597576
439,0.0297582162315382
440,0.0300923834772102
441,0.0306256059646294
442,0.0316642234833949
443,0.0319096002515301
444,0.0326521723193479
445,0.0333947443871657
446,0.0341373164549835
447,0.034628077893552
448,0.0350086777085812
449,0.0366104028933472
450,0.0365111052465788
451,0.0363777028036945
452,0.0364847250683581
453,0.0365917473330216
454,0.0366987695976852
455,0.0367309999474868
456,0.0368621414240099
457,0.037497840302517
458,0.0378370859508527
459,0.0385223285841179
460,0.0386490733042981
461,0.0383619951743627
462,0.0397117960977436
463,0.0387403946753172
464,0.0384056546301446
465,0.0383020970630035
466,0.0379417339692877
467,0.0380099746770333
468,0.0377002931584726
469,0.0376208785757514
470,0.0384638279858478
471,0.0385499957211521
472,0.038847343263275
473,0.0394371596284471
474,0.039716062519937
475,0.0403291157970011
476,0.039661783711588
477,0.0398056946247868
478,0.0399496055379856
479,0.0400935164511844
480,0.0399946782822965
481,0.0392371687374746
482,0.0386420723781461
483,0.0385697420460557
484,0.0375341905880858
485,0.0367515895768203
486,0.0371532169127062
487,0.0374368705763579
488,0.0378776042276423
489,0.0389795262541292
490,0.0392819501639234
491,0.0396963123365105
492,0.0407871643344296
493,0.0403707098307173
494,0.0411062826288675
495,0.0407153474451811
496,0.0409517733219871
497,0.040361106634866
498,0.0407209320346561
499,0.0398737442335809
500,0.04011120234591
501,0.039837466819532
502,0.0405544940715888
503,0.0408301565421146
504,0.0405600484699822
505,0.041894510060127
506,0.041854018836357
507,0.0421734222889654
508,0.0424191302194046
509,0.042495260042676
510,0.0419423091669905
511,0.0426455287462931
512,0.0424002227922859
513,0.0413040254929192
514,0.04123974292644
515,0.0405119838591849
516,0.0403720874088999
517,0.0402152847456875
518,0.040219978643561
519,0.0409910289757413
520,0.0418988627524984
521,0.0424559532637798
522,0.0430130437750612
523,0.0435701342863427
524,0.0434752528667487
525,0.0436068222580351
526,0.0439687375582924
527,0.0437437366059391
528,0.0439878612408857
529,0.0446526009551432
530,0.0447057088604422
531,0.044928480188263
532,0.044824467133463
533,0.0452502807742303
534,0.0454011968047577
535,0.0449467295837005
536,0.0453956722572406
537,0.0452383122560055
538,0.0448887339748106
539,0.0447339007864902
540,0.0450533244856611
541,0.0446741240958049
542,0.0446096290139273
543,0.0449110411126626
544,0.0451761176510653
545,0.0450036563519335
546,0.0452917572462213
547,0.0451724749036538
548,0.0450531925610862
549,0.0449339102185187
550,0.0446922677646305
551,0.0450319282936366
552,0.0453791869911608
553,0.0449172614493958
554,0.0447823062051082
555,0.0452763985113738
556,0.0446007573564535
557,0.0445552609269967
558,0.0441455099610479
559,0.0438833548740152
560,0.0444009863387937
561,0.0436468622285856
562,0.0444924730414704
563,0.0438134954531381
564,0.0440516182694342
565,0.0434676931890671
566,0.043231122385346
567,0.0427019189294642
568,0.0430025767299528
569,0.0424190097155429
570,0.0423114183182526
571,0.0424457372522868
572,0.0425132139692631
573,0.0424343753482642
574,0.0427794339779638
575,0.0421664763850286
576,0.0422545272016585
577,0.0423425780182884
578,0.0424306288349184
579,0.0425186796515483
580,0.0426067304681783
581,0.043122796667627
582,0.0427910886780776
583,0.0429427291987081
584,0.042202227337449
585,0.0419926180848287
586,0.0404636369908957
587,0.0399668194947989
588,0.0394147522094215
589,0.0388626849240442
590,0.0383106176386669
591,0.0383908993989731
592,0.0387779572486769
593,0.038719386477016
594,0.0394472014041412
595,0.0393087814713683
596,0.039532931771111
597,0.0397882402270473
598,0.0397869020546654
599,0.0398835679219054
600,0.0401333277204087
601,0.0403556925880337
602,0.0405258393535482
603,0.0403334345417034
604,0.0406472016769989
605,0.0404423432876884
606,0.0404943554382816
607,0.0403406258490569
608,0.0398644877047363
609,0.0397684041052533
610,0.0394263833420524
611,0.0391575189140854
612,0.038800855762826
613,0.0385178672859951
614,0.0379372185682909
615,0.0383702905136853
616,0.0376208638772796
617,0.0380638388240524
618,0.0378599148310359
619,0.0379624345488509
620,0.037790754284712
621,0.0379025467170427
622,0.0372291288799603
623,0.0370087766977958
624,0.0367396714714491
625,0.0364705662451024
626,0.0362014610187557
627,0.0360266374028907
628,0.0358938327559081
629,0.0357350566779981
630,0.0359379232406992
631,0.0354041073934659
632,0.0354409978172422
633,0.0355691035908419
634,0.0356227992144518
635,0.0356605610032709
636,0.0352433508362113
637,0.0354938971367245
638,0.0352569811066323
639,0.0352292800531619
640,0.0349302191505143
641,0.03480246447228
642,0.0344825086302148
643,0.0341324467433735
644,0.0337823848565321
645,0.0334323229696908
646,0.0334244328204245
647,0.0331367455743895
648,0.0322837578580371
649,0.0328387805655989
650,0.0323739924170502
651,0.0326714946111558
652,0.0322756457653351
653,0.0316420426140968
654,0.0309945341747173
655,0.0312883997573288
656,0.0306892170534361
657,0.0310766164634682
658,0.0312402447955702
659,0.0320299137291822
660,0.0322060248539992
661,0.0323601108865753
662,0.0324736112427129
663,0.0320778808350697
664,0.031870112104923
665,0.0318281170251859
666,0.0317745727665681
667,0.0317809304055308
668,0.0317630355990609
669,0.0310332675419806
670,0.0311698426190619
671,0.0309962642898606
672,0.0306908889976707
673,0.0306904410921756
674,0.0307289938238266
675,0.0305472402251925
676,0.0304349649019409
677,0.0305052861619378
678,0.0301667322847504
679,0.0300388465768129
680,0.0306318725233235
681,0.029919344589916
682,0.0292795595577011
683,0.0287965696115011
684,0.0278663876887859
685,0.0270104184753214
686,0.0264320220402553
687,0.0258395530416358
688,0.0255838352678097
689,0.0256243852001322
690,0.0258214142399494
691,0.0262528339758344
692,0.0262030612980075
693,0.0262100015691501
694,0.0267941445335577
695,0.0268192301456487
696,0.0273079939748908
697,0.0275125505181576
698,0.0270817559838418
699,0.0271948814056147
700,0.0277251976419883
701,0.0276079935845806
702,0.0280356530084185
703,0.0282266369549559
704,0.0287373359643847
705,0.028866213535691
706,0.0292812870559358
707,0.029645094553014
708,0.0298100798642951
709,0.030082200433782
710,0.0299632573476774
711,0.0298852582484456
712,0.0299818192479694
713,0.0286301822265292
714,0.0279374173954081
715,0.0264859156662982
716,0.0249974459589859
717,0.0238955421397875
718,0.0236717937545706
719,0.0236565977380155
720,0.0240794536652829
721,0.0238574184993995
722,0.0245296930602425
723,0.0243248749040873
724,0.0242259490837611
725,0.0241513654112229
726,0.0241302706653401
727,0.0243798958142293
728,0.0247293014894865
729,0.0251555402560319
730,0.025728906987442
731,0.0267672008491357
732,0.0275008905150259
733,0.0284049391182082
734,0.0290651094346372
735,0.0292551410423266
736,0.0296787369342481
737,0.0298082775479563
738,0.0299378181616645
739,0.0300673587753726
740,0.0306819046899977
741,0.0307184381849621
742,0.0309128829079507
743,0.0311073276309393
744,0.031301772353928
745,0.0311919881533475
746,0.0311553043965586
747,0.0312235913755976
748,0.0306628327682385
749,0.0307152842492687
750,0.0307588207864685
751,0.0304380585773628
752,0.0307288959610595
753,0.0304222872821835
754,0.0300398331007748
755,0.0281789009951524
756,0.02631796888953
757,0.0244570367839076
758,0.0214416217251444
759,0.0188141826602454
760,0.0169436798046518
761,0.0164181192704036
762,0.0169080139723392
763,0.0179154667094569
764,0.0196206285261485
765,0.0209298605030011
766,0.0230189849682509
767,0.0246865371596837
768,0.0258397687007224
769,0.0264166266015022
770,0.0269020973563329
771,0.0271573504667167
772,0.0273513756782523
773,0.027616419445497
774,0.0273796879172933
775,0.0272582590292857
776,0.027319832167145
777,0.0270017944841184
778,0.0269770787973195
779,0.02676249901819
780,0.0268916994341555
