"wavelength","measurement"
380,0.0357423403500765
381,0.0342253841129035
382,0.03520941940865
383,0.0331829055212645
384,0.0350148075807447
385,0.0351424625395585
386,0.0384679369091057
387,0.0410549948269652
388,0.0432874169058092
389,0.0446006192869874
390,0.0465299773116629
391,0.0455915695500453
392,0.0471671443241207
393,0.0490574411636228
394,0.0500190473510666
395,0.0543596034065746
396,0.0604995482488462
397,0.0697114440514977
398,0.0789233398541491
399,0.0881352356568005
400,0.0949364660056136
401,0.103153731957278
402,0.108870983892767
403,0.112159180171209
404,0.115213506039608
405,0.117919163158986
406,0.122359883758058
407,0.1254623464691
408,0.12991447827789
409,0.134226443595516
410,0.143410279324094
411,0.144788594709519
412,0.152059278413197
413,0.156731412991064
414,0.159278651180373
415,0.164079915330945
416,0.162597178748239
417,0.163964476901178
418,0.16669002289741
419,0.167249637285225
420,0.170919623847155
421,0.17162063043233
422,0.174231572521051
423,0.174724965631178
424,0.178437729830506
425,0.175258428912657
426,0.175184367166704
427,0.170664314608314
428,0.166190894793395
429,0.165680967070008
430,0.165807802290406
431,0.171752041587607
432,0.177862634485461
433,0.183904791911252
434,0.191758017245274
435,0.196848680899103
436,0.198255183619321
437,0.201748825226669
438,0.205242466834018
439,0.208736108441366
440,0.210831522820954
441,0.214213598532531
442,0.219208027866687
443,0.220281081197103
444,0.223283630516042
445,0.226286179834981
446,0.22928872915392
447,0.231139233956851
448,0.232044242004232
449,0.240720332289714
450,0.239321782712906
451,0.238090163192945
452,0.236991471620795
453,0.235892780048646
454,0.234794088476496
455,0.234284420180069
456,0.233664438288577
457,0.234582962179258
458,0.236706428769152
459,0.240791984906759
460,0.241051591044566
461,0.238572211802168
462,0.246683445698248
463,0.238844775637775
464,0.236765145800692
465,0.235732524714287
466,0.233359507476773
467,0.232640804113678
468,0.231167819304033
469,0.229701395460515
470,0.234257075961431
471,0.234394785720611
472,0.236643771367451
473,0.239598019449949
474,0.241193953104162
475,0.245505949689621
476,0.240660212801429
477,0.241077931746113
478,0.241495650690798
479,0.241913369635482
480,0.241578463511564
481,0.237693949956622
482,0.233581802705362
483,0.232302855646218
484,0.22611744700722
485,0.220368735464426
486,0.221617079998948
487,0.223056768083167
488,0.225078102996017
489,0.22985320722165
490,0.232188553492104
491,0.23419292803442
492,0.239545262667765
493,0.237156278833904
494,0.241127709672453
495,0.238330284703074
496,0.239435848135257
497,0.235431684914985
498,0.236718141106305
499,0.23088242912243
500,0.232269170125904
501,0.229123864652935
502,0.232480527397314
503,0.232958448765597
504,0.230544199929727
505,0.23719847908894
506,0.237051657769106
507,0.237611164667703
508,0.238949042539443
509,0.238364418286468
510,0.234230446717756
511,0.2369372627081
512,0.235978331071104
513,0.229273980230482
514,0.227233451727718
515,0.222893047947728
516,0.220739944568261
517,0.219147918120807
518,0.217732838678636
519,0.221587504548611
520,0.225070663249853
521,0.227499946176881
522,0.229929229103909
523,0.232358512030938
524,0.231416286605977
525,0.230744346660455
526,0.231873893307957
527,0.229889031013156
528,0.230764070875983
529,0.233654146072211
530,0.234019124171102
531,0.233718921465775
532,0.233427144868368
533,0.235148479645522
534,0.235763998846729
535,0.233169948675254
536,0.234137030733105
537,0.23348123519805
538,0.230989642917174
539,0.229231965347023
540,0.230827425102406
541,0.228406227335448
542,0.227329033634205
543,0.228529072207899
544,0.229352143025031
545,0.228443228443397
546,0.229594895475961
547,0.229297795975786
548,0.229000696475611
549,0.228703596975437
550,0.227325535556602
551,0.22884402740148
552,0.23107174909247
553,0.228713649932583
554,0.22831446839929
555,0.230295821232287
556,0.226729768522809
557,0.225813160874045
558,0.224878906624194
559,0.22206342144276
560,0.225663050187726
561,0.222279036535863
562,0.225706197799696
563,0.222009415725077
564,0.223557088167408
565,0.220834739027518
566,0.219159528275075
567,0.216416273733516
568,0.218165360823429
569,0.216332075131002
570,0.216387411742965
571,0.216871506245437
572,0.217413584742251
573,0.216939978156098
574,0.219212979165173
575,0.216661698931965
576,0.217544484312647
577,0.21842726969333
578,0.219310055074012
579,0.220192840454695
580,0.221075625835377
581,0.223868443283772
582,0.222580381575513
583,0.223794959176405
584,0.221274009567169
585,0.22010546118765
586,0.213922285467361
587,0.210662237588003
588,0.208279175536519
589,0.205896113485034
590,0.20351305143355
591,0.20407204528999
592,0.206854302091617
593,0.207497622384363
594,0.21150535220721
595,0.211841870235019
596,0.214247070448457
597,0.21436984490256
598,0.215002055600409
599,0.215947929737659
600,0.218389118217886
601,0.220088527060754
602,0.22117563524384
603,0.221285575529938
604,0.223657520482468
605,0.222924744590321
606,0.223873666439403
607,0.222091496011726
608,0.220118325924887
609,0.220480452795116
610,0.218772418959885
611,0.217607509396969
612,0.215423269560302
613,0.21504468318175
614,0.212901505327281
615,0.215694532465174
616,0.213118338169887
617,0.215234170521304
618,0.215334725856543
619,0.216186051477348
620,0.215797720452345
621,0.217975449048347
622,0.213707252207764
623,0.214522110589684
624,0.213352411035756
625,0.212182711481828
626,0.211013011927901
627,0.210786358591326
628,0.210027622802019
629,0.209228668525468
630,0.211185972407984
631,0.208692174616401
632,0.209476917388462
633,0.211308113001805
634,0.21111806836482
635,0.212703595154726
636,0.210989956813842
637,0.21343801171144
638,0.2124243243619
639,0.213215778348106
640,0.212136889813066
641,0.21217493474865
642,0.210415650509803
643,0.209126538740265
644,0.207837426970727
645,0.206548315201188
646,0.205551208451317
647,0.20649379428612
648,0.201684993475536
649,0.205928822137933
650,0.20341285856052
651,0.206126299348018
652,0.203885718430865
653,0.201626182719878
654,0.198096589035075
655,0.200219569144805
656,0.197641773721809
657,0.200378068040507
658,0.202415237715219
659,0.208709091148646
660,0.210801046572099
661,0.212191859107742
662,0.213495207007417
663,0.213239784857804
664,0.212780067990956
665,0.213129047603238
666,0.213618679373651
667,0.214092037565537
668,0.214689242235478
669,0.211470344569111
670,0.211974157602044
671,0.211997168558111
672,0.210827145471093
673,0.211659920015212
674,0.212536562401254
675,0.212066202783197
676,0.212261643555692
677,0.214000835977052
678,0.211671475091272
679,0.210550216206361
680,0.215962588480877
681,0.212280204292897
682,0.209706521813824
683,0.204926499531173
684,0.198749343026636
685,0.193799812949283
686,0.19039740007781
687,0.18548133233492
688,0.184545670242025
689,0.184372251558466
690,0.185930836742767
691,0.188801962362929
692,0.189400166165597
693,0.190743996890895
694,0.192406166621222
695,0.192733109638586
696,0.196080706469978
697,0.198297817224558
698,0.195953661630822
699,0.196276484053048
700,0.200038067386059
701,0.199315198678462
702,0.202356883139882
703,0.203892036106695
704,0.207316461678986
705,0.208227617371329
706,0.212716620162688
707,0.214892575717593
708,0.216518471068016
709,0.220280804760247
710,0.218610356131019
711,0.219353529886054
712,0.221014595310101
713,0.212002143194289
714,0.208267351172381
715,0.196796924710068
716,0.186594257329814
717,0.178977733330694
718,0.177327681528289
719,0.177688006386892
720,0.181297749041941
721,0.180938898344369
722,0.1871615777885
723,0.186774839111052
724,0.18632538057888
725,0.187161239225844
726,0.186361628500596
727,0.189478913845173
728,0.193332826915138
729,0.198637692664791
730,0.204581423350281
731,0.213445762868417
732,0.22140179248639
733,0.230347088768824
734,0.235765576243942
735,0.238729272997107
736,0.243206716682947
737,0.246711409041381
738,0.250216101399815
739,0.253720793758249
740,0.259248270715813
741,0.261417451756232
742,0.265014424232959
743,0.268611396709685
744,0.272208369186412
745,0.27359576645354
746,0.274982119825623
747,0.276979503630396
748,0.27485846471127
749,0.276162950681505
750,0.278734023458519
751,0.27602096225862
752,0.279638510839058
753,0.280625540800347
754,0.277281327272971
755,0.262056843798808
756,0.246832360324644
757,0.231607876850481
758,0.205488706684411
759,0.180482466612977
760,0.161951474529686
761,0.156603570977745
762,0.161532207651072
763,0.172830528889733
764,0.188990142731029
765,0.204689705259595
766,0.225270222505571
767,0.244663859307412
768,0.25566310448351
769,0.264386730454398
770,0.271634018852187
771,0.275464488652597
772,0.276291505105221
773,0.283001030872445
774,0.281566224887164
775,0.283006933107138
776,0.283616388023376
777,0.280069372898908
778,0.283924819165447
779,0.280353359100911
780,0.284272235168109
