"wavelength","measurement"
380,0.00662707747875798
381,0.0066073675380376
382,0.00664428820181861
383,0.00665379562631254
384,0.00668742061375348
385,0.00708621620394092
386,0.0076328898780075
387,0.00816554259864545
388,0.00850610616054763
389,0.00898779094649127
390,0.0089399991756525
391,0.00910205366476749
392,0.00916883112722402
393,0.00929583570212309
394,0.00949461050206416
395,0.0101478646648953
396,0.0113515468804672
397,0.0126078793365629
398,0.0138642117926587
399,0.0151205442487544
400,0.0161285633291325
401,0.0169715692930268
402,0.0178961869607339
403,0.0180464341001721
404,0.0182489637212101
405,0.0183372603880416
406,0.0186399479873315
407,0.0187148170499154
408,0.0188629408854426
409,0.0192128851106829
410,0.0199392301064914
411,0.0199527431186826
412,0.0206962891529748
413,0.021007670513524
414,0.0210060146256899
415,0.021208237945296
416,0.0208888097553807
417,0.0209086211316587
418,0.0210574524696468
419,0.0206804055262892
420,0.0209393530256411
421,0.0209877408168004
422,0.0211330644075114
423,0.0212520763732465
424,0.0212397522817429
425,0.0209342769799923
426,0.0207876137267032
427,0.0202065372161095
428,0.0196771880998737
429,0.0194825474219884
430,0.0194570722341775
431,0.0203012397735645
432,0.0211629870434761
433,0.022005295476139
434,0.0232001516933278
435,0.0235288738557879
436,0.0238148037701806
437,0.0239469866452328
438,0.0240791695202849
439,0.0242113523953371
440,0.0243491702241046
441,0.024605722644456
442,0.0252183918889876
443,0.0254002939141069
444,0.0258240079495351
445,0.0262477219849634
446,0.0266714360203917
447,0.0270061349676957
448,0.0271425658493656
449,0.0282278125162728
450,0.028085064843148
451,0.0278835413922052
452,0.0278487980687559
453,0.0278140547453067
454,0.0277793114218574
455,0.0278348174544694
456,0.0278044927299389
457,0.0280664707974785
458,0.0282775139572545
459,0.0287119246705512
460,0.0287438436335728
461,0.0284452923561897
462,0.029295195644846
463,0.0284999244028835
464,0.0282624627132063
465,0.0279804872579966
466,0.0275955244397872
467,0.027511829527164
468,0.0272293000825093
469,0.0270293860107849
470,0.027698221239448
471,0.0275294885504607
472,0.0276882456686406
473,0.0279864568493723
474,0.0281901169561025
475,0.0285824265699074
476,0.0279058274331327
477,0.0279459796933483
478,0.0279861319535638
479,0.0280262842137794
480,0.0279106942516775
481,0.027331267600786
482,0.0268969554538682
483,0.0267336034966411
484,0.0261347589076236
485,0.0255557924194677
486,0.0258966695138525
487,0.0260293436230228
488,0.0261980022487446
489,0.0269226255366889
490,0.0270833864389569
491,0.0271573340866621
492,0.0277567064759078
493,0.0274385012241334
494,0.027798875555283
495,0.0273638574107104
496,0.0274528815978058
497,0.0269401097542881
498,0.027032071854933
499,0.026392365462444
500,0.0263988026695688
501,0.0261498011539443
502,0.0265911581866478
503,0.0265379962229292
504,0.0263097338685567
505,0.0270909171775642
506,0.0269630145197034
507,0.0271221646521942
508,0.0272574720057171
509,0.0272093885783645
510,0.0267850760579163
511,0.0271534762442748
512,0.0269467725294781
513,0.0262054142615625
514,0.0259877712200747
515,0.0256009861942051
516,0.0253700514155519
517,0.0252822268039326
518,0.0251675967332089
519,0.0255892199518325
520,0.0260892704818285
521,0.0264043422258911
522,0.0267194139699537
523,0.0270344857140163
524,0.0268649674111737
525,0.026848416781149
526,0.0269487413809981
527,0.0267479116590511
528,0.0269214205378519
529,0.0272744596575174
530,0.0272761436158695
531,0.0273733437404491
532,0.0272782519060988
533,0.0275217283441676
534,0.027643388497893
535,0.0273960874256437
536,0.0276763276959234
537,0.0276505740251745
538,0.0277100279319278
539,0.0278635754760584
540,0.0284412826666614
541,0.0287661403623077
542,0.0290602903279281
543,0.0295663817071187
544,0.0297835699196078
545,0.0293510009361274
546,0.0293326666864002
547,0.0288182268651223
548,0.0283037870438444
549,0.0277893472225665
550,0.0271304363182225
551,0.0271975279570064
552,0.0272867174037611
553,0.0268710677140822
554,0.0266192529265835
555,0.0268043936361526
556,0.0262697775535272
557,0.0261131663685243
558,0.0259695767231969
559,0.02575772218155
560,0.0260390611834068
561,0.0255256007764657
562,0.0258436660249205
563,0.0254843751249031
564,0.025519969772996
565,0.0251362508717021
566,0.0249370651283198
567,0.0246481159257888
568,0.0246574558685226
569,0.0243432354065797
570,0.0243148291904471
571,0.0243012081259809
572,0.0242925026131298
573,0.0242572884635551
574,0.024445842678036
575,0.0241483176070123
576,0.0242318139137396
577,0.024315310220467
578,0.0243988065271944
579,0.0244823028339218
580,0.0245657991406492
581,0.024882091152947
582,0.0246368947414859
583,0.024735892352634
584,0.0243012969171465
585,0.0240595700990757
586,0.023207173319683
587,0.0227284749164198
588,0.022274412440306
589,0.0218203499641922
590,0.0213662874880785
591,0.0213899750818228
592,0.0215403916875904
593,0.0215173107409338
594,0.0217373292116049
595,0.0216826138975201
596,0.0217823398861136
597,0.0218750892180526
598,0.0218742931329938
599,0.0219593827408657
600,0.0221152984243698
601,0.0221964533755712
602,0.0223173046993883
603,0.0221070060814884
604,0.0223455191800062
605,0.0221840908480432
606,0.0223143455053491
607,0.0226144876973284
608,0.022819524289321
609,0.0233058066103417
610,0.0234084659614074
611,0.0234484146044127
612,0.0231303990498095
613,0.0226164725464748
614,0.0217923062295425
615,0.0216130834070022
616,0.0210821196652329
617,0.0210576626709327
618,0.0208136546507274
619,0.0207995842256213
620,0.0206082711865115
621,0.020679878297962
622,0.0201328422502489
623,0.0200780254075562
624,0.0198451746680386
625,0.0196123239285209
626,0.0193794731890033
627,0.0192657262022954
628,0.0192001719727638
629,0.0190537503384976
630,0.019173220884649
631,0.0187531791669864
632,0.0187317298449901
633,0.0187875803716288
634,0.0186348382819049
635,0.0186750378914465
636,0.0183833733479529
637,0.0185571013532105
638,0.0183251499453731
639,0.0183133033627107
640,0.0181455599029881
641,0.0179935339777017
642,0.0178790767241786
643,0.0176059028320577
644,0.0173327289399368
645,0.017059555047816
646,0.0170286636531061
647,0.0169797464012516
648,0.0165064615600115
649,0.0167470140245707
650,0.0165445460686948
651,0.0167240788738431
652,0.0163551615259454
653,0.0161319189166184
654,0.0157434725982539
655,0.0158771009210888
656,0.0156353218612877
657,0.015763567366087
658,0.0159778838606897
659,0.0162654374792887
660,0.0164103175164994
661,0.0164492660461771
662,0.0164703817996825
663,0.0163908279191377
664,0.0161816767643969
665,0.0162480260485445
666,0.0161530492477847
667,0.016175807440222
668,0.016089197222118
669,0.015719140066025
670,0.0157497242271422
671,0.0156346497767839
672,0.0156242978648204
673,0.0154972590695444
674,0.015522894816467
675,0.015469061803147
676,0.0153796508431978
677,0.0154555803340185
678,0.0151640019081008
679,0.0151617305786867
680,0.0153661036510438
681,0.0150433992188936
682,0.0146785859769228
683,0.0143852048409145
684,0.0138705624278735
685,0.0134058348875014
686,0.0131186509947098
687,0.0127358547623012
688,0.0125205095663336
689,0.0124830247218524
690,0.012586690006384
691,0.012692670165647
692,0.012715350168037
693,0.0127894010438565
694,0.0129571376943075
695,0.0129545330158915
696,0.0132135224117849
697,0.0131817248993921
698,0.0130651457604057
699,0.0130905778577136
700,0.0132659724080916
701,0.0131823853103424
702,0.0134414876089846
703,0.013624517746782
704,0.0139268342668851
705,0.0140488439895913
706,0.0143104050111545
707,0.0146200618953937
708,0.0146705033939625
709,0.0148425416315095
710,0.0146719971284921
711,0.014663697526994
712,0.0147185079861843
713,0.0140009297038184
714,0.0135030821730291
715,0.0127026867546994
716,0.0118498263059912
717,0.0113760135698652
718,0.0112116427317366
719,0.0112673403366093
720,0.0114008881231885
721,0.011415549346736
722,0.011732047176673
723,0.0116052923332908
724,0.0116519847265118
725,0.0116012354847505
726,0.0116210291357289
727,0.0117250972038886
728,0.0119856415895486
729,0.0122856584968713
730,0.0127502573625133
731,0.0133229995198467
732,0.0137730265630789
733,0.0142785396412972
734,0.0145992132017593
735,0.0146901684116544
736,0.0150268527542648
737,0.0152009076087205
738,0.0153749624631762
739,0.0155490173176319
740,0.0159189458210508
741,0.0160315387816016
742,0.0161684334080841
743,0.0163053280345666
744,0.0164422226610491
745,0.0165387113857684
746,0.0164184102362739
747,0.0165140420363862
748,0.0162513179663255
749,0.0163805239242567
750,0.0163226382235993
751,0.0161425429306937
752,0.0163921701638383
753,0.0160954726691098
754,0.0160116913937918
755,0.0149873807221178
756,0.0139630700504438
757,0.0129387593787699
758,0.0113354456095005
759,0.00991080173420556
760,0.00881288928455403
761,0.00858819377948498
762,0.00874707856092468
763,0.00935451539528974
764,0.0102588445541869
765,0.0110150168399708
766,0.0121629556487365
767,0.0132868885555007
768,0.0137911323638032
769,0.0142241682144511
770,0.0144731269523411
771,0.0146094757192879
772,0.0147733760418498
773,0.0149980422014154
774,0.0147374556874447
775,0.0148246834544885
776,0.0148132281064999
777,0.0146705880341923
778,0.0147804505025907
779,0.0144976121190126
780,0.01466550833507
