"wavelength","measurement"
380,0.00670554287438606
381,0.00658642072264006
382,0.00664140435579796
383,0.00659267078063947
384,0.00673995862462114
385,0.00716186487804157
386,0.00771800570517103
387,0.00810690795567024
388,0.00857660851790009
389,0.00899628667584153
390,0.00903759859238781
391,0.00903638761962951
392,0.00916874046909489
393,0.00933134420947754
394,0.00963672552662909
395,0.0101861202843905
396,0.0113840731770323
397,0.0127063109149763
398,0.0140285486529203
399,0.0153507863908642
400,0.0162824798094812
401,0.0173072783550502
402,0.0180631799486854
403,0.018265623664484
404,0.0184628628691596
405,0.0184459305407342
406,0.0188143017171324
407,0.018929808421325
408,0.0190208025858823
409,0.019343500659841
410,0.0202465143319428
411,0.0202357027902267
412,0.0207757016656
413,0.0212212647545131
414,0.0212212115821835
415,0.0214344650913645
416,0.0211894342801814
417,0.0210388067595471
418,0.0212850040695201
419,0.0208088339759326
420,0.0212711267075732
421,0.0211921901397678
422,0.0213140912065636
423,0.0214325217761801
424,0.0215911757636781
425,0.0211254129358967
426,0.0208843117887526
427,0.0203780060794817
428,0.0196913034206196
429,0.019594209308139
430,0.0196758133831597
431,0.0204392097345785
432,0.0213293940332517
433,0.0222172022955643
434,0.0233198272347928
435,0.0237952080984554
436,0.0239818738056783
437,0.0241577014918058
438,0.0243335291779332
439,0.0245093568640607
440,0.0245221974290511
441,0.0249037647014539
442,0.0254858751431841
443,0.025662169287492
444,0.0260709702758347
445,0.0264797712641774
446,0.0268885722525201
447,0.0273147016167404
448,0.0273846440942692
449,0.0285115728744939
450,0.028327908854154
451,0.0281674590663092
452,0.0281105580332735
453,0.0280536570002379
454,0.0279967559672022
455,0.0280184408231246
456,0.0279996460616035
457,0.0283565964688483
458,0.028509770078426
459,0.0289893874073336
460,0.028948601361571
461,0.028688667213362
462,0.0295341561520741
463,0.0286903178367369
464,0.0283613481747446
465,0.0282003063316318
466,0.0277880965300404
467,0.0277677855261803
468,0.0274651631715512
469,0.0272545141891445
470,0.0277674994828558
471,0.0277359479577223
472,0.0278869734101088
473,0.0281977447079507
474,0.0283270581266923
475,0.028719596917246
476,0.028106336388677
477,0.0281131701548696
478,0.0281200039210623
479,0.0281268376872549
480,0.0280824609251291
481,0.0274232929595434
482,0.0269874576834566
483,0.0268634053108195
484,0.0262794438548998
485,0.0257481769161924
486,0.0259316296060002
487,0.0261238911460568
488,0.0262990535165028
489,0.0269229892162197
490,0.0270582641838128
491,0.0272288907321875
492,0.0277578787182901
493,0.0274020097271801
494,0.0277967183343721
495,0.027352520730608
496,0.0274627267919565
497,0.0269209048720612
498,0.0270321562329981
499,0.0263556949054773
500,0.0264450982820539
501,0.0261281727055616
502,0.0264736992461907
503,0.0264888790276597
504,0.0262206562327498
505,0.0269798774155725
506,0.026851345915685
507,0.0269340443106251
508,0.0270784850683076
509,0.0270738760387989
510,0.0266110705220577
511,0.026955203186744
512,0.0267871553105822
513,0.0259813675810988
514,0.0258753911133093
515,0.0254006428550725
516,0.0252233528753191
517,0.0251190284638486
518,0.0249993406877794
519,0.0254495982702089
520,0.0258683684092657
521,0.0261391955612031
522,0.0264100227131406
523,0.026680849865078
524,0.0265280002697565
525,0.0265321467962277
526,0.0266265775785261
527,0.0264232546591463
528,0.0265809657606971
529,0.0269115044301384
530,0.0269130614296776
531,0.0269697057343292
532,0.0268881503342025
533,0.0271238750199487
534,0.0271746950322248
535,0.0269419040052173
536,0.0272495969024958
537,0.0272180168925225
538,0.0272435522944278
539,0.0273823606844322
540,0.0279231397626307
541,0.0281474834567644
542,0.0283880452783136
543,0.0288014050948671
544,0.029025890047856
545,0.0287027425482857
546,0.0286343126469779
547,0.0281850105193166
548,0.0277357083916552
549,0.0272864062639938
550,0.0267976164126953
551,0.0268015359227325
552,0.0268501043781087
553,0.0264620972206575
554,0.0262859500608407
555,0.026427213098697
556,0.0259638155293045
557,0.0258454584096124
558,0.0256242685183953
559,0.0254116260952008
560,0.0256099643911649
561,0.0251679719286794
562,0.0255409861176424
563,0.0251520254421458
564,0.0252441337652898
565,0.024835153714088
566,0.0246641474544633
567,0.0243029165134452
568,0.024422886856092
569,0.0241154066075092
570,0.0240259137878397
571,0.0240707329416714
572,0.0240610581222714
573,0.0240080752660646
574,0.0242124373517399
575,0.0239217515550911
576,0.0239938027081321
577,0.0240658538611731
578,0.0241379050142141
579,0.0242099561672552
580,0.0242820073202962
581,0.0245659939415933
582,0.0243270515957951
583,0.0244510690760818
584,0.0239856465091034
585,0.0237979332164188
586,0.0229975508055664
587,0.0225208984000356
588,0.0221115925538305
589,0.0217022867076255
590,0.0212929808614204
591,0.0212433805484689
592,0.0213676021211779
593,0.0213462527995763
594,0.0216447762156807
595,0.021518795769258
596,0.0216239445811562
597,0.0217424818479997
598,0.0217547328573442
599,0.0217937343722855
600,0.0219842277915907
601,0.022029760608981
602,0.0220921857300048
603,0.0219879951596438
604,0.0221546135521496
605,0.0220341444943445
606,0.0221988075063074
607,0.0224003181449394
608,0.0225701549343719
609,0.0229996237886573
610,0.0231184324127009
611,0.0231754453967873
612,0.0228261329615384
613,0.0223336880215271
614,0.0216213370918987
615,0.0214421133135616
616,0.020890922377181
617,0.0208720482907572
618,0.0206995560996348
619,0.0206562938569308
620,0.0205180237903792
621,0.0205429374858383
622,0.0201150243258955
623,0.0199402367835705
624,0.0197187765671299
625,0.0194973163506893
626,0.0192758561342487
627,0.0192075296405591
628,0.0190952783779169
629,0.0189580331625604
630,0.0190603934521082
631,0.018708714922204
632,0.0186701771456648
633,0.0186867446083569
634,0.0185742855304411
635,0.0185544342667433
636,0.0183391816209205
637,0.0184724835825176
638,0.0182267160340341
639,0.0182592133761486
640,0.0181242208275345
641,0.017981711135229
642,0.0177762796056748
643,0.0175460225033057
644,0.0173157654009366
645,0.0170855082985674
646,0.0170403352498848
647,0.0168941881358456
648,0.0164861995170389
649,0.0167453599178129
650,0.0165262151096248
651,0.0166425870761274
652,0.0163724459465909
653,0.0160629887350241
654,0.0157012901388754
655,0.0158221609720073
656,0.0155997044041685
657,0.0157241572097946
658,0.0158772833656436
659,0.0162562846225583
660,0.0163691635394809
661,0.0164362052492207
662,0.0164618663985597
663,0.0163237117604297
664,0.0161872546998244
665,0.0161771681332191
666,0.0161652837541415
667,0.0161032154134575
668,0.0160791296582962
669,0.0157475624997396
670,0.0157405854791203
671,0.0156199248272103
672,0.0155248380177475
673,0.015523314053048
674,0.0154950445112082
675,0.0154140494944543
676,0.0153229134450524
677,0.0153854106410657
678,0.015129888749049
679,0.0150599017422401
680,0.0153022900030556
681,0.0150001360014243
682,0.0146541637670775
683,0.0143248114510923
684,0.0137757741652169
685,0.0133351868625706
686,0.0129862800667852
687,0.012636455314719
688,0.0124198921873202
689,0.0123705209353266
690,0.0125006574408775
691,0.0126517212322507
692,0.0125759171164319
693,0.0126480378427351
694,0.0128070772536402
695,0.0128226886434378
696,0.0130616241608627
697,0.0130579172398931
698,0.0129010151965161
699,0.0129271435619531
700,0.0131384970949452
701,0.0130565318442039
702,0.0133268413946514
703,0.0133908698401873
704,0.013753270256142
705,0.0138231022570061
706,0.0140596979720882
707,0.0143085384647986
708,0.0143528202235767
709,0.014554250193106
710,0.0143842531098993
711,0.0143825718776424
712,0.0143936728421207
713,0.0136843296186523
714,0.0132351882975682
715,0.0123823138960274
716,0.0116108400861752
717,0.0110837979473167
718,0.0109048424083724
719,0.0109380024613653
720,0.0111209590841047
721,0.0110304018345076
722,0.0113846573272382
723,0.0113065575458366
724,0.0112774719404303
725,0.0112722826436989
726,0.0112105799974139
727,0.0113936418649736
728,0.0116124117714437
729,0.0119023229164523
730,0.0122995252680766
731,0.0128033784138892
732,0.0132788684235214
733,0.0138000742436409
734,0.0141087103932772
735,0.0143548853645614
736,0.0145870402737008
737,0.0147558505089102
738,0.0149246607441197
739,0.0150934709793291
740,0.015390807704285
741,0.0155173541184348
742,0.0156383500605892
743,0.0157593460027436
744,0.015880341944898
745,0.0159184511974727
746,0.0158910250832238
747,0.0159154664977702
748,0.0156957570542038
749,0.0157639292690889
750,0.0157580845240134
751,0.0156108980324784
752,0.0157830437926304
753,0.0155485306570924
754,0.0154541197634488
755,0.0144506828834979
756,0.013447246003547
757,0.0124438091235962
758,0.0108879131694933
759,0.00948566680460942
760,0.0083929249699481
761,0.00806668766624525
762,0.00833983967984339
763,0.00889929178229118
764,0.00974706935665921
765,0.0105937485257973
766,0.0115836598202272
767,0.0126230942595977
768,0.0131775573329211
769,0.0136046387946418
770,0.0138873189629543
771,0.0139856358303
772,0.0141741536009495
773,0.0143266463178299
774,0.0141651401054727
775,0.0141161887140967
776,0.0141770587135483
777,0.0140044272364233
778,0.0140550412971301
779,0.0138770017257294
780,0.0140190057176982
