"wavelength","measurement"
380,0.00169808809090837
381,0.00175336600151537
382,0.00174121979950329
383,0.00175515358302979
384,0.00180552817420231
385,0.00192802371390553
386,0.00207380501304215
387,0.00220876213458081
388,0.00229016593283284
389,0.00249213304467603
390,0.00251503012940747
391,0.00258428271137183
392,0.00263800576173245
393,0.00275545594037077
394,0.00293504052713058
395,0.00310152940271298
396,0.00354210938495808
397,0.00404938461778929
398,0.00455665985062051
399,0.00506393508345173
400,0.00551648158507902
401,0.00598546861212236
402,0.00640950362467115
403,0.00664063594052184
404,0.0068922810103702
405,0.00707081960357893
406,0.00741018906209512
407,0.00770700576984164
408,0.00801954119982564
409,0.00837049651570716
410,0.00896207399771511
411,0.00921629808711678
412,0.00965274911510323
413,0.0100637652350557
414,0.0101963722045713
415,0.0105060462986472
416,0.0105414530123971
417,0.0106404044881861
418,0.0108697744518455
419,0.0107483581010025
420,0.011188447931977
421,0.0112200835611972
422,0.0114125062080478
423,0.0116199782920223
424,0.0117316427086824
425,0.0115763701485996
426,0.0115997550341445
427,0.0113677361646024
428,0.0110655832565263
429,0.0110938222191892
430,0.0112345836677107
431,0.0116815799260959
432,0.0122107809699539
433,0.0126025197198332
434,0.0133137665309851
435,0.0136451279729276
436,0.0138462496515705
437,0.0141444998402863
438,0.014442750029002
439,0.0147410002177178
440,0.0148637911233444
441,0.015269378693608
442,0.0157483376119178
443,0.0159533269251833
444,0.016310737175988
445,0.0166681474267927
446,0.0170255576775975
447,0.0174311592120599
448,0.0175757419734061
449,0.0184106982306003
450,0.0184073725632057
451,0.0183374247763801
452,0.0183859181830616
453,0.018434411589743
454,0.0184829049964244
455,0.0185537537309128
456,0.0186386929357683
457,0.0189649687438581
458,0.0190963313974658
459,0.0194994012703192
460,0.0195835809883998
461,0.0194478812658857
462,0.0201093094718564
463,0.0196177484218818
464,0.0194740049259524
465,0.0194387745932688
466,0.0192351056456662
467,0.0192776366238962
468,0.0191567457775921
469,0.0190428348771805
470,0.0195484060661921
471,0.0196012518392122
472,0.0197692568175568
473,0.0200920087042542
474,0.0202694984760981
475,0.0206556084977804
476,0.0202699824419191
477,0.0203513130708252
478,0.0204326436997313
479,0.0205139743286374
480,0.0205442323762411
481,0.020072433682145
482,0.0198150887069166
483,0.0197343035253213
484,0.0193255610553097
485,0.0189524646030443
486,0.0191414888195528
487,0.0193206092641116
488,0.0195566829058329
489,0.0201207671176987
490,0.0203037870802649
491,0.0205329973177247
492,0.0210956859787931
493,0.0209081156316232
494,0.021265189884259
495,0.0210842871516492
496,0.0212302806102845
497,0.0209475801169015
498,0.0211403209404807
499,0.0207044244287798
500,0.0209005654037833
501,0.0207816419671865
502,0.0211831766385271
503,0.0213110049385756
504,0.0212133109310308
505,0.0219607080839129
506,0.0219272943359918
507,0.0221307292144361
508,0.0222962671070218
509,0.022425652801997
510,0.0221179391446429
511,0.0225262281199326
512,0.0224516776657083
513,0.0219020115625486
514,0.0219104873253134
515,0.0216236535577245
516,0.0215533053598781
517,0.0215743923030087
518,0.0215863782381387
519,0.0220534741150576
520,0.0225835872027214
521,0.0229198479524472
522,0.0232561087021731
523,0.0235923694518989
524,0.0235625335606627
525,0.0236896499985158
526,0.0238834026323149
527,0.023786933909435
528,0.0240199684609776
529,0.0243693379929169
530,0.0244773112619211
531,0.0245859812983112
532,0.0245895589137566
533,0.0248300132114791
534,0.0249754254632797
535,0.024718986376391
536,0.025006884971695
537,0.0249313535096879
538,0.0248012770138523
539,0.0247405220540821
540,0.024941382167841
541,0.0248652203306704
542,0.024776898949058
543,0.0249588143277007
544,0.0251546588526115
545,0.0250081437484542
546,0.0252203210688054
547,0.0251812397922425
548,0.0251421585156796
549,0.0251030772391167
550,0.0249103698560706
551,0.0250594621781559
552,0.0252854786680475
553,0.025064808904695
554,0.024993912033613
555,0.0252431131373804
556,0.0249088493023852
557,0.0248315478422089
558,0.0247148254451519
559,0.0245325970545267
560,0.0247707867106609
561,0.0243875859526021
562,0.0248106552016468
563,0.0244236651978069
564,0.0245567634914116
565,0.024248681829036
566,0.0241199793209764
567,0.0238299553158226
568,0.0239694134115196
569,0.0236953469956947
570,0.0236664632776465
571,0.0237120707001409
572,0.0237158621370622
573,0.023698942572174
574,0.0238305649773631
575,0.0235055457011832
576,0.0235427072073589
577,0.0235798687135345
578,0.0236170302197102
579,0.0236541917258858
580,0.0236913532320614
581,0.0239393203547433
582,0.0237522285698697
583,0.0238421315341427
584,0.0234035538943997
585,0.023301323958915
586,0.022571885727706
587,0.0222453109170135
588,0.0219518075763868
589,0.0216583042357601
590,0.0213648008951335
591,0.0213815246316078
592,0.0216024404936085
593,0.0215831713254224
594,0.0219351218397768
595,0.0218833700257588
596,0.0220079627980037
597,0.0221306603716781
598,0.022148473054365
599,0.0221826135792197
600,0.0223471598217109
601,0.0224459226701854
602,0.0225567387285585
603,0.0224412058479954
604,0.0226407125608173
605,0.0224917782457478
606,0.022511925336215
607,0.0224304256285843
608,0.0221317899725012
609,0.0221646064149842
610,0.0219976895451493
611,0.0218870366898608
612,0.0216497733605626
613,0.021507319706792
614,0.021157462880249
615,0.0213184646152757
616,0.0210131916053072
617,0.0211489276585322
618,0.0210772243744771
619,0.0211387252266818
620,0.0210254717419951
621,0.0211277342999821
622,0.0206865847954114
623,0.0206410733137699
624,0.020482800129429
625,0.020324526945088
626,0.0201662537607471
627,0.020135587349827
628,0.020021134956426
629,0.0199215930691336
630,0.0200364277102687
631,0.0197446181852969
632,0.019779209844305
633,0.0198752435467384
634,0.019824829971118
635,0.0198314295003244
636,0.0196551195160743
637,0.0197929868670096
638,0.0195814323681226
639,0.0196116656274671
640,0.0194526286950053
641,0.0193128078746937
642,0.0191385310218065
643,0.0189258046860506
644,0.0187130783502948
645,0.0185003520145389
646,0.0184777431563262
647,0.0183582942639657
648,0.0179296157823982
649,0.0182141978475445
650,0.017933839598427
651,0.0181080770536777
652,0.0178213822822243
653,0.0174965620428667
654,0.0171139551678486
655,0.0172481346035691
656,0.0169978959446404
657,0.0170909055891653
658,0.0172660813712182
659,0.0176718771937593
660,0.0177689535136299
661,0.01781657534901
662,0.017827541856695
663,0.0176948503583245
664,0.0174896409428852
665,0.0175302991714415
666,0.0174776021823524
667,0.0174353785052519
668,0.017407274769546
669,0.017041735421262
670,0.0170554395048629
671,0.0169221271409165
672,0.0168333026880518
673,0.0168383454392398
674,0.0168305358484675
675,0.0167511502135665
676,0.0166666290520258
677,0.0167558792105973
678,0.0165235346068992
679,0.0164417586043126
680,0.0167602366874308
681,0.0164583892347239
682,0.0161079589031625
683,0.015836544333886
684,0.0153232440836884
685,0.0149202287309958
686,0.0146525595898076
687,0.0143724484424169
688,0.0141911581480389
689,0.0142977852643946
690,0.0144943180773321
691,0.0148283806283873
692,0.0148573417971122
693,0.0149611903370893
694,0.0153030686643087
695,0.0153810583809483
696,0.0157448928783435
697,0.015903921833154
698,0.0157834071471016
699,0.015930425270505
700,0.0162757560108995
701,0.0162378922022013
702,0.0166121344284177
703,0.0167524459315603
704,0.0171649517692059
705,0.0172807223160242
706,0.0176521229206046
707,0.0179258376688937
708,0.0180715564667508
709,0.0183861029893782
710,0.0182434960525653
711,0.0183600989124175
712,0.0184752053580341
713,0.0177332497082815
714,0.0173385689932496
715,0.0164413522897965
716,0.0155955294176051
717,0.0150047710848131
718,0.0148206808513854
719,0.0148733790190375
720,0.0151563691247092
721,0.0150710451031784
722,0.0155496587359913
723,0.0154551936212978
724,0.0154251089948434
725,0.0154582914123131
726,0.0153903176508892
727,0.0156307446755596
728,0.0158399228851493
729,0.0162031167401673
730,0.016652557218142
731,0.0172425528013419
732,0.0177633376041872
733,0.0183474122294277
734,0.0187417375619703
735,0.0189218512400495
736,0.01919512749776
737,0.0193342762050216
738,0.0194734249122833
739,0.0196125736195449
740,0.0199758380699601
741,0.0200991131691597
742,0.0201943071803
743,0.0202895011914402
744,0.0203846952025805
745,0.0204289814159816
746,0.0204069505628019
747,0.0204235640316006
748,0.0200874119791065
749,0.0201799307474933
750,0.0201691045823966
751,0.0199508425331077
752,0.0201491763299428
753,0.019815893130968
754,0.0196728942328094
755,0.0184465678195733
756,0.0172202414063373
757,0.0159939149931012
758,0.0140015349737424
759,0.0122897245568386
760,0.0110199463390746
761,0.0106429554816695
762,0.011021509963647
763,0.0116766852521868
764,0.0127478242262201
765,0.0137327438224447
766,0.0150015533282802
767,0.0162226245742543
768,0.016808519860503
769,0.0173639577361341
770,0.0176455299490485
771,0.0177997394438503
772,0.0179517187723482
773,0.0181108876868748
774,0.0178964229581949
775,0.0178574891477407
776,0.0179008245487175
777,0.017629880641907
778,0.0177458202784003
779,0.0174818331471427
780,0.0176412688247331
