"wavelength","measurement"
380,0.00551451624824148
381,0.00545023525747134
382,0.0053913973491406
383,0.0054006611627357
384,0.00555832063931548
385,0.00595381530182378
386,0.00624842965108988
387,0.00664715484398755
388,0.00704512287808981
389,0.00736604395967816
390,0.00731351639296615
391,0.00743772836505703
392,0.00745337189984933
393,0.00774683092970034
394,0.00787937279846776
395,0.00835668142572855
396,0.00927042769395001
397,0.0103028654932952
398,0.0113353032926405
399,0.0123677410919857
400,0.0131818458968959
401,0.0141349152648811
402,0.0146309044283165
403,0.0149362440103851
404,0.0152012744436267
405,0.0150453950343439
406,0.0153555858493177
407,0.0154423674848544
408,0.0154980702175838
409,0.0157888852054603
410,0.0164993272817932
411,0.0164785106461215
412,0.017050749496357
413,0.0172605816537293
414,0.0172936573717413
415,0.017441643160832
416,0.0172590853183148
417,0.017044172721353
418,0.0173375140445266
419,0.0169908697413428
420,0.0172943882907446
421,0.0172866286419417
422,0.0174405687501443
423,0.0175788137963419
424,0.0176075137802012
425,0.0172660425320396
426,0.0171372700631605
427,0.0166270453463823
428,0.0161426862909422
429,0.0160267221889427
430,0.0161806030892857
431,0.0168107048596537
432,0.0175809323870931
433,0.018383727131966
434,0.0194316859771608
435,0.0197789323123679
436,0.019927066157947
437,0.0199803353425051
438,0.0200336045270632
439,0.0200868737116213
440,0.0201208743197438
441,0.0203769395182975
442,0.0207808732002764
443,0.0210347866070896
444,0.0213430875430886
445,0.0216513884790876
446,0.0219596894150866
447,0.0222236388851527
448,0.022438205526513
449,0.0233065313046668
450,0.0230991780211725
451,0.0230075230856016
452,0.0229778663577199
453,0.0229482096298382
454,0.0229185529019565
455,0.0229598710358207
456,0.0229480120174214
457,0.0231731658614941
458,0.0232999001614033
459,0.0237199085983612
460,0.0237074928139049
461,0.0234288567275011
462,0.0242052869690705
463,0.0234617002154037
464,0.0231934558525503
465,0.0231175070066984
466,0.0227508052614652
467,0.0227168605666009
468,0.0225209835186597
469,0.0222887179195708
470,0.0227213480207292
471,0.0226534897327291
472,0.022816807246935
473,0.0231482274653951
474,0.023188015392701
475,0.0236303042185097
476,0.0229800637809883
477,0.0230378453499158
478,0.0230956269188433
479,0.0231534084877708
480,0.0230279425398303
481,0.0225296383182489
482,0.0222609426047911
483,0.0221568368181592
484,0.0217353604523612
485,0.0212873786722878
486,0.0214883110497311
487,0.021658739976002
488,0.0218010886246503
489,0.022320474602549
490,0.0225580703823078
491,0.0225757439123834
492,0.0230327208590455
493,0.0226957624402792
494,0.0230068153088519
495,0.0227203998125651
496,0.0226521877811202
497,0.0223001991308297
498,0.0223674883196412
499,0.0217953547182694
500,0.0218326769151477
501,0.0215709199328606
502,0.0218651067493635
503,0.0218818903469167
504,0.0216528679265398
505,0.0223237831983013
506,0.0222324197391559
507,0.0222945859367138
508,0.0224114665618493
509,0.0224206414401574
510,0.0221194401235415
511,0.0224186548146326
512,0.0222000141657932
513,0.0216334905677494
514,0.0214287978816433
515,0.0211295178906331
516,0.0209461749371751
517,0.0208002125845503
518,0.0207198074090031
519,0.0210765716619225
520,0.0214669583097015
521,0.0217210347569153
522,0.0219751112041291
523,0.0222291876513428
524,0.0221249619416044
525,0.0221736600547221
526,0.0221813735352724
527,0.0220340407667082
528,0.0222305952365382
529,0.0224544718576445
530,0.0224793085958214
531,0.0225365175552492
532,0.0224856264823824
533,0.0226891117552995
534,0.0228339246888496
535,0.0225340036624532
536,0.0229164922991894
537,0.0229272144883222
538,0.0230728360061003
539,0.0233194234247118
540,0.0239656729778093
541,0.0243919410184202
542,0.0248100596982367
543,0.0253602933722951
544,0.0255647358625575
545,0.025249324232542
546,0.025090709082833
547,0.0244797473752938
548,0.0238687856677545
549,0.0232578239602152
550,0.02272648721137
551,0.0226751352311432
552,0.0226942037167789
553,0.022308296481738
554,0.0220753249972638
555,0.0221269912953644
556,0.0217421228322493
557,0.0215446946411475
558,0.0214218582082914
559,0.0211585920225556
560,0.0213868725706474
561,0.0210760574537883
562,0.021333804643693
563,0.0209990502334057
564,0.0210568427065999
565,0.0207224891178447
566,0.0205780281267754
567,0.0202701357407515
568,0.0203663960521874
569,0.0200011927013376
570,0.0200189361338792
571,0.0200788660719875
572,0.0200060226816927
573,0.0199949552444099
574,0.0202078900376457
575,0.020020808403715
576,0.020101683457171
577,0.020182558510627
578,0.020263433564083
579,0.020344308617539
580,0.020425183670995
581,0.0207093287890833
582,0.0205289133878388
583,0.0206420599199909
584,0.0202087117723054
585,0.0201130735380445
586,0.0193238207036282
587,0.019013223564993
588,0.0186070273823539
589,0.0182008311997147
590,0.0177946350170755
591,0.0178009141759895
592,0.0178718551621232
593,0.0178295484433309
594,0.0180978798274578
595,0.0179185331775321
596,0.0180550346674128
597,0.018113425118181
598,0.0181707838268906
599,0.0181801591674065
600,0.0183035674125708
601,0.0183330378754767
602,0.0184388145568742
603,0.0183133022762027
604,0.0184949078687541
605,0.0184110452469783
606,0.0185584501115617
607,0.0189539903315225
608,0.0192608562792257
609,0.0198226092567036
610,0.0200658028630858
611,0.0201912150816183
612,0.0198811753478428
613,0.0192742284588992
614,0.0185219273571215
615,0.0181778968893053
616,0.0176783102313052
617,0.0175510177682823
618,0.0174194727195214
619,0.0173035972997946
620,0.0172427866191876
621,0.0172333809262325
622,0.016789838096669
623,0.0167268651610835
624,0.016535532215017
625,0.0163441992689504
626,0.0161528663228839
627,0.0160875053329014
628,0.0159381635708266
629,0.0158686352806668
630,0.0158996166039275
631,0.0156230422168034
632,0.0155181318008681
633,0.0155556043212992
634,0.0154267750774044
635,0.0154359873806149
636,0.0151871691220074
637,0.0152860696035807
638,0.015130728951207
639,0.0151376891299343
640,0.0150098686243117
641,0.0149106283085836
642,0.0147620021903907
643,0.0145613512628513
644,0.0143607003353118
645,0.0141600494077724
646,0.0141187801887723
647,0.0140505494648587
648,0.0136870064613232
649,0.0139452158438295
650,0.01369231068746
651,0.0138057762168458
652,0.0135671809553857
653,0.0133500773407093
654,0.0130134519327437
655,0.013154905037649
656,0.0129829838391961
657,0.0129747585184713
658,0.0131683875755455
659,0.0134754398104868
660,0.0135917589059188
661,0.0136122612183371
662,0.0137049108761747
663,0.0135709830430113
664,0.0134927191519933
665,0.0134782773176532
666,0.0133981120595422
667,0.0133106022147335
668,0.0133989533441686
669,0.0130589090508114
670,0.0130884797905894
671,0.0129903606587896
672,0.0128931468447396
673,0.0128401755071436
674,0.0128565978898725
675,0.012768956556013
676,0.0127110201241925
677,0.0127617407592024
678,0.012635905444412
679,0.0124316319576888
680,0.0127512329851921
681,0.0125112100921045
682,0.0121745582700384
683,0.0119578073783658
684,0.0114928713331218
685,0.0111464509896571
686,0.0107794504219731
687,0.0105522435984287
688,0.0104292171886813
689,0.0103659875444119
690,0.0104251889676892
691,0.0105075681030736
692,0.0105520853864347
693,0.0106115196083244
694,0.0106896269368782
695,0.0106874022914644
696,0.0108842416748485
697,0.010930604283236
698,0.0108093575594281
699,0.0108357153781515
700,0.0109961132415976
701,0.0109391674317444
702,0.0111745663899306
703,0.0111863624269409
704,0.0115477984399719
705,0.0115935871846525
706,0.0119237977575057
707,0.0121100900825778
708,0.0121857501813934
709,0.012360575327623
710,0.012231551866202
711,0.0122055076468332
712,0.0122024166675899
713,0.0115867262075502
714,0.0111925399864306
715,0.0105265885509467
716,0.00981609431151424
717,0.00934876162529715
718,0.00929728982212187
719,0.00929238677980188
720,0.00948552179223464
721,0.0093325787173877
722,0.00968407856126848
723,0.00962037021850333
724,0.00961053757486897
725,0.00961787247971551
726,0.0095982401428274
727,0.00972989958138848
728,0.00988446835383982
729,0.0101110122140757
730,0.0105116193688133
731,0.0108647609175062
732,0.0113603431988194
733,0.011771754259038
734,0.0120594234149268
735,0.0122427558776578
736,0.0124589989918872
737,0.0125834968932304
738,0.0127079947945736
739,0.0128324926959168
740,0.013193641462542
741,0.0132440844105834
742,0.0133520413104303
743,0.0134599982102773
744,0.0135679551101242
745,0.0136119992805436
746,0.0135683088865129
747,0.0136495871324662
748,0.013461018220009
749,0.0135034986979571
750,0.0135128301165046
751,0.0133889602190488
752,0.0136442392250461
753,0.0132729383286602
754,0.0132675607850214
755,0.0124339682138227
756,0.0116003756426241
757,0.0107667830714254
758,0.0093797373137006
759,0.00819419753560638
760,0.00730177087911715
761,0.00703013642606176
762,0.00721303149769005
763,0.00766731503217924
764,0.00846762233727636
765,0.00915501839410287
766,0.0100838633048976
767,0.0108258338111697
768,0.0112697595609221
769,0.0116639151121169
770,0.0119653573820506
771,0.0120884537161011
772,0.0122401247715418
773,0.0124173257835796
774,0.0121354769103591
775,0.0122145290956382
776,0.0122251254062115
777,0.0121065735795802
778,0.0121961968545039
779,0.0119545189683919
780,0.0121042613002686
