"wavelength","measurement"
380,0.0163860424918013
381,0.0156213008413789
382,0.0153619388868909
383,0.0149714662677744
384,0.0150000423585964
385,0.0156293604785545
386,0.0164012051990471
387,0.0170513296385186
388,0.0177254911381256
389,0.0183534679592692
390,0.0182399908923189
391,0.0181396921570849
392,0.0181433269520005
393,0.0183476382187012
394,0.0186733358292174
395,0.019607618642468
396,0.0217601354645415
397,0.0242378451620601
398,0.0267155548595786
399,0.0291932645570971
400,0.0307113265664757
401,0.0327151364208098
402,0.0339866103023359
403,0.0343936361453509
404,0.0345902156976961
405,0.034494210854901
406,0.035289494256606
407,0.0355643474932452
408,0.0357109154113873
409,0.0363189422810761
410,0.0378973802174954
411,0.0379906444981785
412,0.0389643223124206
413,0.0397283867856323
414,0.0397850731507145
415,0.0401231668913986
416,0.0396612720581924
417,0.0394172375157536
418,0.0397931286635129
419,0.0390873356123325
420,0.0398311000565089
421,0.039642023480533
422,0.0398668655964546
423,0.0400743453671366
424,0.0402573795008331
425,0.0395052850476832
426,0.0391703036117564
427,0.0381435539388247
428,0.0368669730735128
429,0.0366259131543423
430,0.036655836829495
431,0.0379636350601429
432,0.0392036305750836
433,0.0404613826368732
434,0.0422466956458267
435,0.0431652869373328
436,0.0435584737681316
437,0.0442362532097235
438,0.0449140326513154
439,0.0455918120929073
440,0.0458126563332293
441,0.046641588894977
442,0.0477642178030414
443,0.0480751154848681
444,0.0487847125731764
445,0.0494943096614847
446,0.050203906749793
447,0.0509808195424565
448,0.0511255155898531
449,0.0532354836927783
450,0.0529654494692182
451,0.0525514139222936
452,0.0524373262015638
453,0.052323238480834
454,0.0522091507601043
455,0.0521385458836087
456,0.0521919914602621
457,0.0527323683068281
458,0.0529639543781565
459,0.0536992422915845
460,0.0537418394270017
461,0.0532971971004551
462,0.0548902667168368
463,0.0533211084439666
464,0.0527205171779047
465,0.0523168283294251
466,0.051621557149549
467,0.0514708891539974
468,0.0509466127051789
469,0.0506283614147839
470,0.0516007737624517
471,0.0515298753469919
472,0.0517788593854549
473,0.0524165937895476
474,0.0525754246133374
475,0.0534203915082275
476,0.0522543501067572
477,0.0522907895339712
478,0.0523272289611852
479,0.0523636683883992
480,0.0522776452904471
481,0.0510448392163017
482,0.0501330894197455
483,0.049900256415821
484,0.0485954382792659
485,0.0474443442225048
486,0.0477425000283088
487,0.0480614823775251
488,0.0484183878086761
489,0.0497434326968407
490,0.050200409872906
491,0.0505323926789596
492,0.0517800485551589
493,0.0512782638217163
494,0.0520530929822971
495,0.0514368376235298
496,0.0517948682262509
497,0.0509347374227791
498,0.0512778571644153
499,0.0502208927203278
500,0.0504753907508769
501,0.0499510280241449
502,0.0508451805426732
503,0.0510302269038571
504,0.050602112901983
505,0.0523029357457338
506,0.0521924851012924
507,0.0525108286330051
508,0.0528982120230334
509,0.0530917850220152
510,0.0523440711466251
511,0.053182188392098
512,0.0529941571513763
513,0.0516986831434627
514,0.0515355689113486
515,0.0508030362053491
516,0.050549129571864
517,0.0506061465611728
518,0.0505352868723534
519,0.0516566135318541
520,0.0527443387081579
521,0.0535453500068953
522,0.0543463613056326
523,0.05514737260437
524,0.0551665736092314
525,0.0554065027223601
526,0.0558433924455371
527,0.0556653690731643
528,0.056205280425419
529,0.0571107794268828
530,0.0572630828714055
531,0.0575368309714698
532,0.0575339808416092
533,0.058112526831419
534,0.0584399659749166
535,0.057884004026174
536,0.0585851447900707
537,0.0583390421371521
538,0.0579625726193239
539,0.0576428468355729
540,0.0580941878388733
541,0.0576523344712611
542,0.057430174541001
543,0.0578147884807912
544,0.0582510402672948
545,0.0580012494721386
546,0.0584409103659797
547,0.0584876209765311
548,0.0585343315870824
549,0.0585810421976337
550,0.0582340861199728
551,0.0587404981932972
552,0.059400233514421
553,0.0588018514622637
554,0.0587329425999783
555,0.0593088610453368
556,0.0585038172230727
557,0.0583450376414587
558,0.0580279606031395
559,0.0576084969605511
560,0.0581756221374085
561,0.0572739463160148
562,0.0582347292813646
563,0.0574344283235311
564,0.0577505554041967
565,0.056948511226612
566,0.0565937736098512
567,0.0559541959399094
568,0.0562314453745073
569,0.055552521624448
570,0.0554571754099001
571,0.0555343365142087
572,0.0554843204409475
573,0.0553614676847773
574,0.0557498775487713
575,0.0549529130347523
576,0.0550443668140986
577,0.0551358205934449
578,0.0552272743727912
579,0.0553187281521375
580,0.0554101819314838
581,0.0560184783804539
582,0.0556808926264554
583,0.0559642643748687
584,0.0549778283787635
585,0.0547002565225055
586,0.0530028065887012
587,0.0522020356245811
588,0.0514982128405837
589,0.0507943900565863
590,0.0500905672725889
591,0.0502194447250648
592,0.0507491000601333
593,0.050876650679429
594,0.0516960786902418
595,0.0516677506396103
596,0.0520687988845766
597,0.0524287325045757
598,0.0525259773104077
599,0.0527046008706484
600,0.0531822815601496
601,0.0535205239334188
602,0.0538547160722832
603,0.053655309630711
604,0.0541672143457781
605,0.0539359197321108
606,0.0539884748484718
607,0.0536923194281731
608,0.0530066353566783
609,0.0530725008947385
610,0.0526338098892818
611,0.052294012261654
612,0.0518275592360985
613,0.0516158984321465
614,0.0509601890037003
615,0.0516032041005801
616,0.0509634495105477
617,0.0513684549509396
618,0.0512426469598103
619,0.0515107803179707
620,0.0513349153459047
621,0.0516550896241059
622,0.0506717825798965
623,0.050607404650833
624,0.0502886613094104
625,0.0499699179679879
626,0.0496511746265653
627,0.0496510220633943
628,0.0494944234607673
629,0.0492846363697313
630,0.0497192043803616
631,0.0490784749913212
632,0.0492744197612872
633,0.04959186698853
634,0.0496343054398543
635,0.0499461946787754
636,0.049428694023674
637,0.0499650583354584
638,0.0496286722431337
639,0.0497590940544802
640,0.0494671209876833
641,0.0492818339490846
642,0.0489298690523675
643,0.0484776721901235
644,0.0480254753278794
645,0.0475732784656354
646,0.0475940259333016
647,0.047468969868703
648,0.0464149763121489
649,0.0472551657697941
650,0.0467659112787554
651,0.0472890579171957
652,0.0467572247230837
653,0.0460422411333532
654,0.0452343770407843
655,0.0456592186323083
656,0.045022028948645
657,0.0456020717287474
658,0.0461207674817528
659,0.0473388159640755
660,0.047780470301771
661,0.0480444387411835
662,0.0482985590084746
663,0.0480566859407497
664,0.0477564698179043
665,0.0479559873951409
666,0.0480193477000033
667,0.0480341896182547
668,0.0481531920426794
669,0.047342592676125
670,0.0474566602719304
671,0.0473710667484322
672,0.0470810515889264
673,0.0472906458378714
674,0.0474296453219005
675,0.0473681572927307
676,0.0472902004229764
677,0.0476840457262941
678,0.0472042958794239
679,0.0471023075949628
680,0.0482128158056428
681,0.0474102726440343
682,0.0466405428913003
683,0.0459049082215112
684,0.0445338557010578
685,0.0434191027128638
686,0.0425696659041864
687,0.0417779125612467
688,0.0413654579412272
689,0.0415969076519981
690,0.0422568510076034
691,0.0431790087461013
692,0.0433282721813793
693,0.0439699641206249
694,0.0448812051165455
695,0.0453030245128278
696,0.046468921676053
697,0.0472983902113572
698,0.0471588045896413
699,0.0477193007471539
700,0.04902066790453
701,0.049198882098121
702,0.0507330473703112
703,0.0515330112291495
704,0.0531617336983524
705,0.0539998074982106
706,0.0554273932172859
707,0.0569434471374856
708,0.0578299158165478
709,0.059390400189868
710,0.059595258491301
711,0.0604575603693865
712,0.0614566271874521
713,0.059731145662877
714,0.0590039508956252
715,0.0564198261960143
716,0.0541888630430645
717,0.0527250222913934
718,0.0527763619622359
719,0.0539943277143953
720,0.0554179200429715
721,0.0559516754589757
722,0.0585719500710816
723,0.0591725483370106
724,0.0597268539597983
725,0.0606762850489748
726,0.0613609294262187
727,0.0632762345614591
728,0.0650609197216187
729,0.0677874167094189
730,0.070487485771341
731,0.0740713783906478
732,0.0776002644003938
733,0.0812695240753792
734,0.0841989426221121
735,0.0859152578922098
736,0.0883854955742037
737,0.0901353046674536
738,0.0918851137607034
739,0.0936349228539532
740,0.0964089956419749
741,0.0979977422813339
742,0.0996307177873273
743,0.101263693293321
744,0.102896668799314
745,0.103966836478112
746,0.104750833464033
747,0.105869547508687
748,0.105415288225309
749,0.106532008084054
750,0.107289566118048
751,0.107175232327934
752,0.108975915040438
753,0.108691129365453
754,0.108231235629509
755,0.102347489499467
756,0.0964637433694256
757,0.0905799972393839
758,0.0803124003189021
759,0.0707503574407597
760,0.063315804311466
761,0.0614238439640889
762,0.0637245999216037
763,0.0680023949494604
764,0.0745661787096408
765,0.08107134100877
766,0.0889432219960155
767,0.0967942429333471
768,0.101186341203284
769,0.10453212549909
770,0.107352702796255
771,0.108505100201609
772,0.10992982169505
773,0.111470981252995
774,0.110856610042471
775,0.111213842740162
776,0.111759760242095
777,0.110620458084311
778,0.11216262694582
779,0.111015875333921
780,0.112596253508292
