"wavelength","measurement"
380,0.0363967991677658
381,0.0348724955762504
382,0.0354059494218674
383,0.0338883554720647
384,0.0353833166568832
385,0.0359958516155253
386,0.0391841920911067
387,0.0404283637292475
388,0.0432138097483147
389,0.0454464899445287
390,0.0452516369261996
391,0.0464059457059366
392,0.0471498086091735
393,0.0483803195158039
394,0.0493977705191305
395,0.0537232027135257
396,0.0608353253882875
397,0.0695541123376768
398,0.0782728992870661
399,0.0869916862364554
400,0.0932636513208216
401,0.101072856841832
402,0.106070086586309
403,0.109903184459504
404,0.113136123530331
405,0.11424445637399
406,0.118911087112901
407,0.121986106096426
408,0.12487934689985
409,0.128136488168793
410,0.135773920930476
411,0.138772557655997
412,0.14360377485124
413,0.147792018762937
414,0.150025763555856
415,0.152032702029633
416,0.151413048442163
417,0.151607827096726
418,0.15411268845224
419,0.152302471822131
420,0.156229652170675
421,0.156287623336812
422,0.156889948879162
423,0.158172755441391
424,0.158976778113236
425,0.156260580575525
426,0.154850036339476
427,0.151851438909002
428,0.146566446239575
429,0.1453274557346
430,0.146594918992539
431,0.150004391434398
432,0.156147515847674
433,0.16060192163504
434,0.168607054969531
435,0.172187150841133
436,0.173572040030065
437,0.176474156197091
438,0.179376272364117
439,0.182278388531143
440,0.183299999645004
441,0.187199193522039
442,0.191516609651598
443,0.19149839198503
444,0.194690253040837
445,0.197882114096645
446,0.201073975152453
447,0.20331018732462
448,0.205551760782291
449,0.213216824495531
450,0.211236910593696
451,0.210139072926778
452,0.20946050861547
453,0.208781944304162
454,0.208103379992854
455,0.208250477761404
456,0.209130358195875
457,0.209463892562223
458,0.211720731841595
459,0.213684330489997
460,0.214756137858971
461,0.212087532526789
462,0.21975801553548
463,0.213196185638669
464,0.210985734377895
465,0.209699795295856
466,0.20826134081342
467,0.207149770708336
468,0.205797180104376
469,0.204510725512553
470,0.208724440348697
471,0.208615624734921
472,0.210662387894263
473,0.213661076676937
474,0.215063167950857
475,0.218861623673397
476,0.215374071208328
477,0.215645243765296
478,0.215916416322265
479,0.216187588879233
480,0.217208825050916
481,0.212371892880845
482,0.208774747470946
483,0.208045976827233
484,0.202877831678337
485,0.197353720255666
486,0.199169399937711
487,0.20061966562396
488,0.201875158315109
489,0.207640830948587
490,0.208596862407009
491,0.210297854307034
492,0.215705175590511
493,0.213333642567918
494,0.216389163727074
495,0.214633765281044
496,0.215705634022598
497,0.211478951448175
498,0.212729460539745
499,0.208378101403846
500,0.208297645950427
501,0.20678436686217
502,0.210288447779249
503,0.210653393233727
504,0.209016704287754
505,0.214637679078362
506,0.21409709212356
507,0.215621763455684
508,0.215796472583058
509,0.216334604801342
510,0.213253275799134
511,0.216769154388397
512,0.214138553194398
513,0.208382139328868
514,0.207194911505347
515,0.203381153363823
516,0.201362170626145
517,0.200644158465032
518,0.199013620099226
519,0.203091186209325
520,0.206835215976438
521,0.2093110727963
522,0.211786929616162
523,0.214262786436024
524,0.213067210435565
525,0.213506454246817
526,0.214239024646551
527,0.212245318188619
528,0.213737410549788
529,0.216517191312252
530,0.21664416835323
531,0.217382554230029
532,0.216693798546644
533,0.21839707289915
534,0.219269276305082
535,0.215634930807266
536,0.218368054209818
537,0.217270819198491
538,0.2154371619368
539,0.213880613632955
540,0.214755033073171
541,0.213658870773015
542,0.212359573403239
543,0.213049998735861
544,0.214030335853901
545,0.213401542873698
546,0.214727341323302
547,0.214666995743614
548,0.214606650163926
549,0.214546304584239
550,0.212804838665736
551,0.215174409067387
552,0.216590734864607
553,0.214783918750312
554,0.21404075422194
555,0.21590463105209
556,0.212597994632623
557,0.212623993981774
558,0.210621863246259
559,0.208836020078219
560,0.211792916888799
561,0.207896976661972
562,0.211694209732508
563,0.208361087354315
564,0.209361400237903
565,0.206316101278138
566,0.205387501750425
567,0.203168555604195
568,0.20405696643794
569,0.202152107307403
570,0.202221592913345
571,0.203042827665133
572,0.202384761096113
573,0.20267632870026
574,0.204078786643227
575,0.202222299929456
576,0.202924245874326
577,0.203626191819197
578,0.204328137764068
579,0.205030083708939
580,0.205732029653809
581,0.208371571146763
582,0.207321426832007
583,0.208116721690383
584,0.206169525995693
585,0.204249572933581
586,0.198899904029512
587,0.195235713126108
588,0.192962572611775
589,0.190689432097442
590,0.188416291583109
591,0.188993656226184
592,0.191042636877921
593,0.192267389423217
594,0.195905509914976
595,0.195078698290825
596,0.197298929168856
597,0.198758972643249
598,0.198757906263294
599,0.200038117568198
600,0.201820623845784
601,0.203067283951234
602,0.204407635890119
603,0.203845344512375
604,0.206302090904006
605,0.205386997201778
606,0.20512671232899
607,0.205145821576733
608,0.203178328611497
609,0.203278848531763
610,0.201296259501537
611,0.200956397447545
612,0.198687741437729
613,0.198439499770851
614,0.196082213466641
615,0.19822287883192
616,0.19595347191502
617,0.197753339712906
618,0.197573318782977
619,0.198570440862802
620,0.198100198826164
621,0.199240163877791
622,0.196396992240021
623,0.196096349364352
624,0.194973463244647
625,0.193850577124942
626,0.192727691005237
627,0.192537240712284
628,0.192457934989555
629,0.190998446673353
630,0.193208767205017
631,0.190591749097762
632,0.191899826149957
633,0.192669099361757
634,0.193206068334007
635,0.194738732818105
636,0.193040595454027
637,0.194381472960716
638,0.19398349133593
639,0.194244516653593
640,0.193719408471067
641,0.192752403646965
642,0.191998697815425
643,0.1906713697768
644,0.189344041738174
645,0.188016713699549
646,0.187783202156324
647,0.18737660020175
648,0.183534681051643
649,0.186925040291545
650,0.185348933890447
651,0.187200790878577
652,0.185178194384817
653,0.182471328994682
654,0.17989418430327
655,0.181853068799216
656,0.178958770417135
657,0.181109963185724
658,0.18374665500738
659,0.188483431837602
660,0.191021250027204
661,0.19189937340017
662,0.192914885230734
663,0.192704467784883
664,0.191942982505552
665,0.192394301135931
666,0.192501357004397
667,0.193947825136018
668,0.193406145436179
669,0.19063477482956
670,0.191774335672279
671,0.191816802461169
672,0.190480382351181
673,0.190788858168292
674,0.191620209719926
675,0.190573625270851
676,0.19126041157582
677,0.192768577263403
678,0.190128358136321
679,0.18976814217809
680,0.1946032465666
681,0.191044799410794
682,0.188790615906543
683,0.185191827581711
684,0.179482304544603
685,0.174962481523613
686,0.171702286564693
687,0.167638235245466
688,0.166831103130452
689,0.166896327093543
690,0.168503950750764
691,0.171811570715665
692,0.171360776170746
693,0.172722561862969
694,0.17542181513178
695,0.176864692786742
696,0.17914879874069
697,0.181449450734407
698,0.180279351017745
699,0.180867111158383
700,0.184216118922243
701,0.183449627629555
702,0.18836662543794
703,0.189166132954761
704,0.192116670717844
705,0.195040090184797
706,0.198445849738399
707,0.200279851546344
708,0.203635530671301
709,0.207068596732025
710,0.207012834371019
711,0.207263807049422
712,0.209543765246851
713,0.201502019770421
714,0.197663633510709
715,0.187908867733158
716,0.178108524044126
717,0.171366654193889
718,0.170576038310497
719,0.171191042980991
720,0.174766898087101
721,0.174126721235718
722,0.181140838623739
723,0.181002692815766
724,0.181064808446921
725,0.18150329238601
726,0.181725842571616
727,0.185748765745845
728,0.188496847504468
729,0.194031145486564
730,0.200459092860093
731,0.20925572442037
732,0.216982334415738
733,0.225751238184574
734,0.23135292494047
735,0.235015574468338
736,0.240516935230441
737,0.243384595537283
738,0.246252255844125
739,0.249119916150968
740,0.2560102402896
741,0.258912449650329
742,0.26237490088814
743,0.265837352125951
744,0.269299803363761
745,0.269830687612002
746,0.271355984195279
747,0.272897024759955
748,0.27118646151722
749,0.273505493493007
750,0.274490954220951
751,0.273889911615304
752,0.277664502879067
753,0.276831779807778
754,0.274737169628567
755,0.25957086153125
756,0.244404553433932
757,0.229238245336615
758,0.202171169472551
759,0.178672112334637
760,0.160017859226127
761,0.154880059931203
762,0.159973826884143
763,0.170809212034298
764,0.18715623338224
765,0.20263898270695
766,0.222918606492772
767,0.241557429823515
768,0.253846564278954
769,0.260823546257154
770,0.269032206365055
771,0.271567238072311
772,0.274946284119127
773,0.278372633373801
774,0.278263421018989
775,0.278990959901819
776,0.279496097327778
777,0.276635423263178
778,0.281056770973021
779,0.27763176159443
780,0.280633217203405
