"wavelength","measurement"
380,0.0256465222202251
381,0.0266021603758203
382,0.0250559586054973
383,0.0247481281896376
384,0.0267892685795239
385,0.0275066393962572
386,0.0304690015903893
387,0.0327288347981831
388,0.0339391892568904
389,0.0361498451658467
390,0.038006790628112
391,0.038351480505906
392,0.0400425478696949
393,0.0410368409462542
394,0.0427627241987143
395,0.0483374192991744
396,0.0543578702027987
397,0.0630371503494524
398,0.0717164304961062
399,0.0803957106427599
400,0.0864551022330066
401,0.0957706203847972
402,0.104277237534651
403,0.107107420448243
404,0.111922869003593
405,0.114239422289075
406,0.119180980523562
407,0.123902227486979
408,0.126601353547076
409,0.132679777333723
410,0.141008509556021
411,0.144949742757733
412,0.151499676223157
413,0.157606219812594
414,0.160219949123108
415,0.164228615903107
416,0.164244582304184
417,0.165298857527258
418,0.169294963602686
419,0.169314795712348
420,0.173323127098223
421,0.174585621894781
422,0.176414221640877
423,0.177498251146657
424,0.180737299687851
425,0.177982749299019
426,0.17712556548315
427,0.173823016301639
428,0.168342036627521
429,0.167189847214968
430,0.168207275417301
431,0.174621302789444
432,0.180371610325182
433,0.186319234598697
434,0.19426304279626
435,0.198894012078243
436,0.202321592692201
437,0.205534901000875
438,0.208748209309549
439,0.211961517618223
440,0.214441814217963
441,0.21720746695082
442,0.223434861105895
443,0.22483518104997
444,0.228061602614112
445,0.231288024178255
446,0.234514445742397
447,0.236541637437481
448,0.237467578023302
449,0.246634176813435
450,0.245640759435189
451,0.243558577283173
452,0.242647048500787
453,0.241735519718402
454,0.240823990936016
455,0.240813279319473
456,0.241270044881224
457,0.241614322523653
458,0.244361991847106
459,0.24633323176218
460,0.248029977189081
461,0.246458880934627
462,0.254879964096033
463,0.246709749208917
464,0.245090747288889
465,0.243327311997184
466,0.241800670745145
467,0.24101596640077
468,0.238452353397103
469,0.238076329212884
470,0.243157288293046
471,0.242863427348094
472,0.245663172824809
473,0.249638730368219
474,0.250072210176894
475,0.256281185362762
476,0.250420908936885
477,0.251251551905943
478,0.252082194875001
479,0.252912837844059
480,0.253328274033848
481,0.248250306668647
482,0.244224834371964
483,0.242964514205652
484,0.23580951272355
485,0.231080360883801
486,0.232414232646655
487,0.234410215512968
488,0.236045468666991
489,0.243027869877335
490,0.244373345846402
491,0.246264254285754
492,0.252620550266964
493,0.248788413821633
494,0.254335884935917
495,0.250420107635868
496,0.252514503833214
497,0.248542629877446
498,0.248901238053696
499,0.243593612259983
500,0.244038590119868
501,0.241977066895174
502,0.246293969609079
503,0.245899579917061
504,0.243582012194466
505,0.251606724030006
506,0.250506694206171
507,0.251225686172952
508,0.252803050099599
509,0.252745337228886
510,0.248774855505841
511,0.250833226561939
512,0.250151218060811
513,0.242595401199007
514,0.241025265413007
515,0.236425881542451
516,0.23367048321957
517,0.233126764711245
518,0.231093559241264
519,0.23502406446901
520,0.239329055503742
521,0.242157128578301
522,0.244985201652859
523,0.247813274727417
524,0.246421329740737
525,0.245859917803607
526,0.246938336869266
527,0.245084277613231
528,0.2458788793015
529,0.24913345922944
530,0.249078430817109
531,0.250133388661266
532,0.24890504105305
533,0.250708291359981
534,0.251976705054364
535,0.248340654255248
536,0.250567610835195
537,0.249052183860292
538,0.246977115115412
539,0.245024512750654
540,0.246024858954275
541,0.244193752009122
542,0.242867777278384
543,0.244675333944603
544,0.245913588316704
545,0.244309677364395
546,0.246154828057222
547,0.246322113284304
548,0.246489398511386
549,0.246656683738468
550,0.243800872247608
551,0.245746204994969
552,0.248246321267282
553,0.244973315796675
554,0.244261495701662
555,0.24703176283053
556,0.242809777552905
557,0.242174168488897
558,0.241278669741934
559,0.238876338041801
560,0.241465899078959
561,0.23796634238499
562,0.241413280764551
563,0.237985817118326
564,0.239965771289769
565,0.236923701725496
566,0.234862115610479
567,0.232202743257612
568,0.233573659588929
569,0.231660661894932
570,0.231664768610498
571,0.232167038415415
572,0.232689705426883
573,0.232223673467722
574,0.234543035797841
575,0.232096461767455
576,0.232977112381691
577,0.233857762995928
578,0.234738413610164
579,0.2356190642244
580,0.236499714838636
581,0.240180841239149
582,0.238826401955641
583,0.240861815561502
584,0.236617850009348
585,0.236519186933442
586,0.229606820824003
587,0.22690057309032
588,0.224289666357478
589,0.221678759624636
590,0.219067852891794
591,0.220281192279331
592,0.222753513504504
593,0.223127590735584
594,0.227668083935223
595,0.227019007585115
596,0.229473441607361
597,0.231147890634741
598,0.231246138940634
599,0.232153392111081
600,0.234695068547617
601,0.236290607017039
602,0.23822042584182
603,0.237362260683829
604,0.240307368010685
605,0.239223029438087
606,0.240129552782129
607,0.238995130302462
608,0.236669169627578
609,0.237176760085541
610,0.234688432626762
611,0.234922043736468
612,0.23181671505192
613,0.231586940053267
614,0.229534640819192
615,0.23231045907662
616,0.229436044351978
617,0.231203035191397
618,0.231557615984804
619,0.232536099388449
620,0.232596459721696
621,0.233626781537805
622,0.229159999036323
623,0.229698294696867
624,0.228621966079717
625,0.227545637462568
626,0.226469308845419
627,0.226606123456676
628,0.225753642478713
629,0.22488517794902
630,0.22732137294391
631,0.225041878701931
632,0.22564337172424
633,0.227110240636802
634,0.22758234222212
635,0.228742728543621
636,0.227667680012685
637,0.229409630740974
638,0.228917744244785
639,0.228591227647343
640,0.227790646705452
641,0.228096432518494
642,0.22681109713403
643,0.22524580228872
644,0.223680507443411
645,0.222115212598102
646,0.221783986886802
647,0.221836123324459
648,0.217236430606297
649,0.221184514096169
650,0.218910038549676
651,0.221941186728371
652,0.218880687321787
653,0.216689282310501
654,0.213147951974338
655,0.215224989660469
656,0.213138634764668
657,0.214818051254246
658,0.217501114882687
659,0.223413347126701
660,0.226272706536074
661,0.227357638349977
662,0.229415720283053
663,0.228629162294378
664,0.227295687130296
665,0.229063154985009
666,0.229363235948101
667,0.23062965688233
668,0.230377920080073
669,0.226822243443705
670,0.227386265098417
671,0.227989270113455
672,0.226501457803238
673,0.226828232923395
674,0.227862133898163
675,0.227756963975144
676,0.228187515381235
677,0.229572834606985
678,0.225785893535991
679,0.226192515101528
680,0.232521328919499
681,0.226866575252491
682,0.224040435588013
683,0.220624775365526
684,0.213189449833418
685,0.208679893034453
686,0.204580965076431
687,0.199686953750945
688,0.197886892532673
689,0.199009800426289
690,0.200493074529795
691,0.203325584237837
692,0.203769820239547
693,0.206792973139671
694,0.208590359513372
695,0.208307524292439
696,0.212659810753142
697,0.214418069948767
698,0.2121413641427
699,0.212920601898729
700,0.217288352162623
701,0.216184525614415
702,0.220829393780404
703,0.221276084846859
704,0.225986807746987
705,0.227344491057677
706,0.231128133336477
707,0.235381884434289
708,0.236550969782068
709,0.24064814183574
710,0.240136780229074
711,0.23996151542913
712,0.242075998893663
713,0.232913200038998
714,0.229689970994876
715,0.216716869013917
716,0.205746013841111
717,0.196966665487584
718,0.1960682075968
719,0.196681227141919
720,0.200355178183966
721,0.199559878156356
722,0.207137119935389
723,0.20651986347807
724,0.206881294833321
725,0.207488733422913
726,0.207644850561505
727,0.210999760416644
728,0.214329131247674
729,0.221370691077536
730,0.227042299424721
731,0.235986393639564
732,0.244843457245491
733,0.254482377826136
734,0.261006795798732
735,0.264625435867978
736,0.269605493517083
737,0.273043960557633
738,0.276482427598183
739,0.279920894638733
740,0.286603830585969
741,0.288023610180389
742,0.292006720747324
743,0.295989831314259
744,0.299972941881194
745,0.301596243755745
746,0.302277887193292
747,0.305248751581934
748,0.302386092950988
749,0.305084275716394
750,0.306466418859315
751,0.304138631855917
752,0.309260301349777
753,0.308605608273497
754,0.307052048633017
755,0.289695588759489
756,0.272339128885961
757,0.254982669012432
758,0.227299958356009
759,0.200555275599433
760,0.178744823072842
761,0.174088193799536
762,0.179793710315192
763,0.190972208798622
764,0.20840617595546
765,0.226994515791886
766,0.248853442495394
767,0.270892844219465
768,0.282711302156434
769,0.29117201533281
770,0.300455607555137
771,0.303626293556196
772,0.306093268706066
773,0.312366705174108
774,0.310693603638426
775,0.311045010522941
776,0.313291607392396
777,0.309322370091291
778,0.31411857799562
779,0.309212506214213
780,0.315370246210933
