"wavelength","measurement"
380,0.0063147618527923
381,0.00626039709702944
382,0.00629327791390143
383,0.00655192794176436
384,0.00691184182292197
385,0.00706927200435263
386,0.00763176709373431
387,0.00805393092178732
388,0.00874222266310525
389,0.00923978194889613
390,0.00920039153506857
391,0.00948891164635042
392,0.00950628118962632
393,0.00979214246775711
394,0.0101508632855784
395,0.0112993196087361
396,0.0124326495543043
397,0.0141115612570775
398,0.0157904729598506
399,0.0174693846626238
400,0.0186322031197073
401,0.0201274868987599
402,0.0211550053325613
403,0.0217241636185644
404,0.0224306166765914
405,0.0227920754387597
406,0.0236466088206278
407,0.0243373683076261
408,0.0248577108299964
409,0.0257168286057855
410,0.0273888387266666
411,0.0279877808796323
412,0.0291876334244363
413,0.0300844067619209
414,0.0303675278551489
415,0.0311025950428786
416,0.0310203693210963
417,0.0311259051077602
418,0.0318995312079758
419,0.031732663006884
420,0.0324180311172895
421,0.0326043181850302
422,0.0329390318977165
423,0.0334744627378807
424,0.0337569843546572
425,0.0333262137616676
426,0.0331830294131887
427,0.0324279439318532
428,0.0316519246930148
429,0.0316988760123891
430,0.0317576699245948
431,0.032900661939176
432,0.0344635457479378
433,0.0355751716483204
434,0.0372127169389516
435,0.0381213357346085
436,0.0387922467091898
437,0.0395719218190241
438,0.0403515969288585
439,0.0411312720386928
440,0.0413530963612136
441,0.0422275799045933
442,0.0434077778142818
443,0.043954271360132
444,0.0448886700793385
445,0.0458230687985449
446,0.0467574675177513
447,0.047718383950944
448,0.0480857491979205
449,0.0501700244262367
450,0.0501876350215075
451,0.0499573479084846
452,0.0500380837423071
453,0.0501188195761296
454,0.050199555409952
455,0.0502469803621315
456,0.0505096002473573
457,0.0511203633263458
458,0.0517527607279538
459,0.0526208797673713
460,0.0529411926207651
461,0.0524913379764986
462,0.0543849252724646
463,0.0529489991841033
464,0.0525000533158989
465,0.0523657492280103
466,0.0518782232701939
467,0.0516855677983908
468,0.0514626342768754
469,0.051389686072883
470,0.0523731196423153
471,0.0525746553448971
472,0.0529448814730366
473,0.0538275165591001
474,0.0541878597440651
475,0.0550970204367818
476,0.0541836606799914
477,0.0543489758618365
478,0.0545142910436816
479,0.0546796062255267
480,0.0546376680265477
481,0.0534196857097582
482,0.0526471941022126
483,0.052385035313019
484,0.0512015758488894
485,0.0500152147048509
486,0.0505679346690386
487,0.0510222882424166
488,0.0515593653862207
489,0.0529899903726391
490,0.0535752836609458
491,0.0540118896213061
492,0.0553994040888458
493,0.054990102843148
494,0.0559994351965586
495,0.0554286625271954
496,0.0557783749188984
497,0.0549695720222989
498,0.0552590720843259
499,0.0541208001060097
500,0.0545922273422584
501,0.054144343633377
502,0.0550705603187632
503,0.0554428958451022
504,0.0549856235749136
505,0.0568323444722532
506,0.0567205669735377
507,0.0571173067893443
508,0.0573962555143004
509,0.0576115026765111
510,0.056797634806753
511,0.0575261093416059
512,0.0573866799320211
513,0.05567752265929
514,0.0554493465323687
515,0.0545007592438898
516,0.0543146545507573
517,0.054141814296953
518,0.0540393793098884
519,0.0550338943696413
520,0.0561574776238137
521,0.0568623720686358
522,0.0575672665134579
523,0.0582721609582799
524,0.0580330973322874
525,0.0582336044264165
526,0.0585205874409752
527,0.0582729680394203
528,0.0585290263346819
529,0.0593468221806535
530,0.0594643718516533
531,0.0597321025508934
532,0.0595052005475476
533,0.0600119410568694
534,0.0603576810302134
535,0.059573511752082
536,0.0602256735597068
537,0.0598500038946283
538,0.0594688083517733
539,0.0590670594057265
540,0.0594600555083741
541,0.0589408982604518
542,0.0587320058887631
543,0.0590531224033673
544,0.0593635746036653
545,0.0589957516531854
546,0.059515611862782
547,0.0594552531243821
548,0.0593948943859821
549,0.0593345356475822
550,0.058829631096606
551,0.0593379586501801
552,0.0597954926948243
553,0.0592041250986021
554,0.0589994030396068
555,0.0596654788179001
556,0.0587993153884162
557,0.0586797365996495
558,0.0583570146268175
559,0.057825061682222
560,0.0585319665501356
561,0.0576292267399585
562,0.0586194291115433
563,0.0577778762159433
564,0.0581422738099909
565,0.0573181768776103
566,0.0569920481161301
567,0.0564295136694616
568,0.0567362770635997
569,0.0560498585488938
570,0.0561019561782369
571,0.0562076343275151
572,0.0561400664140434
573,0.056162885927309
574,0.0566114482457172
575,0.0559959790335761
576,0.0560795422388737
577,0.0561631054441712
578,0.0562466686494688
579,0.0563302318547663
580,0.0564137950600639
581,0.057037722121871
582,0.0566706016891544
583,0.0568763877243768
584,0.055923383451416
585,0.055555361796289
586,0.0537566244738408
587,0.0529268856076545
588,0.0522111675979462
589,0.0514954495882379
590,0.0507797315785296
591,0.0509454708354054
592,0.0513707441508154
593,0.0514284016800827
594,0.0522965620030517
595,0.0520622564972829
596,0.052421950976045
597,0.0527829417075149
598,0.0527775793938639
599,0.0527941509735016
600,0.0533322890611511
601,0.0534411870213394
602,0.0537861341577699
603,0.0534327498188158
604,0.0540629948503946
605,0.0536762175230268
606,0.0536793849244238
607,0.053356988310631
608,0.0526648647909586
609,0.0526401056263814
610,0.0521022756995705
611,0.0517347122688065
612,0.0512123897916689
613,0.051055703845288
614,0.0501292565054336
615,0.0507715699204669
616,0.0499786409293083
617,0.0503899916762465
618,0.0502775822062269
619,0.0502550066359726
620,0.0500453051750163
621,0.0504053108037239
622,0.0493876138047291
623,0.0491517617405043
624,0.0487931679381445
625,0.0484345741357846
626,0.0480759803334248
627,0.0478571097161008
628,0.0476545382544105
629,0.0473948325505691
630,0.0475985525087462
631,0.0469266114815417
632,0.0470952994700525
633,0.0473228986674409
634,0.0471829082088689
635,0.0473333459532202
636,0.0469013297215605
637,0.047112272921447
638,0.0468002719658148
639,0.0468240937969369
640,0.0465209393712744
641,0.0462066588070471
642,0.045880385757007
643,0.0454108311580874
644,0.0449412765591678
645,0.0444717219602482
646,0.0443695420181444
647,0.0441782398936766
648,0.0430475031716678
649,0.0438355097823556
650,0.0431948805367007
651,0.0435961223174514
652,0.0429193606583559
653,0.0421554585880971
654,0.0412193775906825
655,0.0416268765969211
656,0.0409998995655738
657,0.0413194436280011
658,0.0416937704464083
659,0.0426198438926904
660,0.0429528687743001
661,0.0430129425410228
662,0.0432896703928406
663,0.0428742355693285
664,0.0425591749071407
665,0.0426145779224626
666,0.0424688669524354
667,0.0424795262596513
668,0.0422746476476648
669,0.0415077603564652
670,0.0415343653661091
671,0.0414291141803857
672,0.0410541351205912
673,0.0410603201100153
674,0.0410955980232544
675,0.0408132131401968
676,0.0406871030967892
677,0.0407778225901152
678,0.0402821745635955
679,0.0400330789453658
680,0.0408470163711955
681,0.0398700746037161
682,0.0391257729093007
683,0.0382697034384165
684,0.0369548829921307
685,0.0359587210226637
686,0.0352855838134109
687,0.0342537549081369
688,0.033935371541308
689,0.0338477317596889
690,0.0341258680606004
691,0.0347118425739134
692,0.0345205450105605
693,0.0348731451403612
694,0.0351264620634092
695,0.0350256753118757
696,0.0356445160385509
697,0.0358119117186509
698,0.0352585335154717
699,0.0352864581531354
700,0.0358254748604595
701,0.035527545231026
702,0.036029991238896
703,0.0361656293666354
704,0.0365371069645059
705,0.0369230300284571
706,0.0373420583082249
707,0.0377644239989417
708,0.0375823895693426
709,0.0380939604206844
710,0.0378092227142969
711,0.0376954087577709
712,0.0377376160974648
713,0.0361596558205162
714,0.035034337432025
715,0.0330739622249257
716,0.0310935065566049
717,0.0298425846233105
718,0.0293705883508438
719,0.0293046187725532
720,0.0296977099307792
721,0.0294190592601457
722,0.0300611943905187
723,0.0300488967032123
724,0.029557658738206
725,0.0295135197758201
726,0.0293310430887011
727,0.0297356462436691
728,0.0300514225866317
729,0.0306114987412446
730,0.0313040078069155
731,0.0322523690494216
732,0.0332801124312823
733,0.0343512461552234
734,0.035042763144503
735,0.0351142907299949
736,0.0356462609091954
737,0.0358009084640624
738,0.0359555560189294
739,0.0361102035737963
740,0.0367656569658732
741,0.0367821252598894
742,0.0369763109576929
743,0.0371704966554964
744,0.0373646823532999
745,0.0372816656303329
746,0.0371464528560248
747,0.0372613296775144
748,0.0366313280876301
749,0.0366588715218401
750,0.0364592250392493
751,0.0362369849094881
752,0.0364737045312913
753,0.0361800841152698
754,0.035656784989446
755,0.0334487822629964
756,0.0312407795365468
757,0.0290327768100972
758,0.0254802221500173
759,0.0224142626975907
760,0.0200045804173475
761,0.0193388965088428
762,0.0200542957616838
763,0.0212248719218627
764,0.0231566830882691
765,0.0249060173564584
766,0.0272659804054614
767,0.0291611741055769
768,0.0302420404855195
769,0.0311939761052688
770,0.0318916162394204
771,0.0320919745123554
772,0.032296365356746
773,0.0327795869625166
774,0.0323805576540293
775,0.0322100342425399
776,0.0323581402940319
777,0.0317086521339316
778,0.0320412524391217
779,0.0314453922129287
780,0.0318777214772438
