"wavelength","measurement"
380,0.0404121113176557
381,0.0388721224969853
382,0.0376413614009417
383,0.0375930952407423
384,0.0374551069938987
385,0.0390306573755716
386,0.0406904194648902
387,0.0421461856580247
388,0.0437771339627516
389,0.0458441071252795
390,0.0454816840242617
391,0.0454008524375248
392,0.0449183518090056
393,0.0455460132497376
394,0.0457793080510438
395,0.0481916532148082
396,0.0535915810901655
397,0.0595651757921274
398,0.0655387704940892
399,0.0715123651960511
400,0.0750685760354165
401,0.0792897291035242
402,0.0827877452987119
403,0.0834040515938937
404,0.084209427102842
405,0.0839205271138786
406,0.0861572170343221
407,0.0870394412944821
408,0.0885524634376886
409,0.0898510889216166
410,0.0944610340691256
411,0.0948777182785946
412,0.0984788172955556
413,0.100943472586217
414,0.101199855345283
415,0.103446047809447
416,0.102862799971934
417,0.103112150782887
418,0.104416220632168
419,0.103736142321105
420,0.106406593564999
421,0.106929622590076
422,0.108763619942346
423,0.10950012100612
424,0.110336469056094
425,0.108628370425725
426,0.108248887908328
427,0.10565473879094
428,0.10279022752746
429,0.102525632951726
430,0.102743947060512
431,0.106911081108317
432,0.110784216855847
433,0.113989871955483
434,0.119007493566906
435,0.122506780046034
436,0.123280016263626
437,0.125194415578109
438,0.127108814892593
439,0.129023214207076
440,0.130329992760295
441,0.132019875376232
442,0.134823281116832
443,0.136405314750191
444,0.138046433871327
445,0.139687552992464
446,0.141328672113601
447,0.142800994854675
448,0.143153217800363
449,0.148495566139318
450,0.147916614028973
451,0.146318305295455
452,0.14585571056843
453,0.145393115841405
454,0.14493052111438
455,0.144407537502056
456,0.144795101338606
457,0.145340531050043
458,0.146613831406818
459,0.148506296721108
460,0.148895307581116
461,0.147090446959075
462,0.152249607244434
463,0.147899318155545
464,0.145823341033245
465,0.145037116615972
466,0.143244664714616
467,0.142869411472637
468,0.141519443919802
469,0.140603611540245
470,0.143101702098511
471,0.142752995910201
472,0.143693042809987
473,0.14586895973645
474,0.146417096136693
475,0.148562376067463
476,0.145589747439775
477,0.145614629272149
478,0.145639511104523
479,0.145664392936897
480,0.145378031038714
481,0.141902269821148
482,0.139218621263532
483,0.138964057775238
484,0.134633209703157
485,0.132109581433244
486,0.132596526949389
487,0.133512963851002
488,0.134456971218961
489,0.138129991305423
490,0.138470898835893
491,0.140446962227827
492,0.143383208799063
493,0.142371837920858
494,0.144521402580721
495,0.14276420464663
496,0.143271986051125
497,0.141206524963285
498,0.141814403353816
499,0.1388373119718
500,0.139668728984976
501,0.138226487152831
502,0.140288435564507
503,0.141081821694246
504,0.139433328801342
505,0.144520078229009
506,0.143828329909838
507,0.144650125171838
508,0.145510019345988
509,0.145900770701077
510,0.143888957174667
511,0.145833410262531
512,0.145085055740478
513,0.14121563036326
514,0.140722325107282
515,0.138245657007376
516,0.137534298037201
517,0.136874504323501
518,0.136602918772788
519,0.139134517143043
520,0.142139228699052
521,0.144110091621246
522,0.146080954543441
523,0.148051817465635
524,0.147460905291653
525,0.147921774463872
526,0.149028607422566
527,0.148005698600855
528,0.149091781630194
529,0.15172222810064
530,0.151814516761547
531,0.152320939389687
532,0.152266168154008
533,0.153247525686982
534,0.154606585671391
535,0.152994728051119
536,0.1541004568624
537,0.153360973731376
538,0.152415333267969
539,0.151408225967869
540,0.152271271398991
541,0.151183276685048
542,0.150411263830948
543,0.151114293209886
544,0.152750219091726
545,0.151872539282021
546,0.153353685340018
547,0.153226284643403
548,0.153098883946788
549,0.152971483250174
550,0.152030246806888
551,0.153970855557364
552,0.155247502767228
553,0.153822630910127
554,0.153135678182053
555,0.155002829053743
556,0.152970918151871
557,0.153051991188638
558,0.151344602672736
559,0.150557393077001
560,0.152700285219703
561,0.150165486419214
562,0.153047833965687
563,0.150412942299115
564,0.151332297162348
565,0.149666974937675
566,0.149074095488935
567,0.147009558645519
568,0.148009925754919
569,0.146383363726042
570,0.14648524105878
571,0.147075437075741
572,0.146801164995243
573,0.147032152893818
574,0.148310773312798
575,0.146136608026681
576,0.146650450101828
577,0.147164292176976
578,0.147678134252123
579,0.148191976327271
580,0.148705818402418
581,0.150587252735843
582,0.149702945386322
583,0.150518610225971
584,0.147812092297616
585,0.147093001617468
586,0.142628875048092
587,0.140578179342276
588,0.138648341287964
589,0.136718503233652
590,0.134788665179341
591,0.134954696268133
592,0.136749796703148
593,0.137097475051547
594,0.140112291916591
595,0.139398788691299
596,0.140684894823465
597,0.14143607793332
598,0.142367843185081
599,0.142543952838358
600,0.144305580454373
601,0.145376840604991
602,0.14606235655245
603,0.145982639425452
604,0.147555882780628
605,0.146686917995943
606,0.146936371907286
607,0.146928646524052
608,0.144700684834216
609,0.144991245561255
610,0.143811932979771
611,0.143176063311731
612,0.141850706253195
613,0.141541814798529
614,0.140078910376841
615,0.141761285558776
616,0.140085203513303
617,0.140908091927177
618,0.141200126638152
619,0.14175654670659
620,0.141491209620877
621,0.142273522110943
622,0.139679460097961
623,0.139784402758649
624,0.138953232375428
625,0.138122061992208
626,0.137290891608987
627,0.137430593139412
628,0.137065169715486
629,0.136572130179468
630,0.137786659169484
631,0.135949644632571
632,0.136747378038452
633,0.137527184747968
634,0.138000660362791
635,0.138919458955234
636,0.137622880038063
637,0.138708571994573
638,0.138337031043929
639,0.138729715989018
640,0.138378747696931
641,0.137762901832144
642,0.136660762851009
643,0.135536552532633
644,0.134412342214257
645,0.133288131895881
646,0.13354422815394
647,0.133232603985307
648,0.130509915781602
649,0.13269863325906
650,0.131417126786313
651,0.132914962629176
652,0.131763012080673
653,0.129842498987229
654,0.127642798106699
655,0.128698958921419
656,0.127310225730203
657,0.129056711957593
658,0.130615087746577
659,0.134313129194113
660,0.135501379312756
661,0.136359208232634
662,0.137316193545971
663,0.137069884089814
664,0.135895194347816
665,0.136653190792213
666,0.136777213614008
667,0.137030386414169
668,0.137486750300978
669,0.135092853593736
670,0.135554124620611
671,0.1356196747745
672,0.135007656964079
673,0.135293731714783
674,0.135688980358893
675,0.135642729784229
676,0.135793220993037
677,0.136768884098446
678,0.1349468123912
679,0.135853530471675
680,0.137683154967649
681,0.13658462435771
682,0.134060552692123
683,0.131433262447853
684,0.127316144305585
685,0.124588532220282
686,0.121881767725541
687,0.119188516084919
688,0.118385433747857
689,0.118733328037483
690,0.119977038299507
691,0.122088190182122
692,0.122769310024726
693,0.124404624729208
694,0.125468255352324
695,0.126172328050612
696,0.128618583043498
697,0.130174574254753
698,0.129573125072882
699,0.13009113144699
700,0.132827229011517
701,0.132411670509393
702,0.135519671681985
703,0.137051291488036
704,0.140462922616004
705,0.141505403090294
706,0.144676292353961
707,0.147495597553124
708,0.148515302278802
709,0.151744467473288
710,0.151535888930206
711,0.15235201463059
712,0.153759482804257
713,0.147766240219247
714,0.145183632204989
715,0.13763720875483
716,0.130644502701047
717,0.125970593366324
718,0.125379298072118
719,0.126298705571649
720,0.129016774621249
721,0.12962596139596
722,0.13399532920876
723,0.134018705987681
724,0.134218290429997
725,0.135024100769799
726,0.135638824150046
727,0.138021347087111
728,0.140882393898397
729,0.145663891992831
730,0.150555195681467
731,0.156662724238182
732,0.163192459801295
733,0.170279834111639
734,0.174965728731258
735,0.17813905309969
736,0.181626410182854
737,0.184280056796566
738,0.186933703410278
739,0.189587350023991
740,0.194591055523192
741,0.196640900156301
742,0.199061860901721
743,0.201482821647141
744,0.20390378239256
745,0.205599281373828
746,0.206268349101803
747,0.207878723879314
748,0.205932494196877
749,0.207719261487373
750,0.208434459917208
751,0.20803287191455
752,0.211345846180564
753,0.210560430448927
754,0.208923237605699
755,0.196991105197709
756,0.185058972789719
757,0.173126840381728
758,0.152884625194994
759,0.134511902303533
760,0.120166634852639
761,0.116470744410825
762,0.120472641297439
763,0.128796939682649
764,0.140318616137604
765,0.153124028415115
766,0.167641972174299
767,0.182903949451046
768,0.191293359246225
769,0.197836099601735
770,0.203418359817779
771,0.205207135211478
772,0.20780956004469
773,0.210653896147092
774,0.209657950452967
775,0.210660746220592
776,0.211074355613878
777,0.209216048711534
778,0.212426251311307
779,0.209478536002852
780,0.212125229134547
