"wavelength","measurement"
380,0.0319088782707855
381,0.0308953002057888
382,0.0301191628921598
383,0.029188001163104
384,0.0292740051066108
385,0.0303167687406705
386,0.0319724389513541
387,0.03345189673841
388,0.034663770674606
389,0.0356821018940197
390,0.035671208844503
391,0.0353505562686345
392,0.0355085313124101
393,0.0357778317352656
394,0.0362992953326225
395,0.0382348217007716
396,0.0425363677485163
397,0.0473135049909536
398,0.052090642233391
399,0.0568677794758283
400,0.0598404320438935
401,0.0637616166171898
402,0.0661729799542134
403,0.0670352808986508
404,0.0678431131567724
405,0.0675017848399004
406,0.0690127745355693
407,0.0693796057797757
408,0.0699439963357719
409,0.071496862213977
410,0.0745741840689104
411,0.0748269560949745
412,0.0767075422270726
413,0.0782198176023651
414,0.0784156708232235
415,0.0790739156851071
416,0.0783138096911256
417,0.0777951923927977
418,0.0786768090923672
419,0.07726070922591
420,0.0788504397087446
421,0.0784164011450464
422,0.0790913652243167
423,0.0792714548659782
424,0.0798855739815922
425,0.0781616932358953
426,0.0777813077715151
427,0.0755258653211411
428,0.0731560211167948
429,0.0727855799392464
430,0.0727247027722015
431,0.0751440342648381
432,0.0776112808298318
433,0.080364993180075
434,0.0838468725689427
435,0.0854891061876603
436,0.0867134405578729
437,0.0879597406028404
438,0.0892060406478078
439,0.0904523406927753
440,0.090904238281182
441,0.0925213239194194
442,0.0947585175366236
443,0.0955086605494866
444,0.0968835040050201
445,0.0982583474605536
446,0.0996331909160871
447,0.101004711897113
448,0.101488744939624
449,0.10566468568198
450,0.104906274037583
451,0.104422856279872
452,0.10417921496829
453,0.103935573656708
454,0.103691932345127
455,0.103813703649302
456,0.103222395774415
457,0.104486289738496
458,0.105124666899564
459,0.106718812237791
460,0.106820153328144
461,0.105883096934827
462,0.109233496254946
463,0.106056602725991
464,0.10502171911911
465,0.104202900257952
466,0.103036062200802
467,0.102688979220394
468,0.101609190446191
469,0.100882533330052
470,0.102988170945647
471,0.102689858127063
472,0.103432445913002
473,0.104796654818562
474,0.105347024409548
475,0.107176408738615
476,0.104661429236971
477,0.104826750322771
478,0.104992071408571
479,0.105157392494371
480,0.104885910205777
481,0.102651615454489
482,0.100894072102243
483,0.100150852452288
484,0.0975033312637038
485,0.0952367714001142
486,0.0958634480706703
487,0.0966936615200359
488,0.0976363868591424
489,0.100151868660525
490,0.101018970535742
491,0.101898118732931
492,0.104478956012805
493,0.103374746468036
494,0.105034960143532
495,0.103902136683492
496,0.104542765284186
497,0.102863039329216
498,0.103405310023333
499,0.101177481840039
500,0.101819366677503
501,0.100804852144615
502,0.102724009260651
503,0.102976421256883
504,0.102191568152584
505,0.105506907265064
506,0.105197307886834
507,0.106019510518704
508,0.106440496860903
509,0.106839765306895
510,0.105303958869695
511,0.106874183172015
512,0.106421315276237
513,0.103364522575404
514,0.102988301594507
515,0.1011873698092
516,0.100578218450545
517,0.100557246686735
518,0.100448071253117
519,0.102648904936794
520,0.104451709558755
521,0.105988257775658
522,0.10752480599256
523,0.109061354209462
524,0.108628510033498
525,0.109038386297792
526,0.109616122678556
527,0.109089519878278
528,0.109934494972161
529,0.111744513573153
530,0.111972292529801
531,0.112406867398044
532,0.112228392056322
533,0.113366518419679
534,0.113726108344906
535,0.112603387870766
536,0.113791695791545
537,0.113529805368609
538,0.112586330437069
539,0.111952867481463
540,0.112720527871137
541,0.111997173655259
542,0.111285418974963
543,0.112102824473445
544,0.112765791650339
545,0.112136946049968
546,0.11325078664889
547,0.113256536340267
548,0.113262286031644
549,0.113268035723021
550,0.112650644681945
551,0.113754972978728
552,0.114731199123549
553,0.113886227389399
554,0.113585375708806
555,0.114793838095536
556,0.113265840492843
557,0.113216156817118
558,0.112547298170314
559,0.111707350828318
560,0.113296810085186
561,0.111523773999252
562,0.113428530616041
563,0.111715850535979
564,0.112547237673723
565,0.11114118378872
566,0.110458675103713
567,0.109444783163778
568,0.110009297797578
569,0.10895451717648
570,0.10890454086069
571,0.109148291718245
572,0.109210185806235
573,0.109300294139014
574,0.110041451937555
575,0.108644582162246
576,0.108945929090992
577,0.109247276019738
578,0.109548622948484
579,0.10984996987723
580,0.110151316805976
581,0.111621074764888
582,0.110727678200095
583,0.111312699037392
584,0.109602965710819
585,0.109050770915012
586,0.105617245547312
587,0.10400461888348
588,0.102612966432786
589,0.101221313982091
590,0.0998296615313967
591,0.100194518958553
592,0.101187100273667
593,0.101462634902666
594,0.103327771170353
595,0.103134820224949
596,0.104029165151752
597,0.104684080149172
598,0.104845151565103
599,0.105262315888488
600,0.10635780279268
601,0.106845497469354
602,0.107444063856084
603,0.107322199163753
604,0.108564627700088
605,0.107870316498778
606,0.108183627473885
607,0.107548609511925
608,0.106239283255447
609,0.106296823051665
610,0.105418495623132
611,0.104996857994177
612,0.103952805212699
613,0.103639215794972
614,0.10235416953625
615,0.103845510143795
616,0.102429529745794
617,0.103286319363233
618,0.103179785218412
619,0.103620109086858
620,0.103433050141731
621,0.103995445268595
622,0.102124470942762
623,0.102003785343049
624,0.101408699745627
625,0.100813614148205
626,0.100218528550783
627,0.100086243259548
628,0.0997900052753521
629,0.0994723676503897
630,0.100191277710669
631,0.0987607925103112
632,0.0996239906072306
633,0.100084848477222
634,0.10032721748896
635,0.100634610999645
636,0.0999503347002727
637,0.10088964893548
638,0.100288192555176
639,0.100581829136448
640,0.100135898096662
641,0.0996661643344244
642,0.099122216428638
643,0.0982667025074594
644,0.0974111885862809
645,0.0965556746651023
646,0.096826924114829
647,0.0964284004534312
648,0.0943813297805132
649,0.0961257776247485
650,0.0951221193922871
651,0.096245880141897
652,0.0952274454027474
653,0.0937996675865821
654,0.0921017911009735
655,0.0931408364247173
656,0.0917403862434195
657,0.092958527426138
658,0.0940357710885728
659,0.0967225667034899
660,0.0974777853379173
661,0.0981364882204058
662,0.0985214608895926
663,0.0982295762036453
664,0.0976977643219519
665,0.0980339180188185
666,0.0982469074906203
667,0.0983808808307323
668,0.0984602764425448
669,0.0971278393798186
670,0.097228496892251
671,0.0970808662935396
672,0.0966088518354382
673,0.0967179918694284
674,0.097247211738281
675,0.0971801776772245
676,0.0969776743080848
677,0.0976350458805734
678,0.0966321150605867
679,0.0964060160402402
680,0.0988302732783756
681,0.0972783145473178
682,0.095412326462571
683,0.0939596294322098
684,0.0909329223666651
685,0.0886178585198851
686,0.0869153630735956
687,0.0848021627084347
688,0.0844256220756306
689,0.0846244262700379
690,0.0853673905981185
691,0.0870232259335521
692,0.0872968814126215
693,0.0882636721354633
694,0.089400268182927
695,0.0899942964661273
696,0.0918488014749115
697,0.0928531020110942
698,0.0920277116799196
699,0.0923972707526647
700,0.0943739912923184
701,0.0940813609730483
702,0.0962894468756967
703,0.0970795563800498
704,0.0992297067547026
705,0.100249683273747
706,0.10217529344167
707,0.104347270070263
708,0.104756143415254
709,0.106867808917654
710,0.106415673086308
711,0.107354191785304
712,0.108131206455191
713,0.104194991853503
714,0.102095700509145
715,0.0966467211560088
716,0.0921840167799526
717,0.0885612062216695
718,0.0877795930204706
719,0.0885531222211701
720,0.0904499565220032
721,0.0903494397154959
722,0.093478819465852
723,0.0936987260158089
724,0.0936492366824955
725,0.0943346359669902
726,0.0942795722807258
727,0.0963438901437699
728,0.0979535561465693
729,0.101278786102034
730,0.104549115057741
731,0.108877513646187
732,0.113164423289526
733,0.117705674281716
734,0.121163601057306
735,0.12308719653201
736,0.125485772831367
737,0.127241152938357
738,0.128996533045347
739,0.130751913152338
740,0.133868812450542
741,0.135251476729963
742,0.136825383723845
743,0.138399290717726
744,0.139973197711607
745,0.140977963090397
746,0.14152192110209
747,0.142589008026796
748,0.141116476531916
749,0.142343513747758
750,0.1428307786383
751,0.142583311241452
752,0.144620663172164
753,0.143698666186079
754,0.142475741671945
755,0.134262246516375
756,0.126048751360804
757,0.117835256205233
758,0.103832067099299
759,0.0912828256440715
760,0.081485586142366
761,0.0791164235927024
762,0.081948120936877
763,0.0872677568546772
764,0.0957633055685804
765,0.104085914861087
766,0.114234151745549
767,0.124322222489249
768,0.13026956633518
769,0.134202721029418
770,0.138067046914868
771,0.139454235747136
772,0.141233074424626
773,0.143543127306103
774,0.142656367015158
775,0.142767761687242
776,0.143484756823664
777,0.142078086398809
778,0.144214227124455
779,0.142580433713711
780,0.144475399453136
