"wavelength","measurement"
380,0.0375428410752435
381,0.0362539074431027
382,0.0364157223522766
383,0.0354527312598294
384,0.0353518842386747
385,0.0372141754535651
386,0.0394970600057368
387,0.041633488118647
388,0.0434077294394294
389,0.0451414489986088
390,0.0448822455465072
391,0.0448233740231962
392,0.0465090783258796
393,0.046998158387058
394,0.0478567303811939
395,0.0512866779343145
396,0.0582476639307028
397,0.0653284798706238
398,0.0724092958105447
399,0.0794901117504657
400,0.0854053918039353
401,0.0920369917390137
402,0.0964841639874097
403,0.0989843056581982
404,0.100284214839595
405,0.101315423421411
406,0.104943655822312
407,0.107073978648447
408,0.108737945878448
409,0.111933823562894
410,0.118131037876625
411,0.119813880996788
412,0.124086395146549
413,0.127218387329026
414,0.127960088896572
415,0.130282393859668
416,0.128784038595512
417,0.129310557988916
418,0.131974069083667
419,0.12970733582614
420,0.132519653920371
421,0.132440181587809
422,0.133759172700923
423,0.134319872572933
424,0.135567711331002
425,0.133214007965445
426,0.132323775767116
427,0.129352186912962
428,0.124797348037327
429,0.124296391377751
430,0.124430241130035
431,0.128307111534189
432,0.132829107263992
433,0.137295965303182
434,0.143491594490684
435,0.146598501487652
436,0.148165849734648
437,0.150757812951234
438,0.15334977616782
439,0.155941739384406
440,0.156165177251552
441,0.158993265511977
442,0.162971191309476
443,0.164329706119077
444,0.166704870136657
445,0.169080034154237
446,0.171455198171817
447,0.174033157837684
448,0.174497194379572
449,0.181863049034892
450,0.18010461010963
451,0.178975193855775
452,0.178395477687181
453,0.177815761518587
454,0.177236045349993
455,0.177728290307685
456,0.177923286150145
457,0.178481410244597
458,0.179976309314935
459,0.182761013318467
460,0.183380113555507
461,0.181505283596663
462,0.186793572291669
463,0.181906192556888
464,0.1798646441932
465,0.178986218931741
466,0.177378894676813
467,0.17693877275968
468,0.174961415792165
469,0.174067270513858
470,0.177180611433414
471,0.177613794817806
472,0.178933113382352
473,0.181727824146309
474,0.182393822803899
475,0.186245899573251
476,0.181847343816275
477,0.182334547926916
478,0.182821752037557
479,0.183308956148198
480,0.182708910709501
481,0.179526596652875
482,0.176197691076954
483,0.175363724194308
484,0.1705597277533
485,0.166257998309508
486,0.167863728111415
487,0.168953013719289
488,0.170355132176919
489,0.174697201396446
490,0.176193666132137
491,0.177838061514305
492,0.182416439293345
493,0.180461257565225
494,0.183350428812663
495,0.181312136065383
496,0.181885050407537
497,0.178847679490305
498,0.180173197567593
499,0.17591557235317
500,0.176836658152884
501,0.175281212260747
502,0.178133157907457
503,0.178403796209438
504,0.176899540729441
505,0.182341576819545
506,0.182189040962436
507,0.182627234320078
508,0.183913316998679
509,0.184115104419858
510,0.181132803206373
511,0.183452189105528
512,0.182543780504044
513,0.177431541047327
514,0.176602314251365
515,0.173609537074069
516,0.172051204524607
517,0.171445495702204
518,0.170674905968087
519,0.17380091785983
520,0.176634345642746
521,0.179054398492027
522,0.181474451341309
523,0.18389450419059
524,0.1834033450552
525,0.183418552540342
526,0.184520678293466
527,0.18343368905434
528,0.184354922739543
529,0.18665399588022
530,0.187126881828076
531,0.18772780259301
532,0.18738216912762
533,0.188810038351301
534,0.189786914549045
535,0.187758495473992
536,0.189463605526137
537,0.188372617433749
538,0.186897659243918
539,0.18586634121369
540,0.186316083040364
541,0.185509916161093
542,0.184334651666102
543,0.185199123578736
544,0.186275655606621
545,0.185401149449557
546,0.187263038958193
547,0.187109142254904
548,0.186955245551615
549,0.186801348848325
550,0.185732220506143
551,0.186980208236025
552,0.188866780251884
553,0.187296557252314
554,0.18685065873423
555,0.188394037378283
556,0.185754958771858
557,0.185601147986451
558,0.184415356218979
559,0.182816233390665
560,0.184884738857758
561,0.181866226819425
562,0.185031945956259
563,0.182195918947818
564,0.183584153821335
565,0.181017307741927
566,0.179867789943822
567,0.17749974413486
568,0.178835821045628
569,0.176791291852657
570,0.176898324800862
571,0.177559568131169
572,0.177848389733994
573,0.177472883687751
574,0.178887060657834
575,0.176918901428546
576,0.177510606061583
577,0.178102310694619
578,0.178694015327655
579,0.179285719960692
580,0.179877424593728
581,0.181887180593997
582,0.181056839390626
583,0.182327176312512
584,0.17927828429853
585,0.178260872713625
586,0.17322471617787
587,0.170383705261424
588,0.168238925506156
589,0.166094145750889
590,0.163949365995621
591,0.164584317292809
592,0.166428725483448
593,0.166765291647806
594,0.170248555596826
595,0.169356046158462
596,0.171340802160736
597,0.172302969380763
598,0.172825702466265
599,0.173614624749852
600,0.175450476948482
601,0.176278793592333
602,0.17752318104287
603,0.176833779274353
604,0.178838452502192
605,0.178063249544503
606,0.178843538341897
607,0.177919520644632
608,0.176151106001309
609,0.17595371082534
610,0.174528457645035
611,0.173900985023251
612,0.172437441856939
613,0.171592412560109
614,0.16979031389201
615,0.172195245348932
616,0.169561228918965
617,0.171078456830594
618,0.171427715683183
619,0.171940098645029
620,0.171618032878422
621,0.172720929829628
622,0.169250986728085
623,0.169642448005986
624,0.168625843492904
625,0.167609238979823
626,0.166592634466742
627,0.166704164700002
628,0.166131743038138
629,0.165503859737782
630,0.166981291950427
631,0.164970976392712
632,0.165635132384483
633,0.167036993851064
634,0.167678692274995
635,0.167996789361927
636,0.166517993904569
637,0.168318746077057
638,0.16748589458744
639,0.167700566402146
640,0.167086344842474
641,0.166617401035711
642,0.165544632892301
643,0.164249510215802
644,0.162954387539302
645,0.161659264862803
646,0.161827298506912
647,0.161155922918199
648,0.15825156244712
649,0.160996520124895
650,0.159625180180947
651,0.161610437387343
652,0.159704396246295
653,0.157626130069466
654,0.154430754732078
655,0.156435130162042
656,0.154275563942287
657,0.156567082650154
658,0.1582826719907
659,0.162691467138584
660,0.164608698104279
661,0.165508753494302
662,0.166181086611762
663,0.165895384909244
664,0.16476740010609
665,0.165464673845834
666,0.166215858166843
667,0.166660293043486
668,0.166836428446398
669,0.1638922467831
670,0.164199529011319
671,0.164858794153026
672,0.163699005146393
673,0.164368864474902
674,0.164732272916604
675,0.164731755866462
676,0.164696496751611
677,0.165789431971893
678,0.163946676656323
679,0.163799607979782
680,0.167684919664884
681,0.1648939065162
682,0.162140776781799
683,0.159536406831316
684,0.154640126182133
685,0.151132318454824
686,0.147983840578296
687,0.144764535162129
688,0.143529174896334
689,0.143555439573475
690,0.14535914548569
691,0.147740888681522
692,0.148077052195403
693,0.149455972016515
694,0.151960223047967
695,0.152223973279189
696,0.1552207851268
697,0.157600085319758
698,0.156046957532978
699,0.156624698627181
700,0.160028649970281
701,0.159557060735453
702,0.162971023088105
703,0.16456569682691
704,0.168201415924031
705,0.169322494120929
706,0.173409722698946
707,0.176520558214211
708,0.177608122358836
709,0.180834689879767
710,0.180523727881394
711,0.181259231043316
712,0.183055832994551
713,0.176354356022606
714,0.172946952199469
715,0.163911351425454
716,0.155289315115407
717,0.149832805821967
718,0.148018072232464
719,0.149846226697538
720,0.152880272567122
721,0.152703350348558
722,0.158193744603188
723,0.15792231674074
724,0.157977196744077
725,0.159066777527343
726,0.159079618447347
727,0.162094855925518
728,0.16539536176833
729,0.170419007301874
730,0.175996422019076
731,0.183044225365841
732,0.190197497744348
733,0.19769975044736
734,0.203817497634377
735,0.206705581594777
736,0.211147674679983
737,0.213842381826336
738,0.216537088972688
739,0.219231796119041
740,0.224693946887619
741,0.22688366843022
742,0.229863834715837
743,0.232844001001454
744,0.235824167287071
745,0.236900082267262
746,0.237338341288828
747,0.2399241302233
748,0.238199509638665
749,0.239137089122998
750,0.240581677068719
751,0.239455783386764
752,0.243511788131582
753,0.242216401217912
754,0.24070526259129
755,0.22691934998503
756,0.213133437378769
757,0.199347524772508
758,0.176276287440506
759,0.155377393308351
760,0.138811184449762
761,0.13456292577641
762,0.139371862431136
763,0.148075606841358
764,0.162123085884998
765,0.176270938435639
766,0.193720868146337
767,0.210803927807195
768,0.220871222219076
769,0.227499134818549
770,0.234233428771645
771,0.237165110040948
772,0.240425045801584
773,0.243954391367468
774,0.242098686859997
775,0.243259445558879
776,0.243511860505218
777,0.241094960254387
778,0.244860705877951
779,0.242023277990297
780,0.244758767688388
