"wavelength","measurement"
380,0.000422114380750679
381,0.000423921839387254
382,0.000449800876744022
383,0.000462130687261405
384,0.000435044401616246
385,0.000458168780684498
386,0.000490950291343719
387,0.000557660007876112
388,0.000562079155629517
389,0.000577796832307419
390,0.00059935291541478
391,0.000583571623888146
392,0.000603900380600525
393,0.000635023615083704
394,0.000683316707423522
395,0.000731257379930778
396,0.000784261708665885
397,0.000879573772715877
398,0.000974885836765869
399,0.00107019790081586
400,0.00113862795067158
401,0.00123451169054221
402,0.00127618526559635
403,0.00131086560411832
404,0.00134858135958169
405,0.0013782970536407
406,0.00141268559988253
407,0.00143315972831057
408,0.00147626052323402
409,0.00152433837909848
410,0.00160183283311129
411,0.00160388934184773
412,0.00171567194278391
413,0.00178117644472294
414,0.00176931911929086
415,0.00182854045345483
416,0.00182764492173616
417,0.00182599231804389
418,0.00191111293856234
419,0.0018531302299799
420,0.00192643042743879
421,0.00192597018302322
422,0.0019578007515247
423,0.00196756423243996
424,0.00201480654562346
425,0.00198013800472301
426,0.00194976997520152
427,0.00192978292137769
428,0.00187152461494619
429,0.00190264446143196
430,0.00190471099075211
431,0.00201210268643209
432,0.00211461070037511
433,0.00221039682029303
434,0.00234846523356874
435,0.00237087983687337
436,0.00238786416443023
437,0.00242838520893318
438,0.00246890625343612
439,0.00250942729793907
440,0.00250744246286597
441,0.00257987775874197
442,0.00265745192091742
443,0.00268428046322489
444,0.00276072233685059
445,0.00283716421047628
446,0.00291360608410198
447,0.00296314360059526
448,0.00300560010981136
449,0.00312038756327792
450,0.00310236593315727
451,0.00306987481710153
452,0.00306260078431988
453,0.00305532675153824
454,0.00304805271875659
455,0.00302879110121485
456,0.00298057650313032
457,0.00306687240445658
458,0.00305568642098109
459,0.00310279990538463
460,0.00310372391323098
461,0.00306977482289414
462,0.00314811450441199
463,0.00306939393621282
464,0.00304004487686462
465,0.00300705444234797
466,0.00296726753403173
467,0.00296835137280954
468,0.00293360122411049
469,0.0029199944040969
470,0.00297358502280435
471,0.00297009457038667
472,0.00297443314190794
473,0.00301861173842527
474,0.00302191117463524
475,0.00307152552117225
476,0.00299482175817794
477,0.00300646893010998
478,0.00301811610204202
479,0.00302976327397407
480,0.0030246361251777
481,0.00295288225271149
482,0.00292890419345222
483,0.00293365494045544
484,0.00289160466877296
485,0.00288397983063058
486,0.00291348202243034
487,0.0029486392525843
488,0.00296538254744524
489,0.00304474779830775
490,0.0030663633011682
491,0.00308070321110387
492,0.00312416867067896
493,0.00309439662653907
494,0.00314166447775173
495,0.0030699474536831
496,0.00308607836204493
497,0.00304265740886064
498,0.00305296257817519
499,0.00298826028135114
500,0.00298431609797863
501,0.00294979296446811
502,0.00299731589439718
503,0.00300095485087198
504,0.00296446249489217
505,0.00306361293587925
506,0.00306411640029667
507,0.00308437645083738
508,0.00311190037584999
509,0.00312472156612956
510,0.00308842144848681
511,0.00313426262471318
512,0.00313268176324173
513,0.00304378144740797
514,0.00303826861243055
515,0.00301136943073834
516,0.00299941434061186
517,0.00299668032995413
518,0.00300355629842724
519,0.00304546517989155
520,0.00312575884293926
521,0.00316682195385975
522,0.00320788506478023
523,0.00324894817570072
524,0.00322880592182002
525,0.00324992843846602
526,0.00325054761061396
527,0.0032293054415399
528,0.0032862068053739
529,0.00332778034887128
530,0.00333046239834954
531,0.00334817401253865
532,0.00332835325727702
533,0.00337527103786366
534,0.00339250984044591
535,0.0033861420843524
536,0.00343406640468457
537,0.00346041869406894
538,0.00350607651070712
539,0.00357275393999001
540,0.00369107027618107
541,0.00380826441828551
542,0.0039090028530987
543,0.00396964584760214
544,0.00400021928748445
545,0.00393374853180528
546,0.00387783254707251
547,0.00376682813477923
548,0.00365582372248595
549,0.00354481931019267
550,0.00346515852298362
551,0.00344979038480055
552,0.00344371540510607
553,0.00338059247607029
554,0.00333231154796213
555,0.00335088340334612
556,0.00330292719307009
557,0.00328292694595407
558,0.00323726756464908
559,0.00323458049536403
560,0.00324103421144491
561,0.00318446467941743
562,0.00322317859181092
563,0.0031614084398463
564,0.00318114111994433
565,0.00310402434153894
566,0.00308412082173257
567,0.00302390018320145
568,0.0030536745222409
569,0.00300252247127674
570,0.00297556337313191
571,0.00298317545149509
572,0.00297379322046604
573,0.00298158174394715
574,0.00300896789204823
575,0.00297397764055429
576,0.0029978676352702
577,0.0030217576299861
578,0.003045647624702
579,0.0030695376194179
580,0.0030934276141338
581,0.00313918661333298
582,0.00311312318971632
583,0.00314822271517561
584,0.00307656686598945
585,0.00304730192886965
586,0.00294943229106915
587,0.00285876408006744
588,0.00279887522841823
589,0.00273898637676902
590,0.0026790975251198
591,0.00267997320163822
592,0.00269405247663821
593,0.00270103420644925
594,0.00274030702965411
595,0.00272835068833478
596,0.00277000715758398
597,0.00280166576453958
598,0.00280648165980055
599,0.00283212142247283
600,0.00286651152032348
601,0.00287866554753773
602,0.00289951007507378
603,0.00289441169429955
604,0.00290911375265281
605,0.00291096564978848
606,0.00295045221001396
607,0.00303665289557251
608,0.00309787624098659
609,0.00319915188857842
610,0.00324136953626516
611,0.00325834093351496
612,0.00319573931861053
613,0.00310203118226444
614,0.00297462540571246
615,0.00290802062694571
616,0.0028386379249001
617,0.00283175130904735
618,0.00280747482302302
619,0.00280377311821861
620,0.00276252983749417
621,0.00277504684352342
622,0.00271427920813759
623,0.00267369402592742
624,0.00263297774937231
625,0.0025922614728172
626,0.00255154519626208
627,0.00253557712311093
628,0.00250514922893295
629,0.00251445793070385
630,0.00252492123678612
631,0.0024838009688682
632,0.00248278055793097
633,0.00247911761891504
634,0.00246401143807434
635,0.00245682486560041
636,0.00244716093594452
637,0.0024539987853946
638,0.00243116247040368
639,0.00243786016218983
640,0.00241490716372213
641,0.00240804058810315
642,0.00237084177127592
643,0.0023336066748105
644,0.00229637157834507
645,0.00225913648187965
646,0.00223298902968922
647,0.00222874875570217
648,0.00217871692416217
649,0.00222096887246973
650,0.00218683733842321
651,0.00219934528610632
652,0.002173167089435
653,0.00212737440715229
654,0.00209137420183016
655,0.00211602095547021
656,0.00208820065317138
657,0.00210205895298005
658,0.00214521382064734
659,0.00220780337664849
660,0.00223341929326152
661,0.00223423808619002
662,0.00224149183208076
663,0.00221811465104904
664,0.0022010062897227
665,0.0022038287618377
666,0.00220254971887591
667,0.00219927428076299
668,0.00218876625384737
669,0.00215378178681976
670,0.00215868724029479
671,0.00213616637855853
672,0.00213916627174382
673,0.00213897015628663
674,0.00213373874513878
675,0.00212864029448685
676,0.00211268486041814
677,0.00212412932721451
678,0.0020914916622367
679,0.00207980062465569
680,0.0021361875290396
681,0.00210113244333782
682,0.00200914088579878
683,0.00197452077858153
684,0.00188469959788593
685,0.00181741307295289
686,0.00175643366221331
687,0.00172603318934095
688,0.00170035184656486
689,0.00168150464517462
690,0.0017202744888174
691,0.00174719606525021
692,0.00177222059615134
693,0.0017844763764881
694,0.0018162764996569
695,0.00183457789323002
696,0.00187940857553691
697,0.00188356398786708
698,0.00186024233217437
699,0.00189179819942929
700,0.00194395821458287
701,0.0019535184376784
702,0.0019893059200846
703,0.00206787812133239
704,0.00213633205579037
705,0.00212829024100528
706,0.00221353471468686
707,0.00227452193713159
708,0.00227237228758839
709,0.00230711689882791
710,0.00229358039078794
711,0.00231145841186564
712,0.00228284852107888
713,0.00216211975694291
714,0.00206283224206851
715,0.00191702616958584
716,0.0017870886926661
717,0.00170607422086588
718,0.00167836751511552
719,0.00170828668632642
720,0.00171475363774822
721,0.00171343809076741
722,0.00177852795085847
723,0.00175289208680281
724,0.00176200152670456
725,0.00175919208220355
726,0.00176193827367948
727,0.00179775261864645
728,0.00186652702925989
729,0.00192177072035705
730,0.00203580354116467
731,0.00216313355311235
732,0.00225406061519233
733,0.00238268117321982
734,0.00244466534110251
735,0.00251085301229918
736,0.00259005963769559
737,0.00263747141469463
738,0.00268488319169367
739,0.0027322949686927
740,0.00282677576285388
741,0.00286010811609118
742,0.00289785385502634
743,0.0029355995939615
744,0.00297334533289666
745,0.0029884169178573
746,0.00297325217266182
747,0.00299064154534118
748,0.00296673365411251
749,0.00297746351449343
750,0.00297539811051748
751,0.00295350450994245
752,0.00297463493365183
753,0.00291275026693458
754,0.00287620684730348
755,0.0026480129594943
756,0.00241981907168512
757,0.00219162518387595
758,0.001866861005806
759,0.00152113478459419
760,0.00137570333876828
761,0.00131394293263201
762,0.00136407560549321
763,0.00148980108867075
764,0.00169772949156306
765,0.00190489894416526
766,0.00214254997839181
767,0.0023544192895281
768,0.00247462766925962
769,0.0025872922418504
770,0.00264027404148398
771,0.00268445712166481
772,0.00274040656867155
773,0.00275457573217143
774,0.00273370706098135
775,0.00272097965457753
776,0.00274287865926806
777,0.00269228339532315
778,0.0027352006566972
779,0.00267544844198542
780,0.00269333555948408
