"wavelength","measurement"
380,0.0041823186468584
381,0.00406976207007123
382,0.0039689527104676
383,0.00384504495029669
384,0.00390235338167052
385,0.00404996685436509
386,0.00425353248468637
387,0.00441316932905983
388,0.00458939384755942
389,0.00469560248256324
390,0.00462389979860057
391,0.00458374891147929
392,0.00456617943388987
393,0.00459016401427258
394,0.00464311788241411
395,0.00486166635375659
396,0.00535187243144259
397,0.00586748900148941
398,0.00638310557153622
399,0.00689872214158304
400,0.00722007345479998
401,0.00756180822790038
402,0.0078006624602824
403,0.00781243315988581
404,0.00778639104605742
405,0.00773452932716335
406,0.00784725640806996
407,0.0078658018758546
408,0.00788365382000462
409,0.0079884295124002
410,0.00830912472438276
411,0.00836708824086788
412,0.00854798007298452
413,0.00873497379973279
414,0.00870721637566717
415,0.00880747853309684
416,0.00871388858078295
417,0.00864910147369608
418,0.00881997668483483
419,0.00862386987971108
420,0.0088521310911113
421,0.00883896661132928
422,0.00889901042618193
423,0.00896182589899795
424,0.00899899400630704
425,0.00885265991616864
426,0.00871371401731474
427,0.00853923101159699
428,0.00823360747640954
429,0.00824918101614023
430,0.00826270609079638
431,0.00856760019252519
432,0.00887633582003494
433,0.00915828604174182
434,0.00958436892316093
435,0.00975464682987761
436,0.0098460649094015
437,0.00999026408470743
438,0.0101344632600134
439,0.0102786624353193
440,0.0103089975448516
441,0.0104913819899172
442,0.010720292410196
443,0.0107729762307547
444,0.0109378231157328
445,0.0111026700007109
446,0.0112675168856891
447,0.0114175964010533
448,0.0114623945402881
449,0.0119015290879999
450,0.0118060371256831
451,0.0116893014691271
452,0.0116625150109232
453,0.0116357285527193
454,0.0116089420945154
455,0.0116164083745131
456,0.0115822521894363
457,0.0117732146156802
458,0.0117692135025008
459,0.012002687246006
460,0.0119713961920643
461,0.0118586985050478
462,0.0121768084643595
463,0.011858604116717
464,0.0116903303002298
465,0.0116219718505283
466,0.011455437759309
467,0.0114340659330067
468,0.0113058801114691
469,0.0112335376532051
470,0.0114710410565931
471,0.0114346102052835
472,0.011517740668461
473,0.0116325771368595
474,0.0116365602399883
475,0.0118274540785933
476,0.011543076034444
477,0.0115534677193168
478,0.0115638594041896
479,0.0115742510890624
480,0.0115715023359826
481,0.011263470036489
482,0.0110965183749236
483,0.0110344380166754
484,0.0108153983624595
485,0.0105338262691213
486,0.0106265190273849
487,0.0107301961599963
488,0.0108294096149041
489,0.0111309363244669
490,0.0112552300421628
491,0.0113329658240247
492,0.011604134071771
493,0.011499496009917
494,0.0116931165636391
495,0.011564605928418
496,0.0116178773638699
497,0.0114197332916665
498,0.0115283535764224
499,0.0112827448908107
500,0.0113710523282864
501,0.0112561951037277
502,0.0114854130941654
503,0.011547787161463
504,0.0114527560917843
505,0.0118896229863455
506,0.0119102808304404
507,0.0120219350707814
508,0.0121730420558431
509,0.0122650337761931
510,0.0121410577376921
511,0.0124372939335135
512,0.0124208542620144
513,0.0121684265606111
514,0.0121775443211876
515,0.0120705139352803
516,0.0120851113572487
517,0.0121712843114505
518,0.0122469113275491
519,0.0125702937142698
520,0.0129381625838496
521,0.01318868487862
522,0.0134392071733904
523,0.0136897294681608
524,0.0137234519030317
525,0.0139006625721963
526,0.014019530375042
527,0.0140309752336343
528,0.0142121952201983
529,0.0145086273355569
530,0.0145911826977279
531,0.0146724082916949
532,0.014706639235802
533,0.014898723841006
534,0.0150142010046953
535,0.0149075923360087
536,0.0150907293766158
537,0.0150340970789263
538,0.0149432884581792
539,0.0148585266053584
540,0.0149551559554557
541,0.0148517859211597
542,0.0147973695045216
543,0.0149072112135484
544,0.0150124772389251
545,0.0149352442149124
546,0.0151039872575944
547,0.0151420169038055
548,0.0151800465500166
549,0.0152180761962278
550,0.0151348376209799
551,0.0152444373741431
552,0.0154123215789055
553,0.0152939755771574
554,0.0152225095439529
555,0.0153866382727532
556,0.0151834143214985
557,0.0151492164334809
558,0.0150476205927624
559,0.0149023778922365
560,0.0150450494270356
561,0.014773511175519
562,0.0150041418057511
563,0.0147126014931564
564,0.0147351553567766
565,0.0144576832841871
566,0.0142908203452919
567,0.0140441834654497
568,0.0140464668367004
569,0.0137831911131552
570,0.0137106311519373
571,0.0136764700917175
572,0.0135988682320844
573,0.0135440875474841
574,0.0135897456798966
575,0.0133936606066953
576,0.0134220782761259
577,0.0134504959455564
578,0.0134789136149869
579,0.0135073312844174
580,0.0135357489538479
581,0.0136978970961434
582,0.0136185308047306
583,0.0136284024050628
584,0.0133502038545685
585,0.0131682318133084
586,0.0126843421366253
587,0.0123320045241365
588,0.0120835646029727
589,0.0118351246818088
590,0.011586684760645
591,0.0116186297141551
592,0.0117551824636912
593,0.0118256678525367
594,0.0120627611944141
595,0.0120909563108001
596,0.0122696191668292
597,0.0124183670995696
598,0.0125355952672565
599,0.012626920541601
600,0.0128157667025145
601,0.0129428741435424
602,0.0130422964645598
603,0.0130225350777506
604,0.013137304267964
605,0.0130439833816658
606,0.0130610910553807
607,0.0130037886075265
608,0.0128062501048374
609,0.0127983861271092
610,0.0126760181917768
611,0.0125694783794176
612,0.0124446144096666
613,0.0123849669602603
614,0.0122132515668471
615,0.0122938403364273
616,0.0121729761603627
617,0.0122750635864165
618,0.0122167476283712
619,0.0122685394777429
620,0.0121826320746275
621,0.0122311566402382
622,0.0119822398231843
623,0.0119432164226767
624,0.0118125889591144
625,0.0116819614955521
626,0.0115513340319898
627,0.0115110876943202
628,0.0114183968034487
629,0.0113875044296818
630,0.0115447123901858
631,0.01141442110642
632,0.0114860841791524
633,0.011595845683552
634,0.0116438652475305
635,0.0116758131943247
636,0.0116286022116463
637,0.0117298994189005
638,0.0116448550849137
639,0.0116905525573602
640,0.011615957177424
641,0.0115595154329012
642,0.0114231397939542
643,0.0112423908685802
644,0.0110616419432062
645,0.0108808930178323
646,0.0107819882097995
647,0.0107169210919658
648,0.0104749451868894
649,0.010663362545777
650,0.0105650542494524
651,0.0106737683206738
652,0.0105782829202232
653,0.0104177914387714
654,0.010246885158845
655,0.0103595135782157
656,0.010329157768284
657,0.0104630214557074
658,0.0105949369318281
659,0.0109215745128511
660,0.0109999949938485
661,0.011059672423115
662,0.011126144360008
663,0.0110573144202076
664,0.010993144611798
665,0.0110176016317656
666,0.0110311089742715
667,0.0110476344548463
668,0.0110582443923514
669,0.0108448331991083
670,0.0109042710985962
671,0.0108651518777767
672,0.0108323169223695
673,0.0108840329455796
674,0.0109221233519425
675,0.010907681917711
676,0.0109129857756488
677,0.0109949108276935
678,0.0109010647367089
679,0.0108996340420383
680,0.0111890976889525
681,0.010985365036247
682,0.0108117678651367
683,0.0105499733195833
684,0.0101669820319393
685,0.0098499255006963
686,0.00961412760730017
687,0.00941723908619825
688,0.00938772886546198
689,0.00953295890271602
690,0.00979026844484113
691,0.0101354580806139
692,0.0103351569278898
693,0.0106175979854443
694,0.0110437071940934
695,0.011313406243755
696,0.0117602360280372
697,0.0120837743087391
698,0.0121470323668364
699,0.0124369334071534
700,0.0129473059997407
701,0.013189146141775
702,0.0137800518004769
703,0.0141813276061492
704,0.0148070325825349
705,0.0152069845042518
706,0.0158114229320045
707,0.0163752267757077
708,0.0167634271118612
709,0.017327217046246
710,0.0174890294744862
711,0.0178302234330713
712,0.018065273104585
713,0.0174004921190392
714,0.0169808305389556
715,0.0159639718812402
716,0.0150428037348642
717,0.0145209391753445
718,0.0145362966186813
719,0.014869470909878
720,0.015369580980557
721,0.0155789631454431
722,0.0162791106341551
723,0.0163875494820959
724,0.0165215449077208
725,0.0167744903854282
726,0.0170327457183482
727,0.0176320799097577
728,0.0183664402842826
729,0.0193733347989813
730,0.020508323141808
731,0.0219389848560246
732,0.0233333761715549
733,0.0247052219492179
734,0.0258458623395712
735,0.026594121549768
736,0.0275955723239057
737,0.0284166974752995
738,0.0292378226266932
739,0.030058947778087
740,0.0312541709786486
741,0.031965998938716
742,0.0326279266481344
743,0.0332898543575527
744,0.0339517820669711
745,0.0343803793666216
746,0.034695203869356
747,0.0351166512895508
748,0.0349279980141838
749,0.0353298181802299
750,0.0355167889581877
751,0.0355812225920846
752,0.0361241788381986
753,0.0359854858798286
754,0.0356676903876216
755,0.0330734794414682
756,0.0304792684953147
757,0.0278850575491613
758,0.0236253385356442
759,0.0195919224762024
760,0.0167080329002946
761,0.0158906084908977
762,0.0165464171065407
763,0.0183753743465541
764,0.021123597926258
765,0.0239118987576094
766,0.0272556818822967
767,0.0305383378297251
768,0.0324815680095707
769,0.0339169372308283
770,0.0352407076086322
771,0.035802500743954
772,0.0364370088326139
773,0.0370192939270971
774,0.0369119520037245
775,0.0370809596499934
776,0.0372101026945161
777,0.0368992297957007
778,0.0373456365070332
779,0.0369362892994673
780,0.0374857841043029
