"wavelength","measurement"
380,0.0042887574640932
381,0.00412792135951414
382,0.00406923880693445
383,0.00400255431352274
384,0.00404666649528038
385,0.00428085060883793
386,0.00447090877926898
387,0.0047217112066108
388,0.00490466961981353
389,0.00502033329797273
390,0.00501280518206466
391,0.0050160047061527
392,0.00503769307216715
393,0.00508696352305045
394,0.00523661811288962
395,0.00553602707778044
396,0.00616851889143787
397,0.00687768566869198
398,0.0075868524459461
399,0.00829601922320022
400,0.00872907408085664
401,0.00923312518249754
402,0.00953218802057478
403,0.00967911279263513
404,0.009691204102954
405,0.00967308072356847
406,0.00986824287477821
407,0.0099643789948255
408,0.0100535097903419
409,0.0102123817206221
410,0.0106867575270953
411,0.0106769566028137
412,0.011007403298923
413,0.0111928458965086
414,0.0111649873018129
415,0.0112800149581756
416,0.011126571813282
417,0.011060680882079
418,0.011212711596883
419,0.0109401788156988
420,0.0112114913652476
421,0.0112014267271326
422,0.0112612367343825
423,0.0113261660295768
424,0.0113529304851864
425,0.0111319852362484
426,0.0110198879897218
427,0.0107331458338646
428,0.0103422353163466
429,0.0103700401678165
430,0.0104009985482101
431,0.0107354725102472
432,0.0111786121873002
433,0.0115267934339875
434,0.012048750408319
435,0.0122638677527236
436,0.0124214489888434
437,0.0125982720626957
438,0.0127750951365481
439,0.0129519182104005
440,0.0130272312189161
441,0.0132323523495387
442,0.0134888436214975
443,0.0136566285870474
444,0.0138723735871122
445,0.0140881185871769
446,0.0143038635872417
447,0.0145251673490809
448,0.0145961004802435
449,0.0151257895767665
450,0.0150253882097326
451,0.014916850875124
452,0.0148752692137743
453,0.0148336875524247
454,0.014792105891075
455,0.0147929177272226
456,0.0148302318354134
457,0.0150087595245321
458,0.0150704490912453
459,0.0153148938937259
460,0.0153143974709958
461,0.0151501373770433
462,0.0155719582734974
463,0.015132229482004
464,0.0149339776976745
465,0.0148496733445684
466,0.0146501442872686
467,0.014609200266461
468,0.0144754981035333
469,0.0143192187492751
470,0.0146513727993823
471,0.0146263815243812
472,0.0147078008738747
473,0.0148891507716217
474,0.0149283968733474
475,0.0151044909011788
476,0.0148006320919825
477,0.0148163325221393
478,0.0148320329522961
479,0.0148477333824529
480,0.0148372262986394
481,0.014449695511689
482,0.014238934396839
483,0.0141769138143992
484,0.0138105409685239
485,0.0135254815822349
486,0.013647834916613
487,0.0137946814757834
488,0.0139057682981408
489,0.0143211969982705
490,0.0144427301368624
491,0.0145746306343051
492,0.0149112649932203
493,0.0147887702318746
494,0.0150231091816763
495,0.014863750981577
496,0.0149398626017932
497,0.0147066150022592
498,0.0148129509157751
499,0.0144707514880777
500,0.0145669763499391
501,0.0144222534979137
502,0.0147052550548407
503,0.0147944995750398
504,0.0146454743375818
505,0.0151954385286887
506,0.0151673891371088
507,0.0153328191776106
508,0.0154817671123062
509,0.015555785670321
510,0.015382008252955
511,0.0157158920635851
512,0.0156601425976333
513,0.0153172683436891
514,0.0152875099853185
515,0.015117039798958
516,0.0151178397791877
517,0.0151639241856668
518,0.0152106296359203
519,0.0155521944782499
520,0.0160041406186366
521,0.0162774551334549
522,0.0165507696482732
523,0.0168240841630915
524,0.0168137698736029
525,0.0169708269475356
526,0.0170900308515206
527,0.0170730584919032
528,0.0172937901136081
529,0.0175823961601532
530,0.0176565841851866
531,0.0177651333075321
532,0.0177769072595134
533,0.0179978139614871
534,0.0181071601241837
535,0.0180006954140044
536,0.018204042670033
537,0.0181230353339702
538,0.0180015205778538
539,0.0179147890475838
540,0.0180119596302516
541,0.0178985036632659
542,0.0178075564355376
543,0.0179463501020456
544,0.0180855744935162
545,0.0180261809412829
546,0.0181999639034554
547,0.0182348246068044
548,0.0182696853101535
549,0.0183045460135026
550,0.0182467047016764
551,0.0184028119077214
552,0.0185599912387228
553,0.0184157559964487
554,0.0183733182256738
555,0.0185647233488225
556,0.0183400943156227
557,0.0183090737706132
558,0.018175299689126
559,0.0180445797028062
560,0.0182550284083308
561,0.017929925638988
562,0.0182013200417792
563,0.0178833360274946
564,0.0179425557371233
565,0.0176362387908109
566,0.0174626267190614
567,0.0172131894762271
568,0.017223389731603
569,0.0169408532916859
570,0.016883303573823
571,0.0168626233315751
572,0.0168124906749335
573,0.0167670907091701
574,0.0168439320158531
575,0.0166054360136533
576,0.0166590919390575
577,0.0167127478644618
578,0.0167664037898661
579,0.0168200597152704
580,0.0168737156406747
581,0.0171078343076312
582,0.0169919754021435
583,0.0170765690264047
584,0.0167350312464423
585,0.0165427457076401
586,0.0159297127177542
587,0.0154806879360564
588,0.015203060362084
589,0.0149254327881116
590,0.0146478052141392
591,0.0147096382343002
592,0.0148580146080289
593,0.0149377601238068
594,0.0152445623298714
595,0.0152941471783938
596,0.0154777203510459
597,0.0156771629275781
598,0.0158024924026096
599,0.0159347338004361
600,0.0161465526628444
601,0.0163117401943737
602,0.0164511356769874
603,0.0164099972392986
604,0.0165451752490549
605,0.0164718077706736
606,0.0164853653406002
607,0.0164025912357422
608,0.0161631795628656
609,0.016156814551479
610,0.016017715431533
611,0.0159176935279919
612,0.0157814480738865
613,0.0156650704188797
614,0.0154804159735929
615,0.0156135211388821
616,0.0154557535007569
617,0.015583043769398
618,0.0155405450477883
619,0.015572522874896
620,0.015508624649518
621,0.0155615825101486
622,0.0152536109834946
623,0.0152056002702205
624,0.0150372747336711
625,0.0148689491971218
626,0.0147006236605724
627,0.0146535423432124
628,0.0145565491114065
629,0.0145291762305856
630,0.0146952329141031
631,0.0145086086855982
632,0.0146192813742253
633,0.0147846153375791
634,0.014829220403795
635,0.0149185756274957
636,0.0148165840481446
637,0.0149631334451204
638,0.0148779705305367
639,0.0149333936550212
640,0.0148435341811924
641,0.014793831904509
642,0.0146440989449764
643,0.0144314825512095
644,0.0142188661574427
645,0.0140062497636758
646,0.0139318218595209
647,0.0138397416085973
648,0.0135497446024861
649,0.013812170242236
650,0.0136977778789593
651,0.0138478705184973
652,0.0137260294178652
653,0.0135037702539005
654,0.0132673819640483
655,0.0134527489062221
656,0.0133529040414216
657,0.0135403954111
658,0.0137637637640829
659,0.0141470556364163
660,0.0143074393100961
661,0.0144017354791998
662,0.0144835603138817
663,0.0143996638363812
664,0.0142949890617581
665,0.0143705560162406
666,0.0143864570234204
667,0.0144166233452128
668,0.0144411599711805
669,0.0141882475124479
670,0.0142463700058728
671,0.0141821195771734
672,0.0141761370841371
673,0.0142168453271418
674,0.0142775290121465
675,0.0142712804995637
676,0.0142560456825266
677,0.0143454860034289
678,0.0142160230513002
679,0.0141677929253216
680,0.0145255346137576
681,0.0143128964948884
682,0.0140033047772394
683,0.0137043458347365
684,0.0131560961863531
685,0.01269594638427
686,0.0123232689802794
687,0.0120625341405146
688,0.011978800365823
689,0.0121125531209404
690,0.012365776769752
691,0.0127116987480214
692,0.0128798246198835
693,0.0131370856349566
694,0.0135689270109134
695,0.0137675744811642
696,0.014213953118768
697,0.0145334298208865
698,0.0145041955596495
699,0.0147667056851356
700,0.0152544346090591
701,0.0154071124119218
702,0.0160061708479997
703,0.0163752300499601
704,0.0170102353248779
705,0.0173859960064129
706,0.0179447726503457
707,0.0184950102335026
708,0.0188809760755786
709,0.0194391393384474
710,0.0195317411278656
711,0.0198508730722969
712,0.0200433578487903
713,0.0192670296519179
714,0.0187343858853246
715,0.0175809216406274
716,0.0165497736702715
717,0.0159398552368931
718,0.0159067768149501
719,0.0162498531579571
720,0.0167383407225294
721,0.0169546896104683
722,0.017668957179058
723,0.0177383106465974
724,0.0178507880899279
725,0.0181080210196667
726,0.0182984796194889
727,0.0189283089261062
728,0.0196462273017193
729,0.0206589059727119
730,0.0218542145446656
731,0.0232856682129811
732,0.0246749700242777
733,0.0260846027585143
734,0.027233565390953
735,0.0280042457835644
736,0.0289437111697928
737,0.0297646930511766
738,0.0305856749325605
739,0.0314066568139444
740,0.0325509376634026
741,0.0332603806522245
742,0.0339369372679844
743,0.0346134938837443
744,0.0352900504995043
745,0.0356642173973466
746,0.0359675072050234
747,0.0363373496485212
748,0.0362187237822264
749,0.0365665597574189
750,0.0367805395125939
751,0.0367648497756512
752,0.0373603551515424
753,0.0372255986890011
754,0.0368481597968154
755,0.0341756054095101
756,0.0315030510222049
757,0.0288304966348996
758,0.0243986845517359
759,0.0202897236572652
760,0.0173501912302821
761,0.0165173209385272
762,0.0172409221329398
763,0.019094855545371
764,0.0219280143614083
765,0.0248488622163916
766,0.0282347323377784
767,0.0315991111404399
768,0.0335881167757473
769,0.0350858190442162
770,0.0363543898117053
771,0.0368786893669663
772,0.0375845442136416
773,0.038238107224529
774,0.0380215823012882
775,0.0381289534771891
776,0.0383786266284589
777,0.0379928463627586
778,0.0385095829322978
779,0.0381085516141382
780,0.0385767017701891
