"wavelength","measurement"
380,0.0102623017049631
381,0.00986788234977689
382,0.00967705940474119
383,0.00949606318637006
384,0.00950157934978739
385,0.00999442789636619
386,0.0104052267947082
387,0.0108321669122841
388,0.0112215454573187
389,0.0115498686816611
390,0.0113703218622357
391,0.0112301752603591
392,0.0112644734096186
393,0.0112813767198283
394,0.0114493137446215
395,0.0120425842140572
396,0.0132887545575335
397,0.0146639811332061
398,0.0160392077088788
399,0.0174144342845514
400,0.0181280530943635
401,0.0190603021411771
402,0.019631105336724
403,0.0197273894881405
404,0.0196865216701946
405,0.0194976501525721
406,0.0197926791640702
407,0.0198457496851068
408,0.0198727356207656
409,0.0202049381652036
410,0.0209827173532224
411,0.0209903909449449
412,0.0215133332560907
413,0.0219128809230142
414,0.0218360401156429
415,0.0220585081326112
416,0.0217433855106504
417,0.0216193254722742
418,0.021930411728057
419,0.0214440741188648
420,0.0219174143613943
421,0.0218219252919223
422,0.0219548628171166
423,0.0221447896421005
424,0.0221711783919295
425,0.0217610435569406
426,0.0214915489477484
427,0.0208870631212995
428,0.0202664624613361
429,0.0202256688071131
430,0.0202413796950357
431,0.0209720179806081
432,0.021741911890454
433,0.0224205910485119
434,0.0234349724862094
435,0.0238428060934686
436,0.0240535657815941
437,0.0243932486140003
438,0.0247329314464066
439,0.0250726142788128
440,0.025178470573523
441,0.0256117407105343
442,0.0261305075756917
443,0.0263415096465013
444,0.0267292012965996
445,0.0271168929466978
446,0.0275045845967961
447,0.0279230291798972
448,0.0279834783387467
449,0.0289893339142097
450,0.0288339122627288
451,0.0285998044557081
452,0.0285168087439725
453,0.028433813032237
454,0.0283508173205015
455,0.0283137687304872
456,0.0283508279182359
457,0.0286408772737447
458,0.0288124713799265
459,0.0292482721084352
460,0.0292135449908106
461,0.0289466466256443
462,0.0297394063197287
463,0.0289186472976283
464,0.0285483955646696
465,0.02835098604126
466,0.0279301637013828
467,0.0278987095306061
468,0.0276246355003649
469,0.0273602114399381
470,0.0279498415571846
471,0.0278960444746523
472,0.0280650451386993
473,0.0283357670841707
474,0.0283861345850602
475,0.0287890784093612
476,0.0281370313463732
477,0.0281470581016779
478,0.0281570848569827
479,0.0281671116122874
480,0.0281256232486769
481,0.027450657116997
482,0.0269373154120081
483,0.0268264609037443
484,0.0261903875824042
485,0.02560500123806
486,0.0258436988679294
487,0.0260625464636871
488,0.0263184486041907
489,0.0270180918542042
490,0.0272017402494927
491,0.0274066903676076
492,0.0280381016544393
493,0.027737482920235
494,0.0281639599069927
495,0.0277895845276381
496,0.0279630682827997
497,0.0274891853850658
498,0.0276430626569627
499,0.0270490470086232
500,0.0272074859278241
501,0.0269205180769704
502,0.0273886255731187
503,0.0274865627885205
504,0.0272426673906596
505,0.0281152833547415
506,0.0281204109891505
507,0.0283245592458334
508,0.0285832655884099
509,0.028704362336184
510,0.0283423660292688
511,0.0288808911035464
512,0.0287619887307743
513,0.0281202094236252
514,0.0280876355446314
515,0.0277576662595848
516,0.027718838873124
517,0.0278075138073443
518,0.0278583151655597
519,0.0285105717548661
520,0.0291591375185741
521,0.029599755548841
522,0.0300403735791078
523,0.0304809916093746
524,0.0304231931396488
525,0.0306423662363358
526,0.0308317350172674
527,0.0307519763498227
528,0.0310817854674681
529,0.03155279102211
530,0.0316811036763986
531,0.0318341466776874
532,0.0318470864157757
533,0.0321859444061419
534,0.0323443028692155
535,0.0320888090105291
536,0.0324608905355744
537,0.0322977916726067
538,0.0320808202807017
539,0.0319079736227327
540,0.0321056780626982
541,0.0319235822173966
542,0.0317098297574187
543,0.0319601389094759
544,0.0321695220368708
545,0.0320426553592346
546,0.0323339391618669
547,0.0323981754815536
548,0.0324624118012403
549,0.0325266481209269
550,0.0323309260279067
551,0.0325925180014303
552,0.0329448098368874
553,0.0326035572628147
554,0.032528752919174
555,0.0328589220133501
556,0.0324188532719795
557,0.0323694854626643
558,0.0321409987450728
559,0.0318703218097285
560,0.0322280430091299
561,0.031661755456134
562,0.0321140460408024
563,0.0315880118387247
564,0.0317374264897609
565,0.0311839304537382
566,0.0308816767688791
567,0.0304451760672219
568,0.0304903569297027
569,0.0300419033539505
570,0.0298724998756167
571,0.029881014198353
572,0.029786221072622
573,0.0296999045762132
574,0.0298341465801687
575,0.0294011342508382
576,0.0294880911039046
577,0.0295750479569709
578,0.0296620048100373
579,0.0297489616631037
580,0.02983591851617
581,0.0302263871698048
582,0.0300434467567743
583,0.0301945783832087
584,0.0295764899924976
585,0.0293128892802483
586,0.0282667683095666
587,0.0275525876479001
588,0.0270604175169326
589,0.026568247385965
590,0.0260760772549975
591,0.0261793948083184
592,0.0265043617948895
593,0.0266427254117186
594,0.0271988307384596
595,0.0272758423392923
596,0.027639472158868
597,0.0279515329493775
598,0.0281921097574736
599,0.0283960715406066
600,0.0287996413641179
601,0.0290695397277899
602,0.0293053480014814
603,0.0292312812000744
604,0.0295257030829564
605,0.0294100230696055
606,0.0294282859044442
607,0.0292828169557525
608,0.0289185175285526
609,0.0289523403549407
610,0.0286626443198864
611,0.0285266226006213
612,0.0282768730653074
613,0.0281445902880603
614,0.02781290707147
615,0.0281394650382575
616,0.0277530464448387
617,0.0279677556364064
618,0.0279186475666621
619,0.0279911497555965
620,0.027900519299289
621,0.0280125403856166
622,0.0275045147315244
623,0.0274002210880618
624,0.0271223201450124
625,0.0268444192019631
626,0.0265665182589137
627,0.026454278813051
628,0.0263194554332286
629,0.0262592075262032
630,0.0265753024995098
631,0.0262719387966906
632,0.0265108239794086
633,0.0267658349125784
634,0.0268302714251852
635,0.0270667358717947
636,0.0268636494705381
637,0.0271375543610625
638,0.0269685193882701
639,0.0270849977507973
640,0.0269645031999267
641,0.0268452749942701
642,0.0266134727207282
643,0.0262299345251075
644,0.0258463963294868
645,0.0254628581338661
646,0.0253681149706476
647,0.0252065739301633
648,0.024634257724307
649,0.0250980070199043
650,0.0249049467920544
651,0.0252048356033984
652,0.0249511638535862
653,0.0246231470830453
654,0.0242333121455482
655,0.0245696038307078
656,0.0243272712280887
657,0.0247465217956366
658,0.0250513060816832
659,0.0258261105043782
660,0.0260640676844352
661,0.0262433631787495
662,0.0264168240906104
663,0.0262692871658483
664,0.0261279766584352
665,0.0262564579708999
666,0.0262667216642869
667,0.0263266871735385
668,0.0263668626372399
669,0.0259210562195627
670,0.0260652597701406
671,0.0260111324440576
672,0.0259247819469411
673,0.0260365468836391
674,0.026104533563564
675,0.026110441520024
676,0.0261193605429079
677,0.0263199434844401
678,0.0260768214074784
679,0.026086420125241
680,0.02666917172785
681,0.0262629612628041
682,0.0257235940719289
683,0.0251604849989129
684,0.0242255040171784
685,0.0233918310548155
686,0.0227587066362228
687,0.0221871276433303
688,0.0220438118581737
689,0.0222785207804164
690,0.0227443643502359
691,0.0233498936838115
692,0.0236852054853705
693,0.0241665700857363
694,0.0249192252786068
695,0.0253240335472824
696,0.0261220707434465
697,0.0266499519232096
698,0.0266179682521359
699,0.0270705355560234
700,0.0279387598272057
701,0.028232426285162
702,0.0292927825563228
703,0.0299608037443532
704,0.0309961061257487
705,0.0316668611426877
706,0.0326326141709063
707,0.033626064557327
708,0.0342701802113856
709,0.035208946073181
710,0.0353827547419859
711,0.035844353526935
712,0.0361620716045061
713,0.0347290197632585
714,0.0337678384615649
715,0.0316866893347426
716,0.0298023802225349
717,0.0286285875721452
718,0.028520634711171
719,0.0290374930462379
720,0.029901697720217
721,0.0301211851490921
722,0.0313885202215324
723,0.0314584806300083
724,0.0316146498020747
725,0.0319843026232992
726,0.032233491536431
727,0.033303914740405
728,0.0344558257461863
729,0.0362029709881169
730,0.0380959436122981
731,0.0404932958607015
732,0.0427491475689795
733,0.0450747572715428
734,0.046845050368052
735,0.0479596409535097
736,0.0494393489251947
737,0.0506543446582838
738,0.0518693403913729
739,0.0530843361244621
740,0.0548650133758133
741,0.055931324895808
742,0.0569059386660105
743,0.0578805524362131
744,0.0588551662064157
745,0.0593529874170957
746,0.0597822255905201
747,0.0603401463843422
748,0.0602154959543618
749,0.0606492411502364
750,0.0609791228519165
751,0.0609244592302749
752,0.0618637314482038
753,0.0617110056043657
754,0.0611139323737573
755,0.0569875949786925
756,0.0528612575836277
757,0.0487349201885629
758,0.0415236045464875
759,0.0346434757558067
760,0.0295970146084355
761,0.0282302513188432
762,0.0293789805489667
763,0.0324763739013412
764,0.0372311237402217
765,0.0421108056275375
766,0.0476991256254921
767,0.0532412998379494
768,0.0563749525719652
769,0.0587485237509896
770,0.0608587188092819
771,0.0617048115998058
772,0.0626573198702575
773,0.0636687019648226
774,0.0634771059459522
775,0.0637083562755843
776,0.0640833038666915
777,0.0634574263997069
778,0.0643700961995478
779,0.0636712389358631
780,0.0645671574275558
