"wavelength","measurement"
380,0.000560160408637399
381,0.00059194146047842
382,0.000573201273167659
383,0.000588291910559751
384,0.000617618006028911
385,0.000652743718120057
386,0.000658601718788348
387,0.000723019591804781
388,0.00076828090627148
389,0.000790926524170812
390,0.000792924831634601
391,0.000822368744928925
392,0.000825486403353894
393,0.000850614592733796
394,0.000900455180416448
395,0.00094519243160244
396,0.00102481113393703
397,0.00115161372802203
398,0.00127841632210704
399,0.00140521891619205
400,0.00152779998898109
401,0.00161382929345761
402,0.00168659323635466
403,0.00177633500283321
404,0.00179637839355198
405,0.00180985982124463
406,0.00182768451894202
407,0.00189141759599749
408,0.00194542680470434
409,0.00200652731503627
410,0.00211073662179582
411,0.00212699043935888
412,0.00222810077790287
413,0.00230196477505934
414,0.00230883246148248
415,0.00237165753512306
416,0.00233807452604374
417,0.0023495093401214
418,0.00241498641962851
419,0.0023565487701303
420,0.0024210729692283
421,0.00245050770531287
422,0.00246528943500213
423,0.00251915769579401
424,0.00250990912222333
425,0.00249878446300695
426,0.00247977851401471
427,0.00242058387918242
428,0.00235424043297513
429,0.00238139930285824
430,0.00238936605671262
431,0.00250631534011428
432,0.00264439583279078
433,0.00273399431283882
434,0.00293554999316258
435,0.00299922121338146
436,0.00302207253847293
437,0.00305431926210739
438,0.00308656598574185
439,0.00311881270937631
440,0.00313519768272868
441,0.00321242259593781
442,0.00330307342290064
443,0.0033583141484898
444,0.00343651993609901
445,0.00351472572370823
446,0.00359293151131744
447,0.00368517303748196
448,0.00373556668195594
449,0.00387679659705608
450,0.00386334027362722
451,0.00382181473869359
452,0.00381795901780532
453,0.00381410329691705
454,0.00381024757602878
455,0.00380736588034299
456,0.00375852558426906
457,0.0038983752156446
458,0.00386126674464466
459,0.00394256343220087
460,0.00391862447933243
461,0.00388600947433143
462,0.00399957663245177
463,0.00388261338009406
464,0.00386937825084481
465,0.00385025140448084
466,0.00378583443113818
467,0.00377286929979867
468,0.00372173972766913
469,0.00369215346961428
470,0.00378722235801614
471,0.00378555591777624
472,0.00382083063895122
473,0.003839539183405
474,0.00386240547680333
475,0.00392153437554813
476,0.00383439283812711
477,0.00384686378795695
478,0.00385933473778679
479,0.00387180568761663
480,0.0038981640098262
481,0.00381115934650932
482,0.00376800649656042
483,0.00379673122130037
484,0.00373389252993575
485,0.00368609195689199
486,0.00377267739232634
487,0.00378934567965657
488,0.0038204643419965
489,0.00390592513540632
490,0.0039323485355694
491,0.00395792247590198
492,0.00405034755721298
493,0.0039999373200725
494,0.0040445727973642
495,0.00397508328623712
496,0.00399553582443948
497,0.00391000573838205
498,0.00393052831738016
499,0.00381211426617115
500,0.0038433284452124
501,0.00378594175731187
502,0.00384257967029682
503,0.0038248905930089
504,0.00382170474725695
505,0.00394987035751285
506,0.0039343433466036
507,0.00397228844546784
508,0.00399683201361691
509,0.00402546167246469
510,0.00397326315002617
511,0.00406235167887306
512,0.00403447886294809
513,0.00395356002812257
514,0.00394240301304567
515,0.00388950364033109
516,0.00388199560874168
517,0.00390242582317313
518,0.00388515119085388
519,0.00395480974049172
520,0.0040717394252783
521,0.00412720500098599
522,0.00418267057669368
523,0.00423813615240138
524,0.00421621427287551
525,0.00425739462828483
526,0.00429163695526467
527,0.00423328759739689
528,0.00429851708691774
529,0.00436709066940818
530,0.00437329854438542
531,0.00440219993157986
532,0.00437991082336276
533,0.00446167728502209
534,0.00449392443569769
535,0.00444858020875532
536,0.00453000862050464
537,0.00456632679803017
538,0.00463570519605794
539,0.00475004674391388
540,0.00493514598286928
541,0.00509821752717939
542,0.00525927902946961
543,0.00540106913971582
544,0.0054573597245096
545,0.00534293780999061
546,0.00525426926457198
547,0.00509179635469897
548,0.00492932344482597
549,0.00476685053495296
550,0.00464308794609646
551,0.00461064892606108
552,0.00459852450844821
553,0.00451320672311949
554,0.00445492434602743
555,0.00446747699699339
556,0.00439898345669412
557,0.00434458563212098
558,0.00432121143922692
559,0.00429204444479596
560,0.00431041938205212
561,0.00422662965599539
562,0.00429161770153338
563,0.00421825979718451
564,0.00421764320835049
565,0.00413359303270309
566,0.00410946666240433
567,0.00403877233103822
568,0.00403041916455639
569,0.00397549103631307
570,0.00394294503125896
571,0.00395786694721339
572,0.00394694946448738
573,0.00393846916480392
574,0.00398514500679642
575,0.00394860167693281
576,0.00397817639201376
577,0.00400775110709472
578,0.00403732582217567
579,0.00406690053725663
580,0.00409647525233759
581,0.004153099166738
582,0.00413474441832223
583,0.00416230076629519
584,0.00407780007985385
585,0.00406085425839017
586,0.00390483934873328
587,0.00378410781517695
588,0.0036970226127451
589,0.00360993741031325
590,0.0035228522078814
591,0.00352656211340685
592,0.00353743159142321
593,0.00354621923309021
594,0.00359607781303985
595,0.00358689350496705
596,0.00361496488973416
597,0.00365627190211275
598,0.00368904465948158
599,0.00372477602994813
600,0.00376396641992665
601,0.00378979254181848
602,0.00380529784009656
603,0.00379621377360261
604,0.00382679524144061
605,0.00382225631400675
606,0.00387915281801679
607,0.00399739459389463
608,0.00410143332635593
609,0.00425425001260341
610,0.00434049977080691
611,0.00436308827908837
612,0.00429493461576159
613,0.00416875430251693
614,0.00395685696221847
615,0.00386197630642477
616,0.00374705137130967
617,0.00374441217811938
618,0.00370339381674671
619,0.00370234619718674
620,0.0036493109147375
621,0.0036562520544843
622,0.0035669487261398
623,0.0035281791724977
624,0.00347025252812635
625,0.00341232588375499
626,0.00335439923938363
627,0.00332161743030132
628,0.00329247432769352
629,0.00327841365557766
630,0.00332598642957435
631,0.00325095570299109
632,0.00324990326185191
633,0.00325618761796381
634,0.00321256054014745
635,0.00321494970357671
636,0.00320948560150885
637,0.00321028245049866
638,0.00317732655454151
639,0.00318499931581659
640,0.00316445273244934
641,0.00313920993247427
642,0.00310454683748336
643,0.00305061461543431
644,0.00299668239338526
645,0.00294275017133621
646,0.00290300778278581
647,0.00288874958349008
648,0.00281956895915064
649,0.00287803857522598
650,0.00283960263851418
651,0.00288146989812104
652,0.0028268894355281
653,0.00276942587456523
654,0.00272042420055792
655,0.0027420884832308
656,0.00272079178576595
657,0.00273759504101098
658,0.00279079216315288
659,0.002859358201073
660,0.0028747141250005
661,0.00289129314727174
662,0.00290545169158165
663,0.00287340957654091
664,0.00285072012897932
665,0.00285824320591281
666,0.00285614985402409
667,0.0028630397099853
668,0.00282887110961056
669,0.00279787958893372
670,0.00279305638708055
671,0.00276787239936762
672,0.00273755702326076
673,0.0027619262551131
674,0.00273758837029024
675,0.00274585817409665
676,0.00273281794957152
677,0.00273211237273387
678,0.00270704626566927
679,0.00268581892481145
680,0.00273295300960259
681,0.00266689181691257
682,0.00261171162718359
683,0.00255074117285565
684,0.00244151301976918
685,0.00233464856003195
686,0.00227687544215312
687,0.00221861379616027
688,0.00215598740848539
689,0.0021682138944921
690,0.00221045673881077
691,0.00225343412979247
692,0.00227893263149186
693,0.00231011052309143
694,0.00237459562684337
695,0.00239597864349888
696,0.0024471746460379
697,0.00246343688065015
698,0.00245273006086836
699,0.00248448856692394
700,0.00254792269389672
701,0.00255354915640536
702,0.0026249251063692
703,0.0027104698416258
704,0.0028090731710212
705,0.00285865423884656
706,0.00296029524740383
707,0.00301703767247814
708,0.00303737713668974
709,0.00310522568314666
710,0.00309514849291571
711,0.00310685097058139
712,0.00311772292689825
713,0.00293684792890986
714,0.00282822857611768
715,0.00262896836848471
716,0.00244741269124905
717,0.00230931342082329
718,0.00229157475130994
719,0.00229305191252075
720,0.00234007667782934
721,0.00233160584539086
722,0.00242753491463678
723,0.00240026946902568
724,0.00241107708587631
725,0.00240492110057389
726,0.00242088738242961
727,0.00247693573987755
728,0.00253971904872952
729,0.00261505175461259
730,0.00279475546958345
731,0.00297151800801569
732,0.0031174471842292
733,0.00327023799431542
734,0.00339051181889304
735,0.00346160967379887
736,0.00357459650574449
737,0.00364745699148767
738,0.00372031747723085
739,0.00379317796297403
740,0.0039405940620027
741,0.00398307012632256
742,0.00404552635089391
743,0.00410798257546527
744,0.00417043880003663
745,0.00420320280208679
746,0.00416510676533764
747,0.00422081949376112
748,0.00417805081609678
749,0.00417160635772554
750,0.00416919225842201
751,0.00417509652166136
752,0.00424197811304665
753,0.00407839477372225
754,0.00408469383187602
755,0.00377416858995683
756,0.00346364334803764
757,0.00315311810611845
758,0.00268849205242382
759,0.00218607864525839
760,0.0018581074937312
761,0.00178291650086844
762,0.00184308364371444
763,0.00202122251776704
764,0.00229497489685885
765,0.00255098692602186
766,0.00293839561623384
767,0.00324897785835543
768,0.00347575222054125
769,0.00359139498596481
770,0.00372938828194002
771,0.00379063702008842
772,0.00381953780972232
773,0.00389947992229321
774,0.00385791089825776
775,0.00383699682177007
776,0.00386142535199337
777,0.0038013569764855
778,0.00382235498005215
779,0.00377108520141138
780,0.00377439482830946
