"wavelength","measurement"
380,0.0118431852584847
381,0.0116084161888434
382,0.0112331429416468
383,0.0110454896302815
384,0.0112495177158283
385,0.011751564095025
386,0.0123187171420998
387,0.0127477296438118
388,0.0131316078961645
389,0.0135107901593854
390,0.0132089397583798
391,0.0133327449455258
392,0.013266067895578
393,0.0134430715747526
394,0.0135144304615151
395,0.0146319859385526
396,0.0161425534327563
397,0.0178627224633307
398,0.0195828914939051
399,0.0213030605244795
400,0.0221689651401304
401,0.0232165843047359
402,0.0240386188716756
403,0.0242344959136367
404,0.0242190813892475
405,0.0242630483772333
406,0.0246469951008015
407,0.0248653963458026
408,0.0249385882021868
409,0.0255170767214767
410,0.0266250468527347
411,0.0266359843261164
412,0.0271182405874773
413,0.0277138259873627
414,0.0275660447494557
415,0.027635644004843
416,0.0273175838779091
417,0.0270459640395449
418,0.0275248589718931
419,0.0269007736467366
420,0.0274094264857402
421,0.0274178519158169
422,0.027570189455909
423,0.0276655229148553
424,0.0276487002970538
425,0.0268687030155987
426,0.0265590736831943
427,0.0257596210312212
428,0.0250011861098536
429,0.0249210342554192
430,0.0249378356263653
431,0.0261139024959395
432,0.0268409305183723
433,0.0277104409469144
434,0.0288546732629404
435,0.0293143054785963
436,0.0296814101855731
437,0.0300404975401702
438,0.0303995848947673
439,0.0307586722493645
440,0.0309278974188082
441,0.0313445502009886
442,0.0319447601761544
443,0.0321561918027942
444,0.0326632885477209
445,0.0331703852926477
446,0.0336774820375744
447,0.0341634540514698
448,0.0341826864249593
449,0.0353137646342255
450,0.0349711022125505
451,0.0346399231953155
452,0.0344762846662822
453,0.034312646137249
454,0.0341490076082157
455,0.0341399766748378
456,0.0342181642318566
457,0.0344147977618319
458,0.034676709602013
459,0.0352067685935751
460,0.0351943835777452
461,0.0347450487832569
462,0.0357115076908987
463,0.0345603423462523
464,0.0341879340968632
465,0.0337709374372398
466,0.0334012915190114
467,0.0331751580956381
468,0.0329159236820378
469,0.0327851806351842
470,0.0333818776171003
471,0.0333272121277442
472,0.0335429515175837
473,0.0339129036841458
474,0.0339373796381985
475,0.0344767766828059
476,0.0336567015962352
477,0.0336137547426076
478,0.03357080788898
479,0.0335278610353524
480,0.0333650607168439
481,0.0324546383320181
482,0.0319534214675712
483,0.0317357900672377
484,0.0310524005541429
485,0.0304987995076187
486,0.0308688624716538
487,0.0311286666797509
488,0.0315037977052183
489,0.0323055795464094
490,0.0324946252966232
491,0.0326773400997202
492,0.0334146054706411
493,0.0329491676282266
494,0.0334024338044408
495,0.0328798023182205
496,0.0329714225030843
497,0.0323293241882945
498,0.032437963625548
499,0.0317286355645432
500,0.0318505049740081
501,0.0316030021586269
502,0.0321073804257851
503,0.0322115728787302
504,0.0319102962564482
505,0.0328813190924939
506,0.0327270006456617
507,0.0328362804695539
508,0.0330317519306011
509,0.0329629580197829
510,0.0325031549472288
511,0.0328498235184455
512,0.0325288530761559
513,0.031589706689672
514,0.0313959862726658
515,0.0308769374900662
516,0.030707162520376
517,0.0307675168148845
518,0.0306770371788753
519,0.031342287282207
520,0.0318540092284267
521,0.0321515294954199
522,0.0324490497624131
523,0.0327465700294063
524,0.0325983424341314
525,0.0326511915953593
526,0.0326469994585165
527,0.032551325326225
528,0.0327342214774812
529,0.0330683481597496
530,0.0330606018756521
531,0.0331235344456966
532,0.0329875882857642
533,0.0333455661555772
534,0.0334119085300706
535,0.0330535590744592
536,0.0332207655355217
537,0.0330344547810746
538,0.032698988526486
539,0.032518033392765
540,0.0326646248063066
541,0.0324381060677582
542,0.0321613581630167
543,0.0322632301785961
544,0.0324312220385878
545,0.0322541271647781
546,0.0324559950063199
547,0.0324260602266012
548,0.0323961254468824
549,0.0323661906671637
550,0.0322939594203609
551,0.0324060801279406
552,0.0327038839656978
553,0.0324024516559408
554,0.0321943408669813
555,0.0325046668081357
556,0.0320511951424662
557,0.0319988484260029
558,0.0317670828579403
559,0.0314382865184929
560,0.0318935159701694
561,0.0312249901652295
562,0.0316549925502072
563,0.0311625642290455
564,0.0311303942185128
565,0.0306352861335161
566,0.0303407798940062
567,0.029805706790551
568,0.0300017314021763
569,0.0296019234765782
570,0.0294977522503825
571,0.029509383882947
572,0.0294608790544197
573,0.0293671214107492
574,0.0295667749661923
575,0.0291431002954266
576,0.0292963675481844
577,0.0294496348009421
578,0.0296029020536999
579,0.0297561693064576
580,0.0299094365592154
581,0.030323705657307
582,0.0301777922582594
583,0.0303033514875566
584,0.0296934904572551
585,0.029403480987271
586,0.0284204017181089
587,0.0277444856975099
588,0.0273517419238083
589,0.0269589981501066
590,0.026566254376405
591,0.0267214882924252
592,0.0269847557749549
593,0.0271200112238399
594,0.0275816519600955
595,0.0277291396412657
596,0.0280430611406007
597,0.0283472363775207
598,0.0284550777971558
599,0.0286631098139706
600,0.0289639058881054
601,0.0293479365148176
602,0.0295014135416072
603,0.0293597363217308
604,0.0296449730192156
605,0.0295064812837704
606,0.0295446427073518
607,0.0293013808910333
608,0.0289842912716061
609,0.0289821863992258
610,0.0288025681937701
611,0.028528500027907
612,0.0282591955885595
613,0.0281200352847096
614,0.0278494088643471
615,0.0282351370063116
616,0.0278908877681149
617,0.0281841702879904
618,0.0280854004411735
619,0.0280728917194431
620,0.0279279266865377
621,0.0281360484582475
622,0.0274896053801671
623,0.0274768633992971
624,0.0271564324458432
625,0.0268360014923893
626,0.0265155705389354
627,0.0263968486770376
628,0.0262971933222451
629,0.0262523076160668
630,0.0265729954600973
631,0.0262831137628361
632,0.0264495305232097
633,0.0265897150455857
634,0.0268216283710823
635,0.0270966648757623
636,0.0267938704877009
637,0.0271411984934071
638,0.026971790656694
639,0.0271501469803241
640,0.0269714359899405
641,0.0268985049963755
642,0.0266818942772595
643,0.0263682561321358
644,0.0260546179870121
645,0.0257409798418884
646,0.0258355445645485
647,0.0256380519326706
648,0.0252552884347199
649,0.0256724795778138
650,0.0254702408986015
651,0.0255742455547195
652,0.0253487287699155
653,0.0250108984663437
654,0.0246311065260355
655,0.0249389938364523
656,0.02481925531543
657,0.0252920428513266
658,0.0256136912935386
659,0.0262140401950834
660,0.0264820726303449
661,0.0265916742934919
662,0.0267287500818624
663,0.0266478789231203
664,0.026452406223132
665,0.0265213501021467
666,0.0265940686727923
667,0.0266290484790123
668,0.0266759564734341
669,0.026287492549531
670,0.0264795637153703
671,0.0263215010936973
672,0.0262387918430506
673,0.0263232669947496
674,0.0263278270020874
675,0.0263249236652224
676,0.0263485756879748
677,0.0265408980569804
678,0.0263164400404296
679,0.026182168067322
680,0.026797518819538
681,0.0263251675648882
682,0.0254810251309728
683,0.0248393841071511
684,0.0237639517520093
685,0.0228236587621633
686,0.0221112925174992
687,0.0216583507779835
688,0.0215946808845555
689,0.0216803508407071
690,0.0220556878090167
691,0.0227061941109697
692,0.0229598684882846
693,0.0232276224304868
694,0.0238784383379191
695,0.0240565092925269
696,0.0245994890638385
697,0.02471729810055
698,0.0244801242571884
699,0.0247500252673852
700,0.0253874079529489
701,0.0255571394048537
702,0.0262055405270531
703,0.0265118020915104
704,0.0271597188240921
705,0.0275522108099
706,0.0281751857522066
707,0.0287922623520637
708,0.0291327619704919
709,0.0295922108220681
710,0.0295295158214592
711,0.0296358908298735
712,0.0295421672722506
713,0.0281590250044809
714,0.027224604352818
715,0.0255357568193384
716,0.0241425346174724
717,0.0234799394256675
718,0.0233729561472995
719,0.023786504716866
720,0.0242652918389838
721,0.0241615366757534
722,0.0247690103557422
723,0.0247671507054675
724,0.0247930988757487
725,0.0251059254133763
726,0.0252415735867267
727,0.0259983212161834
728,0.0267520389823883
729,0.0279744776370346
730,0.0290896601025369
731,0.0306670150962766
732,0.0318923839968738
733,0.0333670000671957
734,0.0341828049328789
735,0.0349165826354908
736,0.0357974630982762
737,0.0364960935990291
738,0.037194724099782
739,0.0378933546005349
740,0.0387796810296978
741,0.0392366906426733
742,0.0397292652652823
743,0.0402218398878912
744,0.0407144145105001
745,0.0408546874601633
746,0.0410666996929126
747,0.0412294316154344
748,0.0409004877659717
749,0.0412504697155786
750,0.0412784265442445
751,0.0411228540606266
752,0.0416567577894114
753,0.0413261316552768
754,0.0400875275156445
755,0.0367153483566372
756,0.0333431691976298
757,0.0299709900386225
758,0.0251368643614029
759,0.0209719818378523
760,0.0188609021069281
761,0.0184831793646507
762,0.0194476708483214
763,0.0217053817931751
764,0.0248903352682875
765,0.0279082594428292
766,0.0314011194031412
767,0.0345840497698409
768,0.0365447006231207
769,0.0383147413371025
770,0.0392397317285903
771,0.0399028643860978
772,0.0403376659060235
773,0.0409498703287467
774,0.0408959395635706
775,0.0408424356220654
776,0.0410998932002248
777,0.0404137127328635
778,0.0411584228412109
779,0.0405920206668966
780,0.041242148547355
