"wavelength","measurement"
380,0.00104672825529131
381,0.00102700758994047
382,0.00103958614473278
383,0.00106543204672697
384,0.00107663012054474
385,0.00115874222194218
386,0.00123602058357183
387,0.0013094131295436
388,0.00137619709372928
389,0.0014287867043055
390,0.00141484010429551
391,0.00145848961190269
392,0.00145172014143032
393,0.00149745662678858
394,0.0015747866621487
395,0.00167326064927008
396,0.00183805332153853
397,0.00204719424050496
398,0.00225633515947138
399,0.00246547607843781
400,0.00257303276708708
401,0.0027437206482589
402,0.00283437029896353
403,0.00288543244548543
404,0.00290057892476334
405,0.0029184482346996
406,0.00297812542217634
407,0.00300718727274602
408,0.00305852659554336
409,0.00310411272441708
410,0.00324240078895396
411,0.00327063065811202
412,0.00336638413621284
413,0.00345380340255086
414,0.00343362155020059
415,0.0034824083165028
416,0.00343337147634503
417,0.00342985396001732
418,0.0034676865547905
419,0.00341509820347883
420,0.00351422805629188
421,0.0034706350227007
422,0.00350296586222964
423,0.00355435767975299
424,0.00355298594426542
425,0.00350733769874986
426,0.00346180741128749
427,0.00338463550935608
428,0.00327224735621568
429,0.00329922699988749
430,0.00332058394026011
431,0.00345175518327259
432,0.00358630573692105
433,0.00369754725643777
434,0.00382873367301787
435,0.00392351058615222
436,0.00399932006982025
437,0.00406680080882648
438,0.00413428154783271
439,0.00420176228683894
440,0.00424077700362129
441,0.00431079274930365
442,0.00441880557907722
443,0.00451837595394855
444,0.00461386273672534
445,0.00470934951950213
446,0.00480483630227892
447,0.00487891016739416
448,0.00495495816528919
449,0.00511743936620623
450,0.0050857329049394
451,0.00504703620531439
452,0.00502806053894839
453,0.00500908487258239
454,0.00499010920621638
455,0.0049757148973422
456,0.00496247457794454
457,0.00507225433924176
458,0.00504429607500341
459,0.00511952858892335
460,0.00514365885508009
461,0.00507094248118142
462,0.00519943834556354
463,0.00505525306045409
464,0.00502745791149119
465,0.00496434775096716
466,0.00490043958885123
467,0.00488101541146816
468,0.00483341394839535
469,0.00481884839334879
470,0.00492030558391419
471,0.00492416020029393
472,0.00493880215725857
473,0.00499277929204359
474,0.00499860327584238
475,0.00506031729766089
476,0.00494599705020622
477,0.00494914130200552
478,0.00495228555380481
479,0.00495542980560411
480,0.00493317192698835
481,0.00479945077653385
482,0.00472002699913999
483,0.00473514412316424
484,0.00461501802412589
485,0.00455826310979052
486,0.00459913555467859
487,0.00465018508373787
488,0.00471632739251213
489,0.00482838517174451
490,0.00485766061211804
491,0.00489916871505563
492,0.00501904773733436
493,0.00495455778160358
494,0.00504336501977586
495,0.00495717573507767
496,0.00498474325777454
497,0.00490534030244013
498,0.00492441266945528
499,0.00481565210357326
500,0.00485112818532683
501,0.00481613863002517
502,0.00490303214789905
503,0.00494748687352496
504,0.00488970253198167
505,0.00505847609028717
506,0.00501995332796039
507,0.00504506217238282
508,0.00507992965557288
509,0.00508119280233003
510,0.00500379703257135
511,0.00510214872080911
512,0.00502730860725705
513,0.0048979596153402
514,0.00486328618035276
515,0.00480517654071758
516,0.00478401894691487
517,0.00478491048949488
518,0.0047775627973995
519,0.0048644740362488
520,0.00495667120000775
521,0.00499717527943642
522,0.00503767935886509
523,0.00507818343829376
524,0.00505169495042436
525,0.00507281355016505
526,0.00507201921443813
527,0.00502978118295219
528,0.005081658370778
529,0.00511457080179515
530,0.00512768790001213
531,0.00512683024106956
532,0.00510084050308448
533,0.00516244372202193
534,0.00517344013815499
535,0.00514042958918299
536,0.00515430060748673
537,0.00512082441365844
538,0.00508070709759896
539,0.00504850155779743
540,0.00507426356803318
541,0.0050178941898406
542,0.00500165262253185
543,0.00502381919262062
544,0.00504889470730615
545,0.00499398097307044
546,0.00503159692458727
547,0.00502012391757709
548,0.00500865091056691
549,0.00499717790355672
550,0.00497406063764927
551,0.0050213689366846
552,0.00503163035692614
553,0.00498034989045338
554,0.00496134491846968
555,0.00499658525621367
556,0.00493106748607399
557,0.00493194137516801
558,0.00489614727184261
559,0.00486086927969587
560,0.00490134106829616
561,0.00481002414793892
562,0.00488685487413003
563,0.00480411376182666
564,0.00481140914527085
565,0.0047245319909752
566,0.0046905011012424
567,0.00463400605371349
568,0.00464374388714452
569,0.00458127351489453
570,0.00456747765492531
571,0.00457199461415493
572,0.00455797790359624
573,0.00454470134499616
574,0.00457597606815923
575,0.0045067625961736
576,0.00452853065172971
577,0.00455029870728582
578,0.00457206676284193
579,0.00459383481839804
580,0.00461560287395415
581,0.00467939311328958
582,0.00465144026172356
583,0.00467152125539899
584,0.0045641037681841
585,0.00452170454777826
586,0.00437324717723508
587,0.00425170875879595
588,0.00419128803318187
589,0.00413086730756779
590,0.0040704465819537
591,0.00409268171042042
592,0.00412237572079113
593,0.00413175663462036
594,0.00419425960966718
595,0.00418663655568163
596,0.00424686711550916
597,0.00427524707696822
598,0.00430294254546907
599,0.00429321693468551
600,0.00436021551926979
601,0.00438816817037154
602,0.00441642763789509
603,0.00437838385050464
604,0.0044137742540084
605,0.00437878856484833
606,0.00435870425307372
607,0.00434571245411082
608,0.00429550660614598
609,0.00428058226248594
610,0.00424972043652597
611,0.00420795293395838
612,0.00416117760620901
613,0.00413399843023759
614,0.00406625150698642
615,0.00410498735374802
616,0.00405750613272637
617,0.00408905906906912
618,0.0040712347363771
619,0.00406633270553155
620,0.00404190725476751
621,0.00404476222148978
622,0.00394180990816587
623,0.0039355559476968
624,0.00387842514780486
625,0.00382129434791292
626,0.00376416354802098
627,0.00374119630474355
628,0.00371815593821693
629,0.00371046282236782
630,0.00373843797607852
631,0.00367903843686519
632,0.00371032790324092
633,0.00372193370917047
634,0.00373397074830424
635,0.00373246622541065
636,0.00371437188321505
637,0.00374920723547199
638,0.00369984836486523
639,0.0037083121320651
640,0.00368197387574662
641,0.00366647880780454
642,0.00362743124688286
643,0.00357241536588707
644,0.00351739948489127
645,0.00346238360389548
646,0.00347809817655486
647,0.00346180363518674
648,0.00338326345957067
649,0.00344056726622267
650,0.00338846173873589
651,0.00339199522857774
652,0.0033566766222141
653,0.00328439007773292
654,0.00324091797611419
655,0.00325891196512537
656,0.003264638536827
657,0.00330053520183884
658,0.00332506660537778
659,0.00340186185523287
660,0.00342228649744212
661,0.00342505991526483
662,0.0034501039230834
663,0.0034104240976031
664,0.00338568573503973
665,0.00338937686340736
666,0.00338215225726716
667,0.00338928381670749
668,0.00338145149487028
669,0.00331410749368736
670,0.00330964772730681
671,0.00329968897799391
672,0.00328928031529941
673,0.0032914935322385
674,0.00328575254247663
675,0.00326667241320621
676,0.00325853703960282
677,0.00327016675918537
678,0.00321891515807078
679,0.00320079700602837
680,0.00327018158154763
681,0.00317730654241804
682,0.00306942879532477
683,0.00299592182182891
684,0.00284408536457023
685,0.00271743248569909
686,0.00262841373372064
687,0.00257483842925591
688,0.0025455177488114
689,0.00252959422906162
690,0.00256797006469002
691,0.00262863852828027
692,0.00263381564835352
693,0.00265914892356809
694,0.00270536086805679
695,0.00269870963404259
696,0.00275340334740236
697,0.00273806931648319
698,0.00269161331443432
699,0.00272503102489234
700,0.00276511962004824
701,0.00275808110951868
702,0.00279453137985376
703,0.00281801066395545
704,0.00285720915089016
705,0.00285652508742837
706,0.00292933111310911
707,0.0029817274632253
708,0.00295413052578346
709,0.00299557922978462
710,0.00296463637797562
711,0.00294368192262557
712,0.00291368596335008
713,0.00277654947518663
714,0.00264589758122892
715,0.00245855150339429
716,0.00232369740998146
717,0.00225193205852081
718,0.00222653661403104
719,0.002218272721315
720,0.00225484411521496
721,0.0022007540117229
722,0.00225630614302009
723,0.00225511137309735
724,0.00224092849152847
725,0.0022385347346443
726,0.00223259767760679
727,0.00227259330208942
728,0.00233813406390526
729,0.00238582182923067
730,0.0024829403628604
731,0.00259927703294604
732,0.00266213639439872
733,0.0027494973468225
734,0.00283530042246125
735,0.00288817815494239
736,0.00291870908502252
737,0.00295735577074811
738,0.00299600245647369
739,0.00303464914219928
740,0.00309078696622879
741,0.00311592891851291
742,0.00313500148640287
743,0.00315407405429283
744,0.0031731466221828
745,0.00316570643019854
746,0.00315230292256839
747,0.00312685321491357
748,0.00310512141513131
749,0.0031095350530783
750,0.00311049215157794
751,0.00306555738836071
752,0.00309834024738134
753,0.00303084963615678
754,0.00297391440446132
755,0.00272082031342311
756,0.0024677262223849
757,0.00221463213134669
758,0.00186737727534363
759,0.00156067493495325
760,0.00141954321883426
761,0.00138583319022983
762,0.0014318093622995
763,0.00157935372418467
764,0.00181306505788816
765,0.00199238240313773
766,0.00221763713424357
767,0.00241214229974052
768,0.00254638546261581
769,0.00263925859168732
770,0.00268285528832212
771,0.00273005572623199
772,0.00276763458090602
773,0.00278848340461357
774,0.00277368407660264
775,0.00275692395259571
776,0.00277924981648809
777,0.00273649540988505
778,0.00278127591818391
779,0.00270136374400992
780,0.00274922297375558
