"wavelength","measurement"
380,0.006779772083983
381,0.00653245659875971
382,0.00634322188733572
383,0.00620286132892178
384,0.00613483777115626
385,0.00652948270510637
386,0.00686377765734607
387,0.00712894366415208
388,0.00738212549063657
389,0.00746876160927389
390,0.00743339728681446
391,0.00738581181949143
392,0.00743318505488804
393,0.00747017800528447
394,0.00747206336909085
395,0.00799476359953363
396,0.00885575191023399
397,0.00973933587728897
398,0.0106229198443439
399,0.0115065038113989
400,0.0119705326377465
401,0.0124981701485678
402,0.0129034526040795
403,0.0129752954593266
404,0.012940626703461
405,0.0127478398814786
406,0.0129150988291233
407,0.0130128403182878
408,0.013026270617672
409,0.0131049296276396
410,0.0137171231223231
411,0.013618003450047
412,0.0139206310666847
413,0.0141974303915234
414,0.0140979143599908
415,0.0141197924914288
416,0.0138558320946059
417,0.013638816060008
418,0.0137548096515737
419,0.013449313800723
420,0.0137382196378945
421,0.0135959683591537
422,0.0137892483413087
423,0.0136802595172758
424,0.0137559318648486
425,0.0134581390041395
426,0.0133234937801292
427,0.0128808576003012
428,0.0124681380186176
429,0.0124230409150709
430,0.0124203008782029
431,0.0128110387097162
432,0.0133013334850272
433,0.013701289224296
434,0.0143110000417609
435,0.0146696762005177
436,0.0146150993725364
437,0.014835636347621
438,0.0150561733227055
439,0.01527671029779
440,0.0153598534211592
441,0.0156099148315228
442,0.0158551845203307
443,0.0160313838348731
444,0.0162834375481361
445,0.0165354912613991
446,0.016787544974662
447,0.0170121658177396
448,0.0172107474584019
449,0.0176777194018059
450,0.0176102125010659
451,0.0174945115815169
452,0.0174360747640941
453,0.0173776379466713
454,0.0173192011292485
455,0.0171986637512989
456,0.0173070637361597
457,0.0174644263814043
458,0.0176170553455125
459,0.0178247695615864
460,0.017838467883526
461,0.0176818900346549
462,0.0181345640055067
463,0.0175169338387468
464,0.0174299510957898
465,0.0172394595211912
466,0.0169030033220612
467,0.0168452972872866
468,0.0167018655738212
469,0.0166041449308012
470,0.0168484004182972
471,0.0168338093065648
472,0.0169089890766148
473,0.0170396952681185
474,0.0170817297977329
475,0.0172767211013425
476,0.016840094738084
477,0.0168700991446244
478,0.0169001035511648
479,0.0169301079577052
480,0.016799964182483
481,0.0163538518988964
482,0.0161588107603311
483,0.0160654982928803
484,0.0157015605823286
485,0.0153294168899644
486,0.0154783879430747
487,0.0156092859063469
488,0.0158193438508812
489,0.0161408220594502
490,0.0164189390783447
491,0.016564719953532
492,0.0168979701630295
493,0.0167538462791716
494,0.0169990203595938
495,0.0167656708374002
496,0.0168865485292006
497,0.0165098027691994
498,0.0166677465772011
499,0.0162389029983757
500,0.0162560414574666
501,0.0161120950710004
502,0.0163784631528715
503,0.0164759056978291
504,0.0163230532282924
505,0.016904122600846
506,0.0167957376937946
507,0.0168844466083844
508,0.0170680129803126
509,0.0170453353478016
510,0.016857282781067
511,0.0170993645722542
512,0.0169644948821792
513,0.0165570231157388
514,0.0163848763839109
515,0.016134510271603
516,0.0160354395626174
517,0.0160645709253301
518,0.0159880487533111
519,0.0163428083765612
520,0.0166712200031122
521,0.0168899464010818
522,0.0171086727990514
523,0.017327399197021
524,0.0171920444571348
525,0.0171995453795034
526,0.0172479849652772
527,0.0172258684979994
528,0.0173369972728051
529,0.0175229697993182
530,0.0175403161246794
531,0.0175833083807269
532,0.0175663708406843
533,0.0177634026357166
534,0.0177942929736898
535,0.0176706928047058
536,0.0178439683815242
537,0.0177197559860002
538,0.0175581106899592
539,0.0174204866587073
540,0.017488664403898
541,0.0173431877379925
542,0.0173193319313513
543,0.017402694118089
544,0.0174571404577007
545,0.0173858849374884
546,0.0175312446628516
547,0.0175253875832431
548,0.0175195305036346
549,0.0175136734240261
550,0.0174456395627641
551,0.0176172054863552
552,0.0177550379271031
553,0.0176079142514005
554,0.0175545936117045
555,0.0177676911533191
556,0.0175009166604238
557,0.0174821840076382
558,0.0174269426114216
559,0.0172529312551466
560,0.0175083335103652
561,0.017123926415856
562,0.0175060564674109
563,0.0171494571536001
564,0.0172585886671217
565,0.016964733246848
566,0.0167721867295134
567,0.0165051072304956
568,0.0165898398130358
569,0.0163055361889376
570,0.0162895521304162
571,0.016271413594661
572,0.0162654125341533
573,0.0162221594342753
574,0.0162834354215421
575,0.0160825085872641
576,0.0161846123633189
577,0.0162867161393738
578,0.0163888199154287
579,0.0164909236914835
580,0.0165930274675384
581,0.0168509781310992
582,0.0168123389879637
583,0.0169540794501317
584,0.016606951447155
585,0.0164565600503026
586,0.0159121086600481
587,0.0154325629521191
588,0.015145415684103
589,0.014858268416087
590,0.0145711211480709
591,0.0146883853771831
592,0.0147112644760067
593,0.0148901208360282
594,0.0151969650619095
595,0.0152197384678019
596,0.0155138076423414
597,0.0156690633788816
598,0.0157922595251696
599,0.0159547160429019
600,0.0161558992308294
601,0.0163482378951577
602,0.016476318203374
603,0.0164251313810383
604,0.0166375126703074
605,0.0165378720321742
606,0.0166286674757908
607,0.0164733192766546
608,0.0162874621245267
609,0.0162824227182266
610,0.0161742935628998
611,0.0160469045182185
612,0.0159212939136004
613,0.0158458030553138
614,0.0156464718606771
615,0.0158805499383825
616,0.0156159315985777
617,0.0158207791729139
618,0.0157238689087495
619,0.0158307662471718
620,0.015697321619666
621,0.0158810009335199
622,0.0154502499962094
623,0.0154348689796004
624,0.015224613255577
625,0.0150143575315535
626,0.01480410180753
627,0.0146851903313541
628,0.0145972446414126
629,0.0145755115944121
630,0.0147629118443855
631,0.0146456665706729
632,0.0147104123212253
633,0.014891743055346
634,0.015047945784503
635,0.0151522150249633
636,0.0151118418096118
637,0.0151866240469057
638,0.0151502776866428
639,0.0152970476285698
640,0.0151553183127015
641,0.0151143576896078
642,0.0150169091767949
643,0.0148184737375608
644,0.0146200382983267
645,0.0144216028590925
646,0.0143926747511882
647,0.0142387754104798
648,0.0139965909741767
649,0.014218495651034
650,0.0141208865920829
651,0.0143333866709392
652,0.014202900708959
653,0.0139705495057189
654,0.0137990950484599
655,0.0139182219269189
656,0.0138298038367234
657,0.0139910701668431
658,0.0142376358522978
659,0.0147131312375477
660,0.0148894863598879
661,0.0149588371330785
662,0.0150397419777004
663,0.0149917431700492
664,0.0148609431827307
665,0.0149541446780312
666,0.014927860318414
667,0.0149460105526903
668,0.0150217014067765
669,0.0148064962905265
670,0.0148622429916
671,0.0147961763425517
672,0.0147699758901359
673,0.0147415785909493
674,0.0148114738499805
675,0.0147985880722638
676,0.0148009278155152
677,0.0149131937838667
678,0.0147001160453858
679,0.0147477466613931
680,0.015033956776559
681,0.0147438965337984
682,0.0144235877836257
683,0.0140086539000202
684,0.0133537463774157
685,0.0127661682424214
686,0.0122377006986342
687,0.0118808076222052
688,0.0117537087719747
689,0.0118002744408909
690,0.012056971913403
691,0.0123749840262309
692,0.0125183680992621
693,0.0127637649749441
694,0.0130247214403253
695,0.0132226998623799
696,0.0134982041760936
697,0.0136141408617034
698,0.0134560362276828
699,0.0135679811013576
700,0.013872195973567
701,0.0139119968591904
702,0.0142453424422962
703,0.0143861632219446
704,0.0147604905557854
705,0.0148552525195912
706,0.0152771022170716
707,0.0155851144298793
708,0.0157364978997444
709,0.0159144523973543
710,0.0159152213995795
711,0.0158884583527004
712,0.0158971314293771
713,0.0151549557962248
714,0.0144871211065858
715,0.0134309861588245
716,0.0125008927184026
717,0.0118820459865457
718,0.0116229666376807
719,0.0116769635872263
720,0.0118657629932871
721,0.0117945842539966
722,0.0122897139610048
723,0.012146125683298
724,0.0120518065915224
725,0.0120050402199981
726,0.0119734000182804
727,0.0122819867969325
728,0.0125231663906281
729,0.0131072825182799
730,0.0136502519795483
731,0.014477097451104
732,0.0151104207904394
733,0.01583807882084
734,0.0163022374207154
735,0.0166106662312376
736,0.0170395348084691
737,0.0173529827599512
738,0.0176664307114333
739,0.0179798786629154
740,0.0184465808084358
741,0.0186007537942565
742,0.0188368847928675
743,0.0190730157914786
744,0.0193091467900896
745,0.0194388084909183
746,0.0194908068879605
747,0.019517748823227
748,0.0193906549793545
749,0.0196266144885567
750,0.0193563980624669
751,0.0194457819460457
752,0.0197174344302236
753,0.0194333063115425
754,0.0192186882308122
755,0.0177308087350954
756,0.0162429292393786
757,0.0147550497436618
758,0.012321578907845
759,0.010051568916612
760,0.00844624115787806
761,0.00792407871803483
762,0.00814734735536819
763,0.0090650605060077
764,0.0106130886193293
765,0.012095887017484
766,0.0140159998815721
767,0.0156543158725387
768,0.0167751365671283
769,0.0176380113244976
770,0.0183478271750924
771,0.0186445669592702
772,0.0189743294035695
773,0.0192816780609034
774,0.0192493738864453
775,0.0192818592908107
776,0.0193655435348411
777,0.0191311494195222
778,0.0194313646992501
779,0.019218302007904
780,0.0194094971267105
