"wavelength","measurement"
380,0.0357391089251628
381,0.0344203991342531
382,0.0333581684272736
383,0.0320992842326934
384,0.0322836496608481
385,0.0334493440428688
386,0.0347638113019044
387,0.0360494148138953
388,0.0370849590374639
389,0.038017561405508
390,0.0374178632886873
391,0.0369874380506609
392,0.0364529193873496
393,0.036369517851048
394,0.0366555778858318
395,0.0382196333567652
396,0.0415844924946569
397,0.045496939645349
398,0.0494093867960411
399,0.0533218339467333
400,0.0553272331944557
401,0.0577457982306855
402,0.0592055113315645
403,0.0592987527266148
404,0.0587484568664569
405,0.0581948595652101
406,0.0584698700682252
407,0.0580816764190737
408,0.0579163947492681
409,0.0585239346431786
410,0.0602770122376552
411,0.0595946179924663
412,0.0610440512735339
413,0.0615403985414053
414,0.061265732463332
415,0.0612566545976639
416,0.0602325746388268
417,0.0592002580510285
418,0.0595003723097121
419,0.0585089344889372
420,0.0591450191483545
421,0.0585126028772368
422,0.0584731157251334
423,0.0585426634104098
424,0.0585463073435739
425,0.0568752728933849
426,0.0562868972182497
427,0.0543154887123346
428,0.0524392144984073
429,0.052281301169225
430,0.0522231489128992
431,0.0536992255239589
432,0.0553039384659801
433,0.0566980049569969
434,0.059035419067215
435,0.0600646493725577
436,0.0607954410597851
437,0.0613637506182868
438,0.0619320601767885
439,0.0625003697352902
440,0.062589743350441
441,0.0638895830442396
442,0.064764800960161
443,0.0653150372078874
444,0.0660747166176252
445,0.0668343960273629
446,0.0675940754371007
447,0.0686296091697034
448,0.0685000650518625
449,0.0708705122742928
450,0.0701936475722265
451,0.069966087392702
452,0.0695964798199974
453,0.0692268722472928
454,0.0688572646745881
455,0.0686112070816852
456,0.0682876395094021
457,0.0690040696566145
458,0.0690992276383346
459,0.070447252998338
460,0.0701073531657825
461,0.0690790282235849
462,0.0711215828007052
463,0.0687868976952539
464,0.0677605202217924
465,0.0671936468976581
466,0.0660504960086196
467,0.065728340034235
468,0.0649764031781155
469,0.0642058039561241
470,0.0653101798629055
471,0.0651832254527508
472,0.0653502669215832
473,0.0658478669806398
474,0.0659091605203126
475,0.0667352075275544
476,0.0653440490231319
477,0.0651297454160089
478,0.0649154418088859
479,0.064701138201763
480,0.0646406467241521
481,0.0628130744198256
482,0.0614055212967728
483,0.0610449379560188
484,0.0594329215320598
485,0.0578728297547692
486,0.0582116246021122
487,0.0587274266969214
488,0.0591955634186083
489,0.0605100639545939
490,0.0606798003726168
491,0.0612381850820694
492,0.0626682811136235
493,0.061703484794287
494,0.0626757538925108
495,0.0617865183086337
496,0.061960224476683
497,0.0606955031402676
498,0.0609366756028885
499,0.0595738053767606
500,0.0599260272892983
501,0.0592739172778621
502,0.0602475044432397
503,0.0607518359260115
504,0.0600534769338523
505,0.061961736094272
506,0.0616196848325075
507,0.0618320369381637
508,0.062184934645442
509,0.0623810102822557
510,0.0612848963707208
511,0.0622161857775247
512,0.0617665140462778
513,0.0601816812742709
514,0.0599351344800171
515,0.0589469815534935
516,0.0588610123711221
517,0.0587103812401289
518,0.0588779577910296
519,0.0600472925914383
520,0.0615131059075627
521,0.0623370860481651
522,0.0631610661887675
523,0.0639850463293698
524,0.0638810219311505
525,0.0642535423322388
526,0.0644669753217588
527,0.0644016912461918
528,0.064983008583213
529,0.0658752483244529
530,0.0658848291157396
531,0.0661961259451715
532,0.0661989017871757
533,0.0668426638021931
534,0.0670084121676521
535,0.0663082243411422
536,0.066957016375427
537,0.0665820365652884
538,0.066040400696874
539,0.0656191948481297
540,0.0659733045913463
541,0.0655376055010961
542,0.0649831296063778
543,0.0653853867671824
544,0.0657661538217023
545,0.0653481525439337
546,0.0657439030230136
547,0.0656489211439591
548,0.0655539392649046
549,0.06545895738585
550,0.0652098363575043
551,0.0655348153159197
552,0.0661114501034451
553,0.0654205845198635
554,0.0651284956626346
555,0.0656834646756095
556,0.0646594581416513
557,0.064370977091086
558,0.0639286506900093
559,0.0632106702294267
560,0.0640841321786346
561,0.0625827856155723
562,0.0636231214948752
563,0.0624537780866606
564,0.0625221627791696
565,0.0615906646201075
566,0.0610192873845353
567,0.0601359392759763
568,0.0602407504115853
569,0.0592844418277168
570,0.0589472999028469
571,0.059000841298382
572,0.0587212881221769
573,0.0583930932121868
574,0.0587533733187902
575,0.0575644690792061
576,0.057568898022577
577,0.0575733269659479
578,0.0575777559093189
579,0.0575821848526898
580,0.0575866137960607
581,0.0581404648609712
582,0.0575930706747233
583,0.057930419290669
584,0.056689145792261
585,0.0562855693332518
586,0.0545568852545885
587,0.0538199000603589
588,0.0531002404990024
589,0.0523805809376458
590,0.0516609213762893
591,0.0517089811640214
592,0.052085016326081
593,0.0521222395167995
594,0.0528170833543994
595,0.0526704640026883
596,0.0529852788735709
597,0.0532165899413551
598,0.0531600173978375
599,0.0530111983964838
600,0.0533319804595019
601,0.0536826944326891
602,0.0539063487313732
603,0.0534124553485551
604,0.0539308461462733
605,0.0534525433348865
606,0.0534611889693428
607,0.0530968016170001
608,0.0522443444257552
609,0.0520978261262906
610,0.0516573742649304
611,0.051183399352483
612,0.0507283430451857
613,0.0504069329096659
614,0.0495583807431486
615,0.0501729037080884
616,0.0494070699263285
617,0.0498573209612297
618,0.0495199420770384
619,0.0497011012120296
620,0.0494238683815922
621,0.0495509737824057
622,0.0485905186913818
623,0.0484898767091593
624,0.0481049197794258
625,0.0477199628496922
626,0.0473350059199586
627,0.0473101640754691
628,0.0469877050457222
629,0.0468401533829635
630,0.0472445083569798
631,0.0464901064065674
632,0.0469248652705879
633,0.0468972218991758
634,0.0469926818637093
635,0.0472329262100218
636,0.0467719556237212
637,0.0470549877848805
638,0.0465960799455051
639,0.046650879090031
640,0.0462476656906499
641,0.0459609975607443
642,0.045610573410539
643,0.0451173633962464
644,0.0446241533819539
645,0.0441309433676613
646,0.0442327297463211
647,0.0439308968103456
648,0.0430104231684297
649,0.0436773028569414
650,0.0431743792870913
651,0.043435094465369
652,0.0428823364647227
653,0.0421720840861243
654,0.0413704059475798
655,0.0417218286502791
656,0.0413212148796557
657,0.041601651606076
658,0.0418221054503792
659,0.0428069139605443
660,0.0429106816963989
661,0.0429267276796621
662,0.0429940150762781
663,0.0426374215532409
664,0.0421800803234174
665,0.0423668397316663
666,0.0422580565173478
667,0.0421582310397133
668,0.0422267675092575
669,0.041401968883969
670,0.0414199176030487
671,0.0412960946150193
672,0.0409898080651274
673,0.0410849567248726
674,0.0411730895240873
675,0.0410435579879963
676,0.0411312998077503
677,0.0414270036487982
678,0.040843152079738
679,0.0407689916314679
680,0.0417779779643209
681,0.0413011468402593
682,0.040340896199077
683,0.0398777940333112
684,0.0385282532167951
685,0.0377182886422688
686,0.037135381164818
687,0.0367538072337271
688,0.0369870015795304
689,0.0376224474165641
690,0.0388670707393808
691,0.0402555842114364
692,0.0412259240279839
693,0.0423896041409103
694,0.044114670936187
695,0.045080001571123
696,0.0467994312277342
697,0.0480570279112144
698,0.0485027034179883
699,0.0498729095034147
700,0.0518831647155528
701,0.0526775379556564
702,0.054728623928915
703,0.0561000190004071
704,0.0581343884679124
705,0.0593102905243034
706,0.0613589578941505
707,0.0631000579919587
708,0.0647485507044828
709,0.0666441010301874
710,0.0673099842977748
711,0.0682109097009176
712,0.0696511252396217
713,0.0682279293636695
714,0.0679582842770485
715,0.0656909895126516
716,0.0639483764173278
717,0.0633834222401962
718,0.0638016498033209
719,0.0655998986770763
720,0.0674482152602219
721,0.0680876351013662
722,0.0713257813650347
723,0.0719191467710986
724,0.0731123245511493
725,0.0742425599871199
726,0.0752683986698534
727,0.0779739929453065
728,0.0799893563977161
729,0.083076258665741
730,0.0861408294605517
731,0.0898186588073832
732,0.0935909859600601
733,0.0975324666893533
734,0.100515879694704
735,0.101963882972818
736,0.104752960009167
737,0.106466126539544
738,0.108179293069922
739,0.109892459600299
740,0.11297717861681
741,0.114530718830979
742,0.116076341916811
743,0.117621965002644
744,0.119167588088476
745,0.120387533750512
746,0.121104739918571
747,0.122636185283938
748,0.121738740573016
749,0.122982085851351
750,0.123745035395539
751,0.123593171376075
752,0.125629453870788
753,0.125276603109375
754,0.123829278622505
755,0.115869657102938
756,0.10791003558337
757,0.0999504140638031
758,0.0866177450311412
759,0.0751349676701046
760,0.0678333751247613
761,0.0664568037139728
762,0.0692410106683954
763,0.0746496428018079
764,0.0829952694415717
765,0.0909965516578265
766,0.100496112387098
767,0.110053572691457
768,0.115080220978483
769,0.119328558839607
770,0.122835866428606
771,0.124070260762959
772,0.12576690028417
773,0.127479998414395
774,0.126753666663854
775,0.127263501478423
776,0.128092719589339
777,0.126809355867851
778,0.128950686579779
779,0.127159350491562
780,0.129167432884873
