"wavelength","measurement"
380,0.0195390838313902
381,0.0187179355969398
382,0.0182631713835091
383,0.0177070155265895
384,0.0180362354749947
385,0.0187179721309546
386,0.019476702483278
387,0.0201637841661708
388,0.0215144701706762
389,0.0216016966541529
390,0.0212876205901599
391,0.0212113153183664
392,0.021071599664299
393,0.0209882915448586
394,0.0213090559435428
395,0.0224513342865882
396,0.0246077062007983
397,0.0270976948074483
398,0.0295876834140983
399,0.0320776720207484
400,0.0334209792653909
401,0.0349867651308107
402,0.0357399431569391
403,0.0360493511685858
404,0.0360067759485323
405,0.0358929852293666
406,0.0361047058089832
407,0.0362719629774069
408,0.0364363085405632
409,0.0370979601512686
410,0.0384592474302718
411,0.0386283712282681
412,0.0391119909365889
413,0.0400297650191191
414,0.0398325415189016
415,0.040255937011718
416,0.0397740485147329
417,0.039211151653986
418,0.0399457710878831
419,0.0390875690652589
420,0.0399601385085628
421,0.0399742136247205
422,0.0402866044341835
423,0.0402983504366514
424,0.0403812819306781
425,0.0397367820129539
426,0.0392095943818424
427,0.0380703199204331
428,0.0368291986222647
429,0.0371596803200457
430,0.0368996308726573
431,0.0386584569680657
432,0.0395582929846211
433,0.0409431345606038
434,0.0426704489895006
435,0.0433225262337942
436,0.0439134962341631
437,0.0444878778886366
438,0.0450622595431101
439,0.0456366411975836
440,0.0458879295872442
441,0.0469904495161743
442,0.0477765944550324
443,0.0479395010424031
444,0.0487128037443854
445,0.0494861064463676
446,0.0502594091483498
447,0.0508465711404188
448,0.0512804649817773
449,0.0528847304636418
450,0.0525615653519333
451,0.0523018931264041
452,0.052137584675454
453,0.0519732762245039
454,0.0518089677735538
455,0.0517053241854051
456,0.0518243189926058
457,0.0524955587332588
458,0.0528187706271508
459,0.0536866333210758
460,0.0536142268317399
461,0.0529661143527924
462,0.0543322374386533
463,0.0528530639471993
464,0.0522921476612999
465,0.0520020568195114
466,0.0512263611536284
467,0.0510135788079359
468,0.0505742322847345
469,0.0503509157435253
470,0.0511766291536312
471,0.0510047879417157
472,0.051395656209755
473,0.0521000811992975
474,0.052194911392107
475,0.0529013381087041
476,0.0517281912038848
477,0.0517132352859902
478,0.0516982793680956
479,0.0516833234502009
480,0.0516181961608577
481,0.0501504188970762
482,0.049442558063698
483,0.0491529715373836
484,0.0480466906452305
485,0.0470672080139212
486,0.0473406460898138
487,0.0478306768080657
488,0.0483769100256362
489,0.0494802183928792
490,0.0498341027983549
491,0.0505727353413091
492,0.0516352827328465
493,0.0511160264554415
494,0.0518375763755678
495,0.0514202360655614
496,0.0517198681623799
497,0.0505597737104017
498,0.0511807791302746
499,0.050199569328744
500,0.0506166634127651
501,0.0502539588370315
502,0.0514060948167494
503,0.0517222088400565
504,0.051372715115693
505,0.0529968936014932
506,0.0529147222087683
507,0.0532449021690467
508,0.0537604853399389
509,0.053882855073341
510,0.0531506231900243
511,0.054061594429538
512,0.0538844663905642
513,0.0525429845417352
514,0.0525502046506724
515,0.0519218000562632
516,0.0518099076949353
517,0.0518587799479389
518,0.0521292902026694
519,0.053419366296056
520,0.054813015086977
521,0.055674284124637
522,0.056535553162297
523,0.0573968221999571
524,0.0575047606595844
525,0.0577864798716789
526,0.0583378950646759
527,0.0583763037049351
528,0.058952599885672
529,0.059878586467986
530,0.0601340871461309
531,0.0604050278915656
532,0.0605692280695588
533,0.0613340583365679
534,0.0616360084855177
535,0.0611880461839906
536,0.0619550339017882
537,0.0615521808357175
538,0.0613070150531267
539,0.0609415557162467
540,0.0615146812903233
541,0.0610809673083716
542,0.0609288378344315
543,0.0614396920962703
544,0.0618408240265111
545,0.0614909119633802
546,0.0622156883043787
547,0.0622276142381202
548,0.0622395401718616
549,0.062251466105603
550,0.0623969378985638
551,0.0625412720018178
552,0.063260367502528
553,0.062756072906234
554,0.0626304353798323
555,0.0633659091226769
556,0.0624398735218023
557,0.0624265635127287
558,0.0620293924868886
559,0.0614875962263495
560,0.0624218959063519
561,0.0611854562071674
562,0.0621823065376261
563,0.0613086742032386
564,0.0615650136202903
565,0.0607028307721679
566,0.0602861518585852
567,0.0596819333310072
568,0.0599352772757728
569,0.0591367964787407
570,0.0590128785393424
571,0.0592459204334903
572,0.0589757906831492
573,0.0589048307773187
574,0.059211583022509
575,0.0583060121226556
576,0.0584260350899576
577,0.0585460580572595
578,0.0586660810245615
579,0.0587861039918634
580,0.0589061269591654
581,0.0596412067346191
582,0.0592264644911399
583,0.059443772440566
584,0.0584717263358619
585,0.0583285960856127
586,0.0567512473219391
587,0.055933199646486
588,0.0553893856490515
589,0.054845571651617
590,0.0543017576541825
591,0.0546083135736991
592,0.0550714366045236
593,0.0551183050861512
594,0.055913852300022
595,0.0559627077301726
596,0.0562827072368465
597,0.0564768383939111
598,0.056472999668487
599,0.0566041509998643
600,0.0569758452521845
601,0.0574401074200446
602,0.0576792455634568
603,0.0573361269944617
604,0.0578711693476718
605,0.0576142644971033
606,0.0578232892986293
607,0.057502574328853
608,0.0568016859947506
609,0.0565617508341813
610,0.0562631524764086
611,0.0557446819453063
612,0.0554100691647421
613,0.0550731051218484
614,0.0543757714992444
615,0.0551997817752116
616,0.0545103396316201
617,0.0549818488409764
618,0.0547669803315703
619,0.0551113387229114
620,0.0548887547562203
621,0.0551960963134279
622,0.0542908155559939
623,0.0541888890919312
624,0.0538442493225028
625,0.0534996095530743
626,0.0531549697836459
627,0.0533118470882204
628,0.0530290668702277
629,0.053057687730405
630,0.053353060258835
631,0.0528785585785076
632,0.0530997197896122
633,0.0534398118919389
634,0.0535514796818741
635,0.053818814917907
636,0.0533308702129624
637,0.0539612729721396
638,0.0535530671341289
639,0.0537228624346747
640,0.0534285964495571
641,0.0532632534680113
642,0.0527778069221866
643,0.0524348228976582
644,0.0520918388731297
645,0.0517488548486012
646,0.0519424232932965
647,0.0516825812363875
648,0.0508728532833113
649,0.0516973272165068
650,0.0511980936126703
651,0.0515903864398141
652,0.0509637123478185
653,0.050265370619011
654,0.0492599269521818
655,0.0498665878736346
656,0.0493651072472333
657,0.0500094026476567
658,0.0503816588912551
659,0.0515721713295728
660,0.0517645916666158
661,0.0521276812888832
662,0.0521806291973196
663,0.0521311436051643
664,0.051678893594271
665,0.051996389899636
666,0.0516563532456527
667,0.0518099443579801
668,0.051787049074718
669,0.0508061275203082
670,0.0513200964176388
671,0.0513673664107228
672,0.0511952731818079
673,0.0512043382040451
674,0.0515472071063848
675,0.0515435664677401
676,0.0515704238482691
677,0.0518450154787073
678,0.0513739881236464
679,0.0516411962400683
680,0.0528708799072813
681,0.0521122801759124
682,0.0510244221024611
683,0.0502106797485386
684,0.0486633754370637
685,0.0473968826623185
686,0.0466163751694159
687,0.0460422690875881
688,0.046133119491283
689,0.0468128916289109
690,0.0480615318767551
691,0.0498045856909185
692,0.0507656538840014
693,0.0520285894118516
694,0.0534238713332132
695,0.0543344363333265
696,0.0560026735500524
697,0.0572307037969929
698,0.0575703278121976
699,0.0585339953952038
700,0.0607805368803987
701,0.0612579000023434
702,0.0631965412676009
703,0.06449104842385
704,0.0664923249683089
705,0.0674973442315241
706,0.0695355022044969
707,0.071157962888702
708,0.072494676827289
709,0.0739917108235208
710,0.0744529294255352
711,0.0753885241612555
712,0.076575603360581
713,0.0747898800008966
714,0.0741591787461057
715,0.0714179101826785
716,0.0695468956117662
717,0.0682413325597962
718,0.0684204596669233
719,0.069902912841714
720,0.0715286637532776
721,0.0713637644203099
722,0.0743763089644104
723,0.0748911574987158
724,0.0753943233113238
725,0.0765266022411312
726,0.0768723661750219
727,0.0790318805117797
728,0.0807643660316564
729,0.0832324516575082
730,0.0855335731549402
731,0.0887880839956756
732,0.0916438749698384
733,0.0948180296020172
734,0.0971764604523618
735,0.0984784998849996
736,0.100479138613625
737,0.101553800898351
738,0.102628463183077
739,0.103703125467803
740,0.106051906452531
741,0.106964677062167
742,0.108024906137699
743,0.109085135213232
744,0.110145364288764
745,0.110746236412259
746,0.110807107391303
747,0.11220254948401
748,0.110847175319952
749,0.111741094829325
750,0.111798770426387
751,0.111556175280575
752,0.113765512510484
753,0.112981916602517
754,0.111300022377413
755,0.103933185334725
756,0.096566348292036
757,0.0891995112493473
758,0.0774671431100556
759,0.0671771939713579
760,0.0606192813801618
761,0.0596448462022142
762,0.0616967350282213
763,0.0668947004627349
764,0.0742563556273748
765,0.0814454249447543
766,0.0896809621264171
767,0.0978355814275663
768,0.102468944729341
769,0.105522364165859
770,0.109094900078124
771,0.110047362325664
772,0.111654788744519
773,0.112968062709216
774,0.112924444733843
775,0.112807125451386
776,0.113453363285613
777,0.112273785696812
778,0.113881752840263
779,0.11274150891973
780,0.114177856768865
