"wavelength","measurement"
380,0.0159542353699056
381,0.0156497576548386
382,0.0151675842886992
383,0.0149450852320661
384,0.0147946596135872
385,0.0156838970724413
386,0.0161013694050139
387,0.0172120048660724
388,0.0177761251820129
389,0.0184066275427601
390,0.0181204499025685
391,0.0181451964216876
392,0.0180840315110528
393,0.0182889789139166
394,0.0185291609856112
395,0.0199495349583288
396,0.0216346737719385
397,0.0240337974027199
398,0.0264329210335012
399,0.0288320446642826
400,0.0304659117385975
401,0.0321583899285331
402,0.033695942890447
403,0.0341503693875873
404,0.0344048282145552
405,0.0350133772463648
406,0.0355966079205519
407,0.0363679990468981
408,0.0371836526355753
409,0.0383644327304594
410,0.0403635037431514
411,0.0409562016147365
412,0.0428485169253648
413,0.0443569385625268
414,0.0451767249557231
415,0.0465403204439529
416,0.0471154994006546
417,0.0474629786550016
418,0.0495040325145245
419,0.0492077633976051
420,0.0508866446234019
421,0.0518641092331725
422,0.0525984806054025
423,0.0533773027419992
424,0.0545336651389397
425,0.0532203321749042
426,0.0534249300850299
427,0.0524176228898331
428,0.0515002048707747
429,0.0515167949948892
430,0.0517777552867692
431,0.0538079808610143
432,0.0557365610328087
433,0.0574523931305691
434,0.0600850596695298
435,0.0612185176234197
436,0.0619394769216925
437,0.0629231696302565
438,0.0639068623388205
439,0.0648905550473845
440,0.065227064970605
441,0.0658632623794956
442,0.0673484454607675
443,0.0675489418878039
444,0.0683911116713303
445,0.0692332814548567
446,0.0700754512383831
447,0.0706824941997363
448,0.0704265188558916
449,0.0729425653776162
450,0.072299024326835
451,0.071451156394456
452,0.0711617593580047
453,0.0708723623215535
454,0.0705829652851022
455,0.0701990272157701
456,0.0702714668736237
457,0.0713007073381049
458,0.0714633502451626
459,0.0724445517851323
460,0.0724534201691436
461,0.0716572652087068
462,0.0738355829591561
463,0.071847588980321
464,0.0708440777380454
465,0.0704053450771971
466,0.0694503752364826
467,0.0689955602359548
468,0.068623875574464
469,0.0679193365477728
470,0.0692895951683762
471,0.0691673855553506
472,0.0696646791740693
473,0.0705233257592645
474,0.070220665154542
475,0.071431923234998
476,0.0697894189390988
477,0.0696766948224432
478,0.0695639707057875
479,0.0694512465891318
480,0.0689797927124119
481,0.0672788608090753
482,0.0660154037060302
483,0.0657252296871278
484,0.0639326902916487
485,0.0625289609326351
486,0.0630745304518003
487,0.0635475148286141
488,0.0640777089458788
489,0.0658419996677131
490,0.0661915018860756
491,0.0667028128157374
492,0.0682751486368147
493,0.0672682112764364
494,0.0683896842275044
495,0.0674661828920684
496,0.0681358514309146
497,0.0665696826480842
498,0.0670445113312985
499,0.0654583177007246
500,0.0660871231511273
501,0.0655999845925579
502,0.0668921683289308
503,0.0671637732502688
504,0.0664423786512384
505,0.0685374811776692
506,0.0682963036292134
507,0.0686207932682273
508,0.0690189696129812
509,0.0690154078022821
510,0.0677399640319888
511,0.0687291731578753
512,0.0681733566720715
513,0.0662469785154706
514,0.0658006878091999
515,0.0648326819469002
516,0.0645701379624599
517,0.0643971754611055
518,0.0641271651537156
519,0.0653881602632857
520,0.0666999549183309
521,0.0675254153235334
522,0.0683508757287359
523,0.0691763361339384
524,0.0687366334955164
525,0.0690306192737364
526,0.069331081798497
527,0.068891011249595
528,0.0694322232314443
529,0.0702412962279843
530,0.0704355055561686
531,0.070540289264254
532,0.0703921650664205
533,0.0709796528065826
534,0.0713423736603794
535,0.070541760395339
536,0.0711848943102091
537,0.070764598006989
538,0.0702726856565272
539,0.0698052005182848
540,0.0703062865247955
541,0.0698170836917202
542,0.0695643477707462
543,0.0698614722843956
544,0.0703437693349405
545,0.0697726922646407
546,0.0702397765169927
547,0.0702255513223079
548,0.0702113261276231
549,0.0701971009329382
550,0.0700058864719147
551,0.0704079662088901
552,0.0708623299269546
553,0.0702418576631837
554,0.0701989451806548
555,0.0710056882692719
556,0.0700084715248223
557,0.0699989597990104
558,0.0695755396235344
559,0.0692128626151552
560,0.0698595371059036
561,0.0688341088892555
562,0.0699323993330059
563,0.0689421310920394
564,0.0694037126936788
565,0.0684286296898867
566,0.0680402718401611
567,0.0672189524133955
568,0.0677970985393762
569,0.0670655617727707
570,0.0670863889833621
571,0.0671933076913158
572,0.0671256780994462
573,0.0670574900914408
574,0.0675886132791845
575,0.0666446001726269
576,0.0668610945577236
577,0.0670775889428203
578,0.0672940833279169
579,0.0675105777130136
580,0.0677270720981103
581,0.0685787491070467
582,0.0681723265082154
583,0.0686853938064801
584,0.0676371774490077
585,0.0673535956458304
586,0.0658275526125204
587,0.0649695181134763
588,0.0644910544425629
589,0.0640125907716494
590,0.0635341271007359
591,0.0638606915536051
592,0.0645341221699555
593,0.0646740444545159
594,0.0656913769474479
595,0.0656561140635224
596,0.066140152970888
597,0.066461169798285
598,0.0666035681616446
599,0.0669017421868751
600,0.067407612317592
601,0.0679917427608027
602,0.0682803311604996
603,0.0681411213644786
604,0.0688064026469841
605,0.068579559154212
606,0.0686658589137844
607,0.0684173357961797
608,0.0677009402292971
609,0.0676430310048548
610,0.0672689012480412
611,0.0670126269969995
612,0.0665470573117445
613,0.0660332803300398
614,0.0655445178176403
615,0.0666740496941525
616,0.0658286268401225
617,0.0666488768155642
618,0.0664910635001146
619,0.0668486931981343
620,0.0667032833884875
621,0.0670393387047252
622,0.065955976357565
623,0.0658742362190163
624,0.0655290656066037
625,0.0651838949941911
626,0.0648387243817785
627,0.0648946895281759
628,0.0647053973365317
629,0.0646514179724612
630,0.0651234598860689
631,0.0645311960766202
632,0.0649201847618776
633,0.0652778726780266
634,0.0655348461951499
635,0.0662009008287548
636,0.0653086853812292
637,0.0662074296768337
638,0.0658293108854996
639,0.0661254257902929
640,0.0658032075456486
641,0.0656620555413415
642,0.0653959222926215
643,0.0650520153345284
644,0.0647081083764353
645,0.0643642014183422
646,0.0646490958654813
647,0.0645615691711874
648,0.0635659443927773
649,0.064825336792814
650,0.0640124623558296
651,0.0644125918847314
652,0.0637321096403521
653,0.0629317314859494
654,0.0618505012644967
655,0.062503994788984
656,0.0617419864514138
657,0.0626164957355035
658,0.0632496665932131
659,0.0649598186634865
660,0.0652828518478946
661,0.0657450370218271
662,0.065816131930184
663,0.0659153779921099
664,0.0653550740395578
665,0.065692115150726
666,0.0658047609861305
667,0.0662026586663663
668,0.0661700847895471
669,0.0648910624835932
670,0.0654918526153146
671,0.0654287331001314
672,0.0652492114533857
673,0.0654708826380744
674,0.0656715895524881
675,0.0657141884554475
676,0.0656305114991975
677,0.0661205773279032
678,0.0654624198788682
679,0.065681972124281
680,0.0672429038682898
681,0.0660335464469897
682,0.0650734665136488
683,0.0638041996457674
684,0.0616928295298023
685,0.0599999861207546
686,0.0587757882156314
687,0.0577248847990077
688,0.057393544820276
689,0.0579956506223529
690,0.0592529102363753
691,0.0606263214449531
692,0.0615798367696541
693,0.0623275600807595
694,0.0634189158523665
695,0.0638560910585261
696,0.0651350615860128
697,0.0659280968413972
698,0.0653369130740024
699,0.0659903733749288
700,0.067515113514275
701,0.0673868177214542
702,0.0688255045851444
703,0.0690874395416823
704,0.0708157828892549
705,0.0712573760658694
706,0.0726460749259652
707,0.0739005345079577
708,0.0742114192001845
709,0.0756033383163945
710,0.075324904678583
711,0.0757527739674893
712,0.0762505553393126
713,0.073947269885717
714,0.072757686885752
715,0.0698283105021951
716,0.0672696433823276
717,0.0656900349428051
718,0.0654682844384047
719,0.066337034626494
720,0.067559377480767
721,0.0673795525874447
722,0.0697004860341347
723,0.0697940400463919
724,0.0699497960671266
725,0.0707926436072111
726,0.0709873224298566
727,0.0725939882829024
728,0.0737774875415805
729,0.0760148915292865
730,0.0778704861578392
731,0.0805792463588442
732,0.0831412552112438
733,0.0861352055887264
734,0.0875755650955787
735,0.0888653182818302
736,0.0899164661120693
737,0.0910325977418674
738,0.0921487293716654
739,0.0932648610014635
740,0.0951575001496083
741,0.0958225322417834
742,0.0966402303570744
743,0.0974579284723654
744,0.0982756265876564
745,0.0991666831555069
746,0.0993424759109995
747,0.0999866208059823
748,0.0992720688067564
749,0.0997305873911889
750,0.100076024564225
751,0.0997419515388179
752,0.101332974388181
753,0.100784277285804
754,0.0991034279225418
755,0.0926883764315896
756,0.0862733249406374
757,0.0798582734496852
758,0.0694380066628103
759,0.0604711974539696
760,0.0540881916340887
761,0.0530192585580569
762,0.0551700326855897
763,0.0597787743728181
764,0.066079862823256
765,0.0725835492512509
766,0.0801651480703254
767,0.0871375316793856
768,0.0913222300177453
769,0.0945654125675432
770,0.0974233073344331
771,0.0979663284071699
772,0.0995463606155222
773,0.100952961509492
774,0.100171149384851
775,0.10076395342162
776,0.10111563095086
777,0.100166682667267
778,0.101377003642639
779,0.100261431052012
780,0.101858334295149
