"wavelength","measurement"
380,0.00120154668006941
381,0.00116150394114369
382,0.0012230355973715
383,0.00120998749768798
384,0.00127939609605019
385,0.00135401843630783
386,0.00144518569654487
387,0.00152220903051002
388,0.00161788434663646
389,0.00169004232496239
390,0.0016986119132311
391,0.0017079100818374
392,0.0017448279728291
393,0.00181475749295987
394,0.00189256024048137
395,0.00198304436126924
396,0.00221263190012969
397,0.00248423134816897
398,0.00275583079620824
399,0.00302743024424751
400,0.00316936210867179
401,0.00341130520616642
402,0.00359788602284601
403,0.00368423923989996
404,0.00373358724069257
405,0.00377344076147604
406,0.00388049949100875
407,0.00394065706977318
408,0.0039866841808603
409,0.00409564031098889
410,0.00432093036561741
411,0.00440724813494541
412,0.00451298463089236
413,0.00466559510215269
414,0.00468864406552554
415,0.00476246736110794
416,0.00475785902760692
417,0.00474908206276582
418,0.00481808928899449
419,0.00474559868894159
420,0.00488084863809065
421,0.00490172004511392
422,0.00500597265736674
423,0.00501220993510346
424,0.00507381521584999
425,0.00501515143045782
426,0.00498723100453183
427,0.00489036170552593
428,0.00470882084001651
429,0.00475201165537915
430,0.00478937687228625
431,0.00495138323225299
432,0.0051561574765551
433,0.00535172141381791
434,0.00561075799600721
435,0.00577093747050868
436,0.00584568405940758
437,0.00595847205260564
438,0.0060712600458037
439,0.00618404803900176
440,0.00623764777547068
441,0.00638365762526309
442,0.00655646671198057
443,0.00666411873267158
444,0.00680993192503961
445,0.00695574511740765
446,0.00710155830977568
447,0.00724430567373184
448,0.00730193106740253
449,0.00761730549536946
450,0.00762873043863082
451,0.00758412902547236
452,0.00760173236440878
453,0.00761933570334521
454,0.00763693904228163
455,0.00762264855960294
456,0.00761057378148003
457,0.00779851082041556
458,0.00780572446866166
459,0.00799715917707541
460,0.00800424112929237
461,0.00793577583006482
462,0.00822352578650454
463,0.00795463629769759
464,0.00789842971826919
465,0.0078912373740289
466,0.00776040867745367
467,0.00778918520166036
468,0.00776299508309996
469,0.00769994851646576
470,0.00786864887774209
471,0.00786091201103063
472,0.00792354064315401
473,0.0080558209898279
474,0.0081102356054729
475,0.00823726305768462
476,0.00807173165289826
477,0.00810022743264904
478,0.00812872321239981
479,0.00815721899215058
480,0.00813999115986679
481,0.00794127054747034
482,0.00782895515686466
483,0.00783286049819279
484,0.00763727661606108
485,0.0075033711534471
486,0.00758157045522318
487,0.00764428253235
488,0.0077164724413035
489,0.00795708360743426
490,0.00805695548532078
491,0.00812828417197119
492,0.0083636752614162
493,0.00828930532705689
494,0.00844646948821936
495,0.00837067114470043
496,0.00843841500813768
497,0.00831551781393149
498,0.00839608385804568
499,0.00822411677779602
500,0.00832484017361336
501,0.00827503859001752
502,0.00847538262510731
503,0.00849497912159365
504,0.00847858507344881
505,0.00879872363373018
506,0.00879891890759171
507,0.0088743750689045
508,0.0089571569364211
509,0.0089966164910362
510,0.00890572287430892
511,0.00908241667468881
512,0.00907132923936533
513,0.00886529156256294
514,0.00886165801628263
515,0.00874904277944979
516,0.00874701482149375
517,0.00878130965927916
518,0.00881481755814888
519,0.0089984528586235
520,0.00924406839709738
521,0.00940555198313064
522,0.00956703556916391
523,0.00972851915519717
524,0.0097366837913869
525,0.00983566378495524
526,0.00990795294833484
527,0.00989235504240164
528,0.00999807695463309
529,0.0101567877660012
530,0.0102092399781693
531,0.0102966091956369
532,0.0102753251787863
533,0.0104221908141447
534,0.0104726654699673
535,0.0104104292904427
536,0.0105316205272232
537,0.0104833213873791
538,0.0104410740230017
539,0.010400964725039
540,0.010475292575029
541,0.0104245551864586
542,0.0103812100297943
543,0.01046352208222
544,0.0105587037050748
545,0.0104924702703727
546,0.0106077318752043
547,0.0106091495690242
548,0.0106105672628442
549,0.0106119849566641
550,0.0105356697496795
551,0.0106453098244865
552,0.0107005607505984
553,0.0106526054379217
554,0.0106096963551418
555,0.0107292567516327
556,0.0105953893225135
557,0.0105859445154528
558,0.0105069063096346
559,0.0104341779432215
560,0.0105521164334343
561,0.0103737662103897
562,0.0105374274797046
563,0.0103886729493534
564,0.0104222177345698
565,0.0102657564014467
566,0.0102269085914686
567,0.0101015110259881
568,0.0101560013160216
569,0.00999816784083216
570,0.00997350833753602
571,0.00999760781496648
572,0.00996686508103169
573,0.00994256201253489
574,0.00999167932231868
575,0.00982573495344173
576,0.00984412529556044
577,0.00986251563767915
578,0.00988090597979786
579,0.00989929632191658
580,0.00991768666403529
581,0.0100008357039179
582,0.00993271261052843
583,0.00996909107954863
584,0.00981137978289856
585,0.00977441319953915
586,0.00949751589540854
587,0.00935604959255053
588,0.00924287003898371
589,0.00912969048541688
590,0.00901651093185006
591,0.00904068075238463
592,0.00911456565440376
593,0.00912004939403637
594,0.00925885485460866
595,0.00920945031431104
596,0.00926238055371806
597,0.00927655276094982
598,0.00929884721027346
599,0.00929513294103637
600,0.00934594967562539
601,0.00940142252574706
602,0.00944520663079171
603,0.00937461974383386
604,0.00943961845407522
605,0.00941627175161623
606,0.00936062392199593
607,0.00933719265094765
608,0.0091961660998971
609,0.0091649106929338
610,0.00907764177695558
611,0.00899751196987086
612,0.00892280239270269
613,0.00884746252710403
614,0.00871702179776833
615,0.00876706039641062
616,0.00868411436999841
617,0.00875766046780312
618,0.00872740867502967
619,0.00872376816321468
620,0.008666128579602
621,0.00871669658457286
622,0.00853628838904219
623,0.00849973416812898
624,0.0084263274260597
625,0.00835292068399042
626,0.00827951394192114
627,0.00826716418035302
628,0.00821928901321793
629,0.00819352763912162
630,0.00825415329110369
631,0.00812940284924133
632,0.0081623899397906
633,0.00818581644014648
634,0.00817398351236499
635,0.00818800555229199
636,0.00812269034979842
637,0.00815743092993638
638,0.00806290866164604
639,0.00807904712896209
640,0.00800877827670117
641,0.00797708499037113
642,0.00788911976838697
643,0.00780377003562616
644,0.00771842030286534
645,0.00763307057010452
646,0.00761708208585988
647,0.00758981493672697
648,0.00738758436570869
649,0.00753366355223366
650,0.00742651787652647
651,0.00748021108001035
652,0.00736629557304684
653,0.00722177507113388
654,0.00705257729742468
655,0.00709765690631839
656,0.0069799611085487
657,0.00702235718474277
658,0.00710459991503248
659,0.0072511050140785
660,0.00727936733144617
661,0.0073004106811802
662,0.00728638110105744
663,0.00719906471544583
664,0.00712900900596874
665,0.007126662104662
666,0.00709252550012798
667,0.00710544155439152
668,0.0070834809477409
669,0.00692440956799027
670,0.0069235171481818
671,0.00689499957772893
672,0.00684825078254041
673,0.0068584588676256
674,0.00686908672358313
675,0.00683804930497453
676,0.00679573556045873
677,0.00682685660248862
678,0.00673519169843914
679,0.00670318963534299
680,0.00686525433488708
681,0.00672378860313846
682,0.00660314736575786
683,0.00648678964248665
684,0.00625478932277738
685,0.0060955561710277
686,0.00596418115381689
687,0.00589466280517344
688,0.00581769729052281
689,0.00593588424619878
690,0.00608090827064779
691,0.0062637344108372
692,0.00640137478745909
693,0.00648257681302328
694,0.00669816618203675
695,0.00676765583106042
696,0.00698170793958248
697,0.00710325002799576
698,0.0070955456747621
699,0.00722644175713169
700,0.00743518446038798
701,0.00747130687560266
702,0.00767211786120077
703,0.00779298569583611
704,0.00800388515798459
705,0.00811459435535555
706,0.00828080116600095
707,0.00846515685932004
708,0.00855404314248663
709,0.00871812981953412
710,0.00871944024862346
711,0.00881584292695731
712,0.00894760871811074
713,0.0086920384228702
714,0.00857345950486161
715,0.0082300981931972
716,0.00791540602736118
717,0.00771631726578525
718,0.00769592993760206
719,0.00779792227552608
720,0.00792313112189504
721,0.00790201299753597
722,0.00819226097203662
723,0.00820550956619951
724,0.0082417448448313
725,0.0082886214224342
726,0.00828398856586975
727,0.00845651890005771
728,0.00857679793560238
729,0.00877133585934977
730,0.0090196022691525
731,0.00931588422242859
732,0.00958328686220502
733,0.00987443970121044
734,0.0100571405025275
735,0.0101566879683673
736,0.0102853368139152
737,0.0103648900785098
738,0.0104444433431044
739,0.0105239966076989
740,0.0106972151034412
741,0.0107524091524612
742,0.0108039880066229
743,0.0108555668607846
744,0.0109071457149462
745,0.0109769534016257
746,0.0109354854105056
747,0.0109586761154158
748,0.0107887432303595
749,0.0108517408795082
750,0.0108130250861277
751,0.0107583974337926
752,0.0108956361213993
753,0.0106383764809088
754,0.0106143236687499
755,0.00990691941527483
756,0.00919951516179976
757,0.00849211090832469
758,0.00740035352380881
759,0.00636511231065731
760,0.00563197393971904
761,0.00544240817933338
762,0.00564736938871441
763,0.00609196054347781
764,0.00666812704722104
765,0.00730334791239583
766,0.00806301510372546
767,0.00876427207193773
768,0.00913854229127188
769,0.0094499385994933
770,0.00965686531037805
771,0.00974588606168202
772,0.00985341352327393
773,0.00998035412465401
774,0.00986363872524226
775,0.00984513997613158
776,0.00986244785057531
777,0.00973070907509698
778,0.00978697947421566
779,0.0096633229371791
780,0.00972193970266477
