"wavelength","measurement"
380,0.0131427603813133
381,0.0127653860479159
382,0.012585898583449
383,0.0124425648750442
384,0.0125733765108198
385,0.0132386963951359
386,0.0136565008901188
387,0.0144140800253307
388,0.0149758378870648
389,0.0152204655304631
390,0.0150028510282027
391,0.0150614497269483
392,0.0152690853768289
393,0.0152226714938912
394,0.0158463123659429
395,0.0169173965484125
396,0.01882028516019
397,0.0208004571816168
398,0.0227806292030436
399,0.0247608012244704
400,0.0260347936379332
401,0.0271388387332135
402,0.0281226637344458
403,0.0284307475710005
404,0.0287330417987995
405,0.0284092098608997
406,0.0288741735743765
407,0.0293879079194466
408,0.0294456010220925
409,0.0300907749768133
410,0.0314191630569705
411,0.0315477690448669
412,0.0323866151220887
413,0.0328903384082513
414,0.0326340522795431
415,0.0328922244364556
416,0.0325492353571275
417,0.0322569943796845
418,0.0325539853275205
419,0.0321614802419175
420,0.0328965494586527
421,0.0326754088410184
422,0.0329306334563839
423,0.0329608522347901
424,0.0330708055456862
425,0.0323060376449336
426,0.0318590778247271
427,0.0308388676357843
428,0.0301418235885659
429,0.0299900446739398
430,0.0301408739285178
431,0.031285869522914
432,0.0325513784654142
433,0.033641427565706
434,0.0348292996390399
435,0.0354779582178655
436,0.0359146673001387
437,0.0363921681303236
438,0.0368696689605086
439,0.0373471697906936
440,0.0376617007601188
441,0.0382646104579678
442,0.0388774860750131
443,0.0393086069788266
444,0.0400083833109696
445,0.0407081596431126
446,0.0414079359752556
447,0.0420226766471672
448,0.0422723097036175
449,0.0435140174994403
450,0.0432182417891454
451,0.04281809426663
452,0.0427141839158003
453,0.0426102735649706
454,0.0425063632141409
455,0.0424790999299235
456,0.042737140555459
457,0.0429949436374818
458,0.043383885765986
459,0.0440597333605947
460,0.0441237812987791
461,0.0435585261143497
462,0.0445936224226043
463,0.0434964105103713
464,0.0428600866741449
465,0.0427559513125602
466,0.042157583964489
467,0.0421432898182276
468,0.0417498546676371
469,0.0416380502373995
470,0.0424890423479671
471,0.0423507411705861
472,0.042692337659372
473,0.0431010174230445
474,0.0432991957655543
475,0.0438258426351851
476,0.0428355238864832
477,0.0428634848281131
478,0.0428914457697431
479,0.0429194067113731
480,0.0428143133332297
481,0.0417265717339525
482,0.0409110792142545
483,0.0407946087091144
484,0.0399819916997693
485,0.0394222993884709
486,0.0399267219840568
487,0.0404584492786815
488,0.0408010226632576
489,0.0419552977693385
490,0.0419611268355575
491,0.0425249280195854
492,0.0433750735592656
493,0.0428066315479991
494,0.0434282707520903
495,0.0427066990791234
496,0.0428411473442988
497,0.0418669386349718
498,0.0422080070616463
499,0.0412940533224743
500,0.0415474675330734
501,0.0412726409943931
502,0.0419893973687396
503,0.042339163400022
504,0.0417812846345887
505,0.043136834025996
506,0.0428584735925609
507,0.0430382009293573
508,0.0432711011484844
509,0.0430354900007154
510,0.0424245477093072
511,0.0428380332549122
512,0.0423476984561484
513,0.0409934038756318
514,0.0407613870715254
515,0.040195951318934
516,0.0398903190068702
517,0.0399666636052275
518,0.0398218750079272
519,0.0406386550504467
520,0.0412641570405272
521,0.0416150294346826
522,0.0419659018288381
523,0.0423167742229936
524,0.0419888750530845
525,0.0419619439217859
526,0.0420357458912454
527,0.0417996463990134
528,0.0420056142309057
529,0.0423571832783999
530,0.0423524659582122
531,0.0422748976337358
532,0.0421675824034839
533,0.0425615826169171
534,0.0427512479707706
535,0.0421788966264334
536,0.0426369418829189
537,0.0422843824462868
538,0.0419368980469065
539,0.0416257433782696
540,0.041828438818769
541,0.0416804540625518
542,0.0413106217153587
543,0.0416153042182214
544,0.0417705599860587
545,0.0414010342724508
546,0.0417270157508829
547,0.0416493197857675
548,0.0415716238206521
549,0.0414939278555367
550,0.0414082250369056
551,0.0415258978170284
552,0.0419503709673029
553,0.0415274399792897
554,0.041200657008912
555,0.0416768477317783
556,0.0410448432404589
557,0.0409919235016227
558,0.0406550920064546
559,0.0404718821358658
560,0.0409331529670052
561,0.0399223647051862
562,0.0407035287823297
563,0.0399820685883632
564,0.0401477329857428
565,0.0395103143477817
566,0.039346412221389
567,0.0386280612218824
568,0.0390735204141675
569,0.0386792253779333
570,0.0385636155890736
571,0.0385531054012903
572,0.0385632169887217
573,0.038522960421695
574,0.0387123193622492
575,0.0381902920815299
576,0.0384233523086145
577,0.0386564125356992
578,0.0388894727627839
579,0.0391225329898685
580,0.0393555932169532
581,0.0398429058038324
582,0.0397328524899437
583,0.0400049696849775
584,0.0394365067733905
585,0.039350394385054
586,0.0383513179473905
587,0.0379810600104132
588,0.0376863506573099
589,0.0373916413042067
590,0.0370969319511034
591,0.037293086700279
592,0.0376110660416328
593,0.037663565313094
594,0.0383264943622596
595,0.0380593478267294
596,0.0384073300814803
597,0.0384963183719638
598,0.0384936800185462
599,0.0385449123832874
600,0.0387739847087146
601,0.0391038908082522
602,0.0392621857945926
603,0.0391873625845004
604,0.0395454434089113
605,0.0392087413346381
606,0.0392848869516257
607,0.0390868489369194
608,0.0385909113927224
609,0.0387017737205596
610,0.0384225678564373
611,0.0383044088845349
612,0.0379461042476288
613,0.0378920033495212
614,0.0374912599945179
615,0.0382076067037043
616,0.0376859975873507
617,0.0380662001478478
618,0.0380417738738421
619,0.0380812922107084
620,0.0379175225168669
621,0.0382763819962089
622,0.0374519163184005
623,0.0374207585329494
624,0.0370716392619563
625,0.0367225199909631
626,0.0363734007199699
627,0.0362899641659888
628,0.0361729130946151
629,0.0362940411488729
630,0.0366576139729483
631,0.0363457220595666
632,0.0366973534758327
633,0.0370037599865206
634,0.0372572238486567
635,0.0374723733338508
636,0.0371202085442884
637,0.0375509739451586
638,0.0374123178738965
639,0.0376547729643437
640,0.0376292735708405
641,0.0374912327057157
642,0.0372913014342852
643,0.0371152987613038
644,0.0369392960883225
645,0.0367632934153411
646,0.0369996206597947
647,0.0371760767028245
648,0.0365604986140556
649,0.0370602230583343
650,0.0368631545261321
651,0.0369395454265791
652,0.0364902888343104
653,0.0358143033655085
654,0.0354511174326109
655,0.0358882019604039
656,0.0358274526505085
657,0.0362356888858168
658,0.0364919810534505
659,0.0375615644198976
660,0.0377430842226202
661,0.0377133554136187
662,0.0379011083171561
663,0.0377330563476664
664,0.03763272752405
665,0.0377360364911503
666,0.0377178039067243
667,0.0378205800590246
668,0.0380216529541108
669,0.0372270493960678
670,0.037643110461817
671,0.0374781790985671
672,0.0374384627424133
673,0.0375127982981415
674,0.0376459005911481
675,0.037604705223281
676,0.0376438133096548
677,0.0380843841147654
678,0.0375479478227676
679,0.037539961570967
680,0.0383545984133615
681,0.037462851846762
682,0.0365061067391268
683,0.0354318797419461
684,0.0338534249141437
685,0.0326074897616196
686,0.0315959854830733
687,0.0311168070213645
688,0.031151070201719
689,0.0317388270943196
690,0.0323600829648389
691,0.0337094529425483
692,0.0342950349996329
693,0.0350003918209625
694,0.0357271662441598
695,0.0358020533395011
696,0.0366847824241461
697,0.0367406246768803
698,0.0365728692224164
699,0.0367338851897438
700,0.0376998607269093
701,0.0376734533799862
702,0.0382240406017298
703,0.0384056643826312
704,0.039260896251492
705,0.0393533320688554
706,0.0399284311535487
707,0.0405232029587737
708,0.0405888773294641
709,0.0411959197290291
710,0.0407741205214889
711,0.0407626601446416
712,0.0408240454385735
713,0.0392534223477351
714,0.0385601515166237
715,0.036694642102764
716,0.0354587121610281
717,0.0349218352304347
718,0.0347738736792854
719,0.0349873200601228
720,0.0357085046862157
721,0.035106088884649
722,0.0360809497773546
723,0.0359315497971442
724,0.0359389687581569
725,0.0362411603764392
726,0.036136734242727
727,0.0370116197199707
728,0.0374609305127845
729,0.0384326166172618
730,0.0393464884678767
731,0.0402273427699175
732,0.0413223740115234
733,0.0424707969115179
734,0.0430148053089509
735,0.0432780470862557
736,0.0438425697526341
737,0.0441149693040116
738,0.0443873688553891
739,0.0446597684067666
740,0.0452259656736335
741,0.0456542545299286
742,0.0459157660802093
743,0.04617727763049
744,0.0464387891807707
745,0.0465326485188257
746,0.0464380591379004
747,0.0466473199788655
748,0.046119931588001
749,0.0465792641927425
750,0.0465381415877823
751,0.0463931456097756
752,0.0469642487103519
753,0.0460932433232101
754,0.0449250522882153
755,0.0410650863422637
756,0.037205120396312
757,0.0333451544503604
758,0.0278172466749074
759,0.0233198999183157
760,0.0213508090815617
761,0.0210216763338313
762,0.0222281287993673
763,0.0250558449735225
764,0.0288638392529492
765,0.0322075166478393
766,0.0358138616320423
767,0.0393908124981358
768,0.0416260858184848
769,0.0431677354965742
770,0.0444596414468483
771,0.0450148944259411
772,0.0456289952971024
773,0.0462653780231189
774,0.0460210837080131
775,0.0463511514087155
776,0.0464850157888155
777,0.0457981123032166
778,0.0463768191125453
779,0.0459270887938666
780,0.0466265372618103
