"wavelength","measurement"
380,0.00773458439944132
381,0.00767801915018207
382,0.0079620666498248
383,0.00749354151998029
384,0.00784276784186849
385,0.00826248284171438
386,0.00871242348292963
387,0.00920677756243492
388,0.00983446406380121
389,0.0101043091956537
390,0.010054874889209
391,0.00995838415403471
392,0.0101227860519396
393,0.010435208649119
394,0.0108523732467519
395,0.0117073667051411
396,0.0131915581454747
397,0.0148603750074483
398,0.0165291918694219
399,0.0181980087313954
400,0.0190060140257766
401,0.0202183523069215
402,0.0211808803030174
403,0.02148738212325
404,0.0217289291212231
405,0.022131758944306
406,0.0227615745012715
407,0.0230472292985826
408,0.0236143302533704
409,0.024210983362814
410,0.025588740349582
411,0.0256392621002835
412,0.0265238934814945
413,0.0271774376696894
414,0.0269390270032192
415,0.0273915967562998
416,0.0272730409631647
417,0.0267531176625458
418,0.0275950657714933
419,0.0270674691882673
420,0.0277498471722907
421,0.0278105761086625
422,0.0278461039546625
423,0.0279891726848184
424,0.028136577836634
425,0.0273724924508756
426,0.0271057889816321
427,0.0263201055509245
428,0.0258081470058115
429,0.0257406205363809
430,0.025809718894429
431,0.0268033332103082
432,0.027844746411344
433,0.0287045611538186
434,0.0298808491498304
435,0.0304618312009167
436,0.0308118906475326
437,0.0312478155220527
438,0.0316837403965728
439,0.032119665271093
440,0.0323733687821284
441,0.032924231295031
442,0.0335199449514111
443,0.033951805912206
444,0.0345145675012663
445,0.0350773290903265
446,0.0356400906793867
447,0.0360077068468237
448,0.0361992525382061
449,0.037137160502615
450,0.0368805426981071
451,0.0366512224877944
452,0.036574020475255
453,0.0364968184627156
454,0.0364196164501762
455,0.0361630946153745
456,0.036561962450617
457,0.0366813951095659
458,0.0370343991496358
459,0.0373324238393494
460,0.0376892342763107
461,0.0371436617379828
462,0.0380163040631629
463,0.0371322596265558
464,0.03657072657885
465,0.0363267684339314
466,0.0360454570655384
467,0.0359460969242276
468,0.0356909114556975
469,0.0357070591661854
470,0.0364405607641503
471,0.0365016623505248
472,0.0367318126909652
473,0.0371811018976624
474,0.0374027427783798
475,0.0375546861253282
476,0.0372412210090742
477,0.0372102084520719
478,0.0371791958950695
479,0.0371481833380672
480,0.0372019243154243
481,0.0360613405324821
482,0.0354748356436285
483,0.0354438013648001
484,0.0347161777713049
485,0.0340901819313456
486,0.0346366989771994
487,0.0350478304114316
488,0.0354802576119527
489,0.0364055680455156
490,0.0363996565608493
491,0.0367682585982415
492,0.0376438536523409
493,0.0370546036086417
494,0.0374899069123481
495,0.0368883931254226
496,0.0369435301818307
497,0.0362716593309768
498,0.0365104080073857
499,0.0357159719193411
500,0.0359323191354316
501,0.0356537917947002
502,0.0362803272037317
503,0.0365670655670028
504,0.0361252414070189
505,0.0371733809374725
506,0.036943476221939
507,0.0369639892577531
508,0.037283957197198
509,0.0371451755064683
510,0.0364223741502581
511,0.0368074109156752
512,0.0364079365337827
513,0.035221162715113
514,0.0349331528485469
515,0.0344310807432766
516,0.034241497686383
517,0.0341586502254331
518,0.0339777486157635
519,0.0346877772103153
520,0.0351875230001844
521,0.0354379493816625
522,0.0356883757631406
523,0.0359388021446187
524,0.0357298114786313
525,0.0356487393115337
526,0.035565503678904
527,0.035459630044305
528,0.0355648247403573
529,0.0358618785277986
530,0.035958658163457
531,0.0358246940370224
532,0.0356689247715178
533,0.0359049904514986
534,0.0361798103323234
535,0.0356073767156103
536,0.0360109093615045
537,0.0356771480313008
538,0.0353064252289841
539,0.0351978128774926
540,0.0353332364923546
541,0.0350895214511732
542,0.0348501241422848
543,0.0349828908903461
544,0.0351584385142148
545,0.0348620855285873
546,0.0350562486305469
547,0.0349824572133949
548,0.0349086657962429
549,0.0348348743790909
550,0.03480898577658
551,0.0349885003451623
552,0.0351859620070613
553,0.0347415440431688
554,0.0346763071286883
555,0.0350080015517178
556,0.0343925876935778
557,0.0344793469799997
558,0.0341275950124082
559,0.0338705248756318
560,0.0340860840429407
561,0.0334764743327791
562,0.0340592004418183
563,0.033479385501229
564,0.0335004924362664
565,0.0330087632252917
566,0.0327911183950951
567,0.0323395540521205
568,0.0325227899912576
569,0.0321982217946783
570,0.0322396335160746
571,0.0321374393613977
572,0.0322209976385396
573,0.0321381767100052
574,0.0323604873653027
575,0.0319860734390868
576,0.0321913347197877
577,0.0323965960004886
578,0.0326018572811894
579,0.0328071185618903
580,0.0330123798425912
581,0.0334636622700239
582,0.0333829299917372
583,0.033515189868912
584,0.0331108359574215
585,0.0330816909803159
586,0.0323458181921857
587,0.0320408053658777
588,0.0317761919364072
589,0.0315115785069367
590,0.0312469650774662
591,0.0315753002758967
592,0.0317468063141735
593,0.0318262228857197
594,0.0323067327974477
595,0.0321792947943379
596,0.0324387238578937
597,0.0325387638921264
598,0.0325616004619346
599,0.0325511309350243
600,0.0328527582087635
601,0.0331005707906714
602,0.0332246154906792
603,0.0330072055138809
604,0.0333731542898414
605,0.0330508603950093
606,0.0333004113362879
607,0.0330992867114594
608,0.0328040310409599
609,0.032878802628572
610,0.0325331035554324
611,0.0324606840028508
612,0.0322097544147953
613,0.0320302834902387
614,0.031897537065627
615,0.0323645456663835
616,0.0318858372487523
617,0.0322537102783554
618,0.0322327597284203
619,0.0324210771475211
620,0.0323025064522829
621,0.0325276450077351
622,0.0319422192157872
623,0.0318744350511264
624,0.0315839167090496
625,0.0312933983669728
626,0.031002880024896
627,0.0308090952868156
628,0.0309519470200682
629,0.0307574808559418
630,0.0312329873651615
631,0.0309053070542186
632,0.0312858217755489
633,0.0313904721892719
634,0.0317118386570488
635,0.0319674093816242
636,0.0316031850327123
637,0.0320134686918241
638,0.0318810499001052
639,0.0321404694634054
640,0.0320569413119352
641,0.0321022532285442
642,0.0319042230545688
643,0.0317523577072266
644,0.0316004923598845
645,0.0314486270125423
646,0.031643668828541
647,0.0316652267975688
648,0.0310816638740591
649,0.0317711249268122
650,0.0314429673863791
651,0.0316359951059104
652,0.0312660133375834
653,0.0308530801522374
654,0.0303252915009376
655,0.0307881993131267
656,0.0305851102809247
657,0.0310708937034341
658,0.0312236438411115
659,0.0320542458742943
660,0.0322686011478602
661,0.0324039222721338
662,0.0324876522702067
663,0.0323890866715669
664,0.0321895606148256
665,0.0323630879096432
666,0.0322928009790815
667,0.0324664776120529
668,0.0325463585646397
669,0.0320383634931148
670,0.0323746358824522
671,0.032353376942004
672,0.0321796466607153
673,0.0322091111333556
674,0.0324565109208331
675,0.0323109473397786
676,0.0324431240640027
677,0.0327438868096598
678,0.0322200317753328
679,0.0322680765852161
680,0.0331681708421325
681,0.0325689690895979
682,0.0313263217211326
683,0.0306544835917491
684,0.0292410595102695
685,0.0282060419838164
686,0.0273723538927012
687,0.0269251572942619
688,0.0270892520887888
689,0.0273745527761783
690,0.0282163594334044
691,0.0292134098803616
692,0.0297498594369513
693,0.0304267962513743
694,0.0310184230712859
695,0.0311298018542122
696,0.0318449712412942
697,0.0320995514249791
698,0.0317468268778636
699,0.0320702410049837
700,0.032883334368806
701,0.0327320292958615
702,0.0334586897078159
703,0.0335288820150673
704,0.0343302030305796
705,0.0342543183476064
706,0.0351648567914889
707,0.0356105653247302
708,0.035652598706507
709,0.0360174295403935
710,0.0358190355243008
711,0.0358393130513965
712,0.0358424649024242
713,0.0347704230849064
714,0.033991147292455
715,0.0324250585098314
716,0.0314948269837741
717,0.0309759299715227
718,0.0309225920808321
719,0.0311908230554565
720,0.0316803014838336
721,0.0314147471046411
722,0.0321514274212779
723,0.03226306889377
724,0.0321739112469396
725,0.0324475733190968
726,0.0325714227788834
727,0.0332733240212974
728,0.0337266245034809
729,0.0345613610506455
730,0.0354195503167877
731,0.0365214834319293
732,0.0371883605019181
733,0.0383017039114008
734,0.0389470772312082
735,0.0392549124338335
736,0.0397639381241973
737,0.0400107307898887
738,0.0402575234555802
739,0.0405043161212717
740,0.0412699690569681
741,0.0414277661931085
742,0.041722780860342
743,0.0420177955275755
744,0.042312810194809
745,0.0424830414772283
746,0.0425469333178843
747,0.0427678238773141
748,0.042385961306574
749,0.0427318287573068
750,0.0429118159128717
751,0.042589078021954
752,0.0431048156568721
753,0.0428379457835473
754,0.0414478106475699
755,0.0379022485067694
756,0.0343566863659688
757,0.0308111242251682
758,0.0258191759209734
759,0.0216596981194804
760,0.0199789518921234
761,0.0194775664559346
762,0.0206951415534192
763,0.0234332090124443
764,0.0267162247948214
765,0.0300930269491645
766,0.0334777145499935
767,0.0368971297241966
768,0.0387590474936597
769,0.0405360094880038
770,0.0416565927782082
771,0.0421729378577514
772,0.042710546974452
773,0.0432594346110312
774,0.0431481670003552
775,0.0431496193624654
776,0.0434949338884687
777,0.0428839665703953
778,0.0436431370376268
779,0.043178020019084
780,0.0438871702546753
