"wavelength","measurement"
380,0.0132975821528347
381,0.0129176438197993
382,0.0127098191111585
383,0.0125891287285058
384,0.01263089982793
385,0.0134190838396317
386,0.0141522332725879
387,0.0146885296533284
388,0.0154466097346617
389,0.0155908338375579
390,0.0156495399222499
391,0.0154873844999342
392,0.0156180978024694
393,0.0158797161262427
394,0.0162814775494372
395,0.0174627263380953
396,0.0194419904032725
397,0.0216004522830579
398,0.0237589141628433
399,0.0259173760426287
400,0.0268142817970131
401,0.0282871452156835
402,0.0292593680408913
403,0.0295129787663935
404,0.0298454288242058
405,0.0299478873877955
406,0.0304715838693465
407,0.0307101916074295
408,0.0311053263197699
409,0.0316824400438991
410,0.0331533647127506
411,0.0334162743413715
412,0.0340021065975399
413,0.0346824145031673
414,0.0346335396174242
415,0.0349280724264483
416,0.0346207482039252
417,0.0340815101086277
418,0.0350256469568632
419,0.0340831191740008
420,0.0349983227838012
421,0.0348816625496654
422,0.0352810599784589
423,0.0353692209771338
424,0.0352989603710887
425,0.0346181606794387
426,0.0341427376459937
427,0.0332664131778554
428,0.0323086188258259
429,0.0321734016745602
430,0.032408659671326
431,0.0336907045112285
432,0.034992773860994
433,0.0363139258432267
434,0.0376427015230021
435,0.0382980979380827
436,0.0386001324204105
437,0.0392359741539345
438,0.0398718158874585
439,0.0405076576209825
440,0.0406548490229909
441,0.0411897281689792
442,0.0421561099538572
443,0.0424488182998891
444,0.0431540202610753
445,0.0438592222222615
446,0.0445644241834477
447,0.0452760009096091
448,0.0454726934697285
449,0.0469152753086613
450,0.0464712179026938
451,0.04606808325616
452,0.0459141149165791
453,0.0457601465769983
454,0.0456061782374175
455,0.0454553450126449
456,0.0461379456844453
457,0.0462068454503397
458,0.0467914024359171
459,0.0472696611108584
460,0.0474142193600761
461,0.0467375747909024
462,0.0479967376002904
463,0.0464914006015214
464,0.0460462990825904
465,0.0456937700811499
466,0.0454441259924044
467,0.0452817213880365
468,0.0449388426341705
469,0.0446813266549388
470,0.0456087248351425
471,0.0456739439165066
472,0.0458020926765221
473,0.0464804643317331
474,0.0466196055855674
475,0.0473131492507422
476,0.0463392940858111
477,0.0462821572708254
478,0.0462250204558396
479,0.0461678836408538
480,0.0461357093420751
481,0.0449443493595563
482,0.0441230723927488
483,0.043921349230714
484,0.0430486213706072
485,0.0423928111237457
486,0.0429961496004563
487,0.043292346776819
488,0.043857525758983
489,0.0450892713992056
490,0.0453187121849691
491,0.0457317831682493
492,0.0466682797164225
493,0.0460675194026386
494,0.0467802482892143
495,0.0459431389253368
496,0.0461876807512678
497,0.0451137926623358
498,0.0453344243607904
499,0.044522498276983
500,0.0448726360064069
501,0.044562740840209
502,0.0452498455363323
503,0.0455641290052897
504,0.0450695634776659
505,0.0464759999357622
506,0.0461060255270362
507,0.0462063056703312
508,0.0464727087431383
509,0.0465099499632151
510,0.0455561945698595
511,0.0458803111253165
512,0.0454406911672751
513,0.0439982021938633
514,0.0438313589753101
515,0.0430276242143908
516,0.0428421960842594
517,0.0427723093745837
518,0.0426924267613073
519,0.0434786290131671
520,0.0443073065050484
521,0.0446179668473218
522,0.0449286271895951
523,0.0452392875318684
524,0.044951053803217
525,0.0449306211077848
526,0.0449848349442634
527,0.0447951141389665
528,0.0448721414261125
529,0.0453418492648234
530,0.0452567104854855
531,0.0451874284621607
532,0.0449750623564351
533,0.0455183680261872
534,0.0455385021260174
535,0.0449660685093042
536,0.0454697872946505
537,0.0450842437859808
538,0.0448018552881062
539,0.0444576847914355
540,0.0447262157897803
541,0.0443502917276593
542,0.0440693825829209
543,0.0442854350250906
544,0.0444773029018272
545,0.0441362750955623
546,0.0444076973762364
547,0.0443719553559658
548,0.0443362133356952
549,0.0443004713154246
550,0.0440327360299321
551,0.0442949748160332
552,0.044752924183685
553,0.0441410832587484
554,0.04407377823883
555,0.0444613021507416
556,0.0437351838250396
557,0.0437340252354897
558,0.043418741172386
559,0.0430897833162679
560,0.0436772271446853
561,0.0426168640284775
562,0.0433903050190818
563,0.0426682867742598
564,0.042766316002058
565,0.0420723429235474
566,0.0419304600011598
567,0.0412535563869348
568,0.0417233325455773
569,0.0411580406191954
570,0.0411132095364453
571,0.0412279699359491
572,0.0409932271345066
573,0.0410492593665542
574,0.041280525573454
575,0.0407949673563478
576,0.041043765531798
577,0.0412925637072483
578,0.0415413618826986
579,0.0417901600581489
580,0.0420389582335991
581,0.0425393698626127
582,0.0425142611984585
583,0.0427424961406642
584,0.0421395292435832
585,0.0420361196295738
586,0.0409970494831166
587,0.0406630457489044
588,0.0403120054757388
589,0.0399609652025731
590,0.0396099249294075
591,0.0399523625481775
592,0.0401413492242738
593,0.0402688094759944
594,0.0408480082562692
595,0.0408007678260256
596,0.0409978729881475
597,0.0412194165563468
598,0.0411082848119016
599,0.0411809138202365
600,0.0415594821026228
601,0.0418197033171585
602,0.0420223360238092
603,0.0418553840765201
604,0.0422231482934533
605,0.0419240620976536
606,0.0420500881892435
607,0.0418592573018891
608,0.0414301830442267
609,0.0413682350822969
610,0.041182781427799
611,0.0408623623446093
612,0.0405819318407474
613,0.0405478833528699
614,0.0403282952157497
615,0.0409495414356403
616,0.0403281992483912
617,0.0408245568375571
618,0.0407097086859721
619,0.0407955004798312
620,0.040703599922594
621,0.0410279092806657
622,0.0400803357674654
623,0.0400740520052406
624,0.0397367002769711
625,0.0393993485487017
626,0.0390619968204323
627,0.038838795388034
628,0.0387930798876765
629,0.0387449064489429
630,0.0392589583260314
631,0.038906947362877
632,0.0393711595278147
633,0.0396381141076742
634,0.039927364114532
635,0.0402098857154031
636,0.0398150047447048
637,0.0403314261951174
638,0.0401310125884108
639,0.0403800261189189
640,0.0403098611102787
641,0.0402457599554816
642,0.0400452124947966
643,0.0398437968384315
644,0.0396423811820665
645,0.0394409655257015
646,0.0397558825935572
647,0.0397684195053805
648,0.0391103673543311
649,0.0397670756060304
650,0.0393709045347232
651,0.0396783050355345
652,0.039178902913329
653,0.038714875358339
654,0.0380740427536877
655,0.0385755614393477
656,0.0384800326058065
657,0.0388267569929845
658,0.039252908797973
659,0.0400800483921873
660,0.0404820678578485
661,0.0406192044230949
662,0.0407020547745108
663,0.0405230108647103
664,0.0403766379251077
665,0.0403499800998843
666,0.0404488099180782
667,0.0407592061005916
668,0.0408442339219154
669,0.0401368210816884
670,0.0403803936861003
671,0.040388406391851
672,0.04020838757276
673,0.0403703979522936
674,0.040392421036748
675,0.0405426433230392
676,0.0403835259926336
677,0.0407447971987519
678,0.0404746360034448
679,0.0402659362848385
680,0.0412522171982424
681,0.040382477309003
682,0.039023342264104
683,0.038089444294517
684,0.0363467141932989
685,0.0349961655394363
686,0.0338666260753733
687,0.0333914211530614
688,0.0334581933387426
689,0.0338245712456551
690,0.0349138393517577
691,0.0360690016063165
692,0.0367301363975467
693,0.037342690563041
694,0.0380883491273372
695,0.0382820590941697
696,0.0390166742871345
697,0.0391874073001216
698,0.0389850087519
699,0.0392119424850587
700,0.0401125700491832
701,0.0398858586702696
702,0.0408008383303404
703,0.0408944442113737
704,0.0416808673813781
705,0.0417819414035273
706,0.042569610053742
707,0.0430203718762888
708,0.043016775927226
709,0.0435314461469623
710,0.0432217300390592
711,0.0432716160983076
712,0.0431643442200679
713,0.0414660126987418
714,0.0407149043151966
715,0.0388811970741336
716,0.0374728682321218
717,0.0366235983946119
718,0.036413234217726
719,0.0368963609990363
720,0.0373714281949496
721,0.0369782314710787
722,0.0378960067037137
723,0.037920956190788
724,0.0379247650302631
725,0.0381904681717641
726,0.0381659755166063
727,0.0389317447210754
728,0.0395990894371173
729,0.0405366697795909
730,0.0413189474108336
731,0.0426745930808814
732,0.0435432461212482
733,0.0446450792606463
734,0.0451802160100496
735,0.0454202997042092
736,0.0461344515086016
737,0.0464450403921172
738,0.0467556292756328
739,0.0470662181591483
740,0.0476255471640919
741,0.0480040045999036
742,0.0482416051665469
743,0.0484792057331902
744,0.0487168062998335
745,0.0488416515579354
746,0.0487066122429334
747,0.0490387687465147
748,0.0485034359079795
749,0.0487494541052139
750,0.0489369276153053
751,0.0487344392939711
752,0.0491687628234124
753,0.0486528219349879
754,0.0472566977153892
755,0.0431861674406689
756,0.0391156371659485
757,0.0350451068912282
758,0.0292480011576982
759,0.024660416172602
760,0.0225256225432072
761,0.022056091545529
762,0.0234402567471167
763,0.0265615928051023
764,0.0302299827236505
765,0.0337804683030106
766,0.0378445800089005
767,0.0414974010013565
768,0.0440650012643826
769,0.0456229873888237
770,0.0467317048071035
771,0.0474465880086919
772,0.0480876211131775
773,0.0488324266477176
774,0.0484369583033258
775,0.0487510782622391
776,0.048807063901676
777,0.0484263394170679
778,0.0491983864140852
779,0.0485792002193851
780,0.0491470642291733
