"wavelength","measurement"
380,0.0155753764211845
381,0.0150418367323623
382,0.0147971805517414
383,0.0146697553467057
384,0.0148354253207456
385,0.0153517199602668
386,0.0161063355454011
387,0.0164835142912305
388,0.0172445776263488
389,0.0172854266995332
390,0.0172525754269892
391,0.0169909172370303
392,0.0169726053493552
393,0.0167720099949423
394,0.0173974850238529
395,0.018361851222546
396,0.0202504783289503
397,0.0221240259460321
398,0.0239975735631139
399,0.0258711211801958
400,0.02703047878997
401,0.0279430603682328
402,0.0285692247819571
403,0.0286950158857892
404,0.0286627262139085
405,0.0285585626337053
406,0.0285237186031004
407,0.0285882950714328
408,0.0285741893551971
409,0.0290107747569206
410,0.0300314549501486
411,0.0297715378540012
412,0.0305289698257462
413,0.0306500468161683
414,0.0306024053881163
415,0.0305117882876349
416,0.0301446931467311
417,0.0295793125243854
418,0.0301723887937481
419,0.0295556673900737
420,0.030178328993592
421,0.0300615481580585
422,0.0298811137296921
423,0.0300830975547678
424,0.0303732848508916
425,0.0295591070102635
426,0.0290165838745249
427,0.027910673642139
428,0.0272934996397762
429,0.0272497394630257
430,0.0273002702828337
431,0.0282140685335623
432,0.0293889177227455
433,0.0305009018418002
434,0.0315505570946869
435,0.0320126931504825
436,0.0323417110228906
437,0.0327545172727082
438,0.0331673235225259
439,0.0335801297723436
440,0.033834058701876
441,0.0344103356934967
442,0.0350685224713142
443,0.0354531343976313
444,0.0360331290573487
445,0.0366131237170662
446,0.0371931183767837
447,0.0376364215300364
448,0.0377771655598974
449,0.0389871124966411
450,0.0387435541091691
451,0.0384274222003284
452,0.0382714380151375
453,0.0381154538299466
454,0.0379594696447556
455,0.0380812409632764
456,0.0379846155431146
457,0.0387120189287043
458,0.0388921853453481
459,0.0393355442001334
460,0.03954217911822
461,0.0389162376724094
462,0.0400291920677405
463,0.0388439406262748
464,0.0383196126537663
465,0.0379652458921301
466,0.037701481159625
467,0.0374797354504601
468,0.0371489657662289
469,0.0369216468856459
470,0.037566277633688
471,0.0375656130842784
472,0.0377678136517791
473,0.0382229462452892
474,0.0381946436474832
475,0.0386995613731005
476,0.0378784342366996
477,0.0377736839477738
478,0.0376689336588479
479,0.0375641833699221
480,0.0375317918521752
481,0.036678298286035
482,0.0358188608652659
483,0.035787734801729
484,0.0350818357761605
485,0.0344449591496929
486,0.0349261178985874
487,0.0353141071863015
488,0.0356869067272788
489,0.0365895467418345
490,0.0367815052974709
491,0.037047499298431
492,0.0378234924965253
493,0.0373819254785982
494,0.0379767073858252
495,0.0373329189363897
496,0.037535193573576
497,0.0367844525468678
498,0.0369788632883663
499,0.0361178474336405
500,0.0363807973883179
501,0.0361279245842868
502,0.0368606362517181
503,0.037039348440011
504,0.0365251151214677
505,0.0378140359575884
506,0.0374878330397567
507,0.0375900064226292
508,0.0379648666394669
509,0.0377423566121194
510,0.0371480714595328
511,0.0375296464189683
512,0.0371049108017437
513,0.0359637714504855
514,0.0358114468903147
515,0.0352225039845098
516,0.0350415194753137
517,0.0351428076711594
518,0.0350189668296188
519,0.0356976610628953
520,0.0363948074657953
521,0.0366630305059771
522,0.036931253546159
523,0.0371994765863409
524,0.0370043104821884
525,0.0370218482967777
526,0.0370430960574605
527,0.0368502302626196
528,0.0370843655034182
529,0.0373695867339205
530,0.0374164129646484
531,0.037439910426281
532,0.0373528083532509
533,0.0376295722547976
534,0.0376777455080985
535,0.0373075257359793
536,0.0378039385594136
537,0.0375224527010684
538,0.0371891830173454
539,0.0369836233793061
540,0.0372220848785563
541,0.0370299306306322
542,0.0368228329149609
543,0.0369640321508491
544,0.0371478483612054
545,0.0368356915181291
546,0.0370536215058846
547,0.0370534093101194
548,0.0370531971143542
549,0.0370529849185891
550,0.0368997551821282
551,0.0371415142885291
552,0.0374519702593636
553,0.0371120348692209
554,0.0369279511740633
555,0.0373153911640168
556,0.0367420609762995
557,0.0368495597780535
558,0.0364982936555638
559,0.0362886943852688
560,0.0367523982816293
561,0.0360131400984898
562,0.0367050668296764
563,0.0361011424017773
564,0.0362390324238633
565,0.0357547097359711
566,0.0354744322284624
567,0.0349694797647364
568,0.0352382609901939
569,0.0349541276608185
570,0.0347716272942637
571,0.0348945239441443
572,0.034879228715901
573,0.0348066591711489
574,0.0350453625459766
575,0.0345761795702718
576,0.0347938478524498
577,0.0350115161346278
578,0.0352291844168058
579,0.0354468526989838
580,0.0356645209811617
581,0.0360125125103011
582,0.0360157277403997
583,0.0361493099449189
584,0.0355521368637224
585,0.03548968135569
586,0.0347735891191317
587,0.0343096020234814
588,0.0340357951960793
589,0.0337619883686772
590,0.033488181541275
591,0.0336414675528427
592,0.0338435581261249
593,0.0338699300202882
594,0.034479818247633
595,0.0344030122759413
596,0.0345515580461038
597,0.0346892076410102
598,0.0347085417381281
599,0.034722379762009
600,0.0348818102744526
601,0.0351703542652307
602,0.0353286492515712
603,0.0351156092210317
604,0.03551516444952
605,0.03511183381996
606,0.035393854186429
607,0.0351289068781413
608,0.0348645784271107
609,0.0348139226560367
610,0.0345581490815827
611,0.0343853490795793
612,0.0341568110404485
613,0.0341733438972993
614,0.033714113397557
615,0.0343473990032709
616,0.0339513547682145
617,0.0341546734871345
618,0.0341344957193227
619,0.0342638596684513
620,0.0341991438029398
621,0.0345340001580808
622,0.0336747135737806
623,0.0335971029584921
624,0.0333167146606818
625,0.0330363263628715
626,0.0327559380650612
627,0.0326934024771241
628,0.0325856017325623
629,0.0326732189923704
630,0.0331099802898864
631,0.0327060810793729
632,0.0330648245324392
633,0.0333360826086248
634,0.0335690712911307
635,0.0337441687796074
636,0.0334601485321234
637,0.0339110147948975
638,0.0337435549745943
639,0.0339894537881237
640,0.0338387076833906
641,0.0338554097663305
642,0.0336723742612723
643,0.0335065483514755
644,0.0333407224416787
645,0.0331748965318819
646,0.0334859001627383
647,0.0335121612180783
648,0.0330380939457483
649,0.033551892736537
650,0.0332423042958002
651,0.0334436798850686
652,0.0330445070045829
653,0.0325057323773386
654,0.0321186790104159
655,0.0324346343219687
656,0.0323507896083587
657,0.0326970762599594
658,0.033016515828025
659,0.0339076993661034
660,0.0339722448793479
661,0.0342776052989568
662,0.0342941827062435
663,0.0340975890101213
664,0.0340146472448929
665,0.0339873006096178
666,0.0342288445272646
667,0.0341687363209525
668,0.0343817873832813
669,0.033701537890632
670,0.0341276119555605
671,0.0339860941660925
672,0.0338587874619776
673,0.0339462428540136
674,0.034075424168837
675,0.0341615061858651
676,0.0341409667425482
677,0.0344662664038356
678,0.0341067701010738
679,0.0339382764082231
680,0.0347557206335651
681,0.0340078992327393
682,0.0329351530617145
683,0.0321345897542535
684,0.0306907395808392
685,0.0295797834004296
686,0.0287362916333463
687,0.0282111282389579
688,0.0282748502243746
689,0.0287193557231089
690,0.0293852864142656
691,0.0305156056585269
692,0.0310541921250708
693,0.0314030113120714
694,0.0321866071661256
695,0.0322847768240445
696,0.0328841848216306
697,0.0331506182271978
698,0.0328339030335411
699,0.0330339416238384
700,0.0338873411048102
701,0.0337987034358848
702,0.0343959867939881
703,0.034603195191484
704,0.0352382533737178
705,0.0352233910148288
706,0.0359615990487702
707,0.0362975301462383
708,0.0364620992602249
709,0.0368841164076653
710,0.0365203738794788
711,0.036582990980672
712,0.0364951357971163
713,0.0351719741551545
714,0.0344771311895925
715,0.0329128726818829
716,0.0317603594454596
717,0.0311707037154537
718,0.0310728445919736
719,0.0315075688967308
720,0.0319668246938245
721,0.031542958447717
722,0.0322871647574584
723,0.032144689655185
724,0.0322714270704369
725,0.0323671964995631
726,0.0324518008176474
727,0.0329838674052321
728,0.0337574870761378
729,0.0343744135554863
730,0.0350674005157941
731,0.036212017803693
732,0.0369965712071948
733,0.038100506445415
734,0.0385432057502169
735,0.0388498683837759
736,0.0393558103259837
737,0.0396028498514024
738,0.0398498893768211
739,0.0400969289022397
740,0.0408254490511295
741,0.0410240004028897
742,0.0412642007972847
743,0.0415044011916798
744,0.0417446015860748
745,0.0414626272110086
746,0.0415589679443408
747,0.0419296065150698
748,0.0413949937920871
749,0.0417150427708613
750,0.0415849822741252
751,0.0415141012059317
752,0.0420232547228005
753,0.0417604407773991
754,0.0401550840698239
755,0.0367357088036486
756,0.0333163335374733
757,0.029896958271298
758,0.025183247698271
759,0.0208924962527837
760,0.0193577917794921
761,0.0189128076954627
762,0.0199981122288721
763,0.0224471779490154
764,0.0257249230952667
765,0.0287335861250917
766,0.0322188018930545
767,0.0352125844574126
768,0.0371623469320037
769,0.0386742383508499
770,0.0397894289025237
771,0.040216440628576
772,0.0407374861129717
773,0.0414584646451387
774,0.0411397372501523
775,0.0414088660250083
776,0.0416835487337534
777,0.0411956512673576
778,0.041641100966113
779,0.0411790181624655
780,0.0417809568627004
