"wavelength","measurement"
380,0.00121018846140921
381,0.00125625966677396
382,0.00122276169593428
383,0.00116202962816919
384,0.00126931158837964
385,0.0013496801976499
386,0.00140036295065727
387,0.00153647396590193
388,0.00162090801771317
389,0.00171298478685099
390,0.00167529830932145
391,0.00169988524272286
392,0.00171366116186891
393,0.00177563968848436
394,0.00187214356510142
395,0.00194360266120871
396,0.00218262465114956
397,0.00243964169863278
398,0.002696658746116
399,0.00295367579359922
400,0.00313054615950787
401,0.00330379730383737
402,0.00348178414485119
403,0.00355366691541205
404,0.00360183873168505
405,0.0035723476779653
406,0.00363157762776798
407,0.00369582993624358
408,0.00375278760464062
409,0.00386537791127387
410,0.00404594334509273
411,0.00406499621579413
412,0.0042234773212196
413,0.00431690899002539
414,0.00431089748798396
415,0.00436041441946571
416,0.00435552631921918
417,0.00434658892946357
418,0.00438292796793128
419,0.00431331410349436
420,0.00446483930989464
421,0.00442989589830255
422,0.00448883013419675
423,0.0045292548185026
424,0.00457866564993911
425,0.00451543003829059
426,0.00447252462829273
427,0.00436239698926436
428,0.00421496305433011
429,0.00425957278206006
430,0.0042593116486737
431,0.00440281685377343
432,0.00459218842572587
433,0.00473427445235533
434,0.00493234617567856
435,0.00510335991934929
436,0.00516276230144218
437,0.00525632605860383
438,0.00534988981576548
439,0.00544345357292713
440,0.00548635500454979
441,0.00562254815413485
442,0.00574325883690718
443,0.00586691086575325
444,0.00598334803514522
445,0.0060997852045372
446,0.00621622237392917
447,0.00634159734669811
448,0.00640552434209487
449,0.00665746946011899
450,0.00663849512908975
451,0.00659125088457759
452,0.00658580293232447
453,0.00658035498007134
454,0.00657490702781822
455,0.00659071771692341
456,0.0065798167023812
457,0.00672876509242386
458,0.00672277980702491
459,0.006858617585011
460,0.00687885603184069
461,0.00680660418877577
462,0.00703336712394211
463,0.00682405907819159
464,0.00676844268807812
465,0.00671818707057095
466,0.00662972867023512
467,0.00663928444150141
468,0.00657542644892794
469,0.00650884307339396
470,0.00666409110061941
471,0.00666817375600952
472,0.00672464671226712
473,0.00681268222262183
474,0.00684651494430114
475,0.00694047799764821
476,0.00680138646772367
477,0.00680382064896406
478,0.00680625483020445
479,0.00680868901144484
480,0.00679779795083843
481,0.00662758405296573
482,0.00651723560533246
483,0.00653155280654584
484,0.00636012741941174
485,0.00625661586724755
486,0.00632707238145225
487,0.00637525721867615
488,0.00644756788397659
489,0.0066251579208693
490,0.00673501387142093
491,0.00674216563404206
492,0.00694662393253877
493,0.00684978044314775
494,0.00698324869252801
495,0.00689855915346973
496,0.00689792375592082
497,0.00681118751757911
498,0.00686318696259735
499,0.00674135883969524
500,0.00675377864110241
501,0.00670531652404742
502,0.0068368175590332
503,0.00686920809661193
504,0.00680575642367335
505,0.00704002465637683
506,0.00701151155537067
507,0.00704053784498645
508,0.00710501265884133
509,0.00707730215876809
510,0.0069638369355898
511,0.00709275702570128
512,0.00702416517095932
513,0.00682255202961872
514,0.00677914667902337
515,0.00667521016047418
516,0.00661016210980866
517,0.0066020049270319
518,0.00657135660455371
519,0.00669409695019964
520,0.00681367473699905
521,0.00688755224091142
522,0.0069614297448238
523,0.00703530724873617
524,0.00698049209041427
525,0.0069845266536939
526,0.00700749962116102
527,0.00692175451770877
528,0.00699797941403768
529,0.00707123281185467
530,0.00705949677904163
531,0.00706896780062326
532,0.00703786252875873
533,0.00711197904628031
534,0.00711169151344576
535,0.00705221618890019
536,0.00712006003752537
537,0.00708822234241893
538,0.00702943423134945
539,0.00699245394228085
540,0.00701123447735906
541,0.00697304591998857
542,0.0069454771198154
543,0.00695670264171433
544,0.00700066724571916
545,0.00692562324771417
546,0.00698095844241268
547,0.00696044968071229
548,0.00693994091901191
549,0.00691943215731152
550,0.00687236451598136
551,0.0069280642936504
552,0.00695275815761915
553,0.0068991332382551
554,0.00686603355630639
555,0.00693585174413756
556,0.0068471345840068
557,0.00682602292870376
558,0.00678489480141989
559,0.00671250367901482
560,0.00680537580329292
561,0.00666293212241887
562,0.00678549247420363
563,0.00667797105154045
564,0.00669401054086666
565,0.00658643497801933
566,0.0065592310049192
567,0.00647699563844039
568,0.00650233880693908
569,0.00642944513560312
570,0.00642221660864337
571,0.00640932996163113
572,0.00641986588868731
573,0.00639206016813806
574,0.00643728932995653
575,0.00635208667131243
576,0.00637859105626744
577,0.00640509544122245
578,0.00643159982617746
579,0.00645810421113247
580,0.00648460859608748
581,0.00655567530887164
582,0.0065399148624925
583,0.0065724039974101
584,0.00648868872358562
585,0.00647853430515229
586,0.00629434066659264
587,0.00623386173833743
588,0.00616469337463394
589,0.00609552501093046
590,0.00602635664722698
591,0.0060578174880706
592,0.00610276774130766
593,0.00609060572684342
594,0.00615260546053485
595,0.00611099013933047
596,0.00614988937409855
597,0.00616553824424581
598,0.00615092607073023
599,0.00612640695769382
600,0.00617499793203189
601,0.00620823180965707
602,0.00622974007308703
603,0.00616681862119426
604,0.00624206325528056
605,0.00616032536268978
606,0.00618547556354107
607,0.00615125737883536
608,0.00607652102309442
609,0.00606462495665008
610,0.00604009318839515
611,0.00598848952685353
612,0.00594215197690857
613,0.00591124457906649
614,0.00581720352736477
615,0.00584482295757348
616,0.00579429806147438
617,0.00586408900373414
618,0.00582683958910603
619,0.00584842552982272
620,0.0058072765398036
621,0.00583019188544145
622,0.00570158212038997
623,0.00569915748381713
624,0.00563067386006626
625,0.00556219023631538
626,0.00549370661256451
627,0.00547274379169747
628,0.00543471979303393
629,0.00541868452525892
630,0.00547917915122614
631,0.00540055368724843
632,0.00544032084427416
633,0.00546219589213738
634,0.00546196838878536
635,0.00549847026952222
636,0.0054660575125916
637,0.00549003786936336
638,0.0054517614481707
639,0.00549637133501306
640,0.00545276270151067
641,0.00543648183233681
642,0.00541123737748722
643,0.00537241084102279
644,0.00533358430455836
645,0.00529475776809393
646,0.00532605589554894
647,0.00527348109655759
648,0.00518642256084351
649,0.00526849423976588
650,0.00519538747401713
651,0.00523624996146081
652,0.00515826208091144
653,0.00505161797723914
654,0.00495214077449385
655,0.00498267454060244
656,0.00491892680690555
657,0.00495053246877401
658,0.00500469704296606
659,0.00512750958721959
660,0.00516461065896307
661,0.0051754147226057
662,0.00517069489265176
663,0.00513176599948708
664,0.00508448285348161
665,0.00509126951183794
666,0.00510340538784451
667,0.0050918243987895
668,0.00509110317641267
669,0.00498536605032234
670,0.00500369794378092
671,0.00497027203305533
672,0.00495129739138367
673,0.00495025539704548
674,0.00496642759678375
675,0.004939520488583
676,0.00491142663917855
677,0.00494035466210022
678,0.004881528112921
679,0.00484090082365842
680,0.00497204416341378
681,0.00482521765196402
682,0.00471359498841455
683,0.00458249406761753
684,0.0043663034423599
685,0.00419578463410168
686,0.00403311320161793
687,0.00393346826352452
688,0.00384992114908731
689,0.0039065031352981
690,0.00399077173936327
691,0.00411506566818259
692,0.00418134283416528
693,0.00421422190307775
694,0.00428821813661172
695,0.00427877320021627
696,0.0043742940854428
697,0.00435185433734228
698,0.0043032858679622
699,0.00429574824247635
700,0.00437793226286149
701,0.00432983894722268
702,0.00436866068952616
703,0.00434897250054119
704,0.00446323727035502
705,0.00441070107837504
706,0.00446900783397957
707,0.00448718579057484
708,0.00447954801383388
709,0.00452647835203724
710,0.00445176479302645
711,0.00449615243725924
712,0.00447485383781092
713,0.00431462047840181
714,0.00421391339552896
715,0.00400466062830145
716,0.00382835203691373
717,0.00370800488650804
718,0.00367696547054341
719,0.00366406490177732
720,0.00369030432712983
721,0.00363245717033246
722,0.00373200954735051
723,0.00369745745883167
724,0.00370057541784931
725,0.00367576501023931
726,0.00366700168941762
727,0.00370472547753711
728,0.00373745669535272
729,0.00375345293637242
730,0.00385891852944318
731,0.003951594516883
732,0.00398302043308368
733,0.00412429520322013
734,0.00418724352554129
735,0.00419481023308245
736,0.00420962960840241
737,0.00421706249556768
738,0.00422449538273295
739,0.00423192826989821
740,0.00424981811207006
741,0.0042795445165798
742,0.00427592596775344
743,0.00427230741892707
744,0.00426868887010071
745,0.00430291299715041
746,0.004261512783594
747,0.00426750317287816
748,0.00419902699515026
749,0.00419555283324491
750,0.00419405904107078
751,0.00412262052543225
752,0.00419432354251362
753,0.00403094710123316
754,0.00406637994676406
755,0.00375205572311753
756,0.00343773149947099
757,0.00312340727582445
758,0.0026474840280674
759,0.00220453549901275
760,0.0018966430848906
761,0.00176516388811834
762,0.00185213957471487
763,0.00202201223185538
764,0.00230678539747985
765,0.00258118994874748
766,0.00290584837381943
767,0.0032107243986133
768,0.00342241227527146
769,0.00355767206779875
770,0.00362890004301419
771,0.00369084492158835
772,0.00373307263616304
773,0.00377898585878047
774,0.00370911405502409
775,0.00371902848138448
776,0.00376212478890323
777,0.00368151934061442
778,0.00370307200022852
779,0.0036567180283761
780,0.00366231210433655
