"wavelength","measurement"
380,0.000735326350426192
381,0.000702345605492101
382,0.00070147608610282
383,0.000741976247377804
384,0.000738029602409727
385,0.000792289163137302
386,0.000841490648481665
387,0.000896633719991594
388,0.000963430270443101
389,0.000986277498500974
390,0.000989326423648725
391,0.000982365215420652
392,0.00103433786271997
393,0.00103902801943374
394,0.00112817229262028
395,0.00118261273816991
396,0.00129712642583452
397,0.00144833919557892
398,0.00159955196532332
399,0.00175076473506772
400,0.00186457365483835
401,0.00196691625789347
402,0.00204496688814546
403,0.00210135247269163
404,0.00212375418664555
405,0.00217202083358355
406,0.0022141644152156
407,0.00226186623692461
408,0.00229863812319363
409,0.00235458235722116
410,0.00248615515371953
411,0.00253227485315499
412,0.00259566670749052
413,0.00268430497383286
414,0.00267890690604635
415,0.00272161341677708
416,0.00269516239100341
417,0.00271633671765881
418,0.00275109321947888
419,0.00270306136707122
420,0.00278937134499018
421,0.00278167071012372
422,0.00279451402916801
423,0.00282031152786097
424,0.00283311436773881
425,0.00276434421599726
426,0.00274662460745936
427,0.00267178699961776
428,0.00258069786464377
429,0.00258481813538162
430,0.00260042885714623
431,0.00272131056481611
432,0.00280967929394893
433,0.0029024203652419
434,0.00301059251710535
435,0.00305150760431088
436,0.0030794233884379
437,0.00311993913078268
438,0.00316045487312745
439,0.00320097061547223
440,0.00320788808346885
441,0.00329729544056555
442,0.00336434197086577
443,0.00340572513888364
444,0.00345965949609252
445,0.0035135938533014
446,0.00356752821051028
447,0.00361129638135794
448,0.0036460334423361
449,0.00374691544401386
450,0.00370586978700084
451,0.0036946741632011
452,0.00368599605253462
453,0.00367731794186813
454,0.00366863983120165
455,0.00368152756076646
456,0.00366960870706086
457,0.00372003277789466
458,0.00373825147074081
459,0.00379530297556334
460,0.0037832925619486
461,0.00373554306820907
462,0.00384191235492412
463,0.00371995646108337
464,0.0036659408670716
465,0.00365167223797911
466,0.00360556496716538
467,0.00357454553833102
468,0.00355181913262812
469,0.00352739389840309
470,0.00358037217264846
471,0.00357866360293947
472,0.00359725063974759
473,0.00362365488345819
474,0.00362407327750572
475,0.00367312227882862
476,0.00355668324568981
477,0.00356454365127547
478,0.00357240405686113
479,0.00358026446244678
480,0.00356861660979086
481,0.00345535755313037
482,0.00338750613575477
483,0.00338491961904171
484,0.00331214326784997
485,0.00323937759936791
486,0.00328484527446077
487,0.00329823588744611
488,0.00331217180931803
489,0.00338985433480283
490,0.00343131315918702
491,0.00343196610303644
492,0.00349918385696414
493,0.00346360818385526
494,0.00351122484309429
495,0.00344412012012739
496,0.00346621484024659
497,0.00340550007507529
498,0.00341543179502784
499,0.00335623566062277
500,0.0033524328448405
501,0.00332033592719463
502,0.00337064437967227
503,0.00339614814666367
504,0.0033504818633571
505,0.00344797319895508
506,0.0034194460522464
507,0.00343600219200841
508,0.00343694137250634
509,0.00343918153124009
510,0.00337614775218744
511,0.00340803755299184
512,0.00338434944011602
513,0.00328985779692975
514,0.00325156735421069
515,0.00320572162687523
516,0.00318865454026558
517,0.00317763723277485
518,0.00316743947230129
519,0.00322288535272488
520,0.00326801674362101
521,0.00330012417065424
522,0.00333223159768747
523,0.00336433902472071
524,0.00333222707837745
525,0.003337297320133
526,0.00332919828850504
527,0.00331508881350616
528,0.00333352115674792
529,0.00337016762765746
530,0.00334393592329195
531,0.00334328932128648
532,0.00333245976010781
533,0.00336662202443493
534,0.00337061830718866
535,0.00333450557404758
536,0.00335760109998105
537,0.00332667816749603
538,0.00329639850425062
539,0.00327145703300073
540,0.00328684949445962
541,0.00327499742601464
542,0.00324467846791773
543,0.00326216515824906
544,0.00327319257907572
545,0.00322930567290552
546,0.00324972232117631
547,0.00323595648542029
548,0.00322219064966427
549,0.00320842481390825
550,0.00318556162213515
551,0.00319211131704669
552,0.0032077208104162
553,0.00314246713865915
554,0.00315272457669854
555,0.00315727259412199
556,0.00312499524015731
557,0.00310152412677511
558,0.00308073949770697
559,0.00304105042322958
560,0.00307537997782715
561,0.00300216732725276
562,0.0030515420616181
563,0.00299804656161134
564,0.0029939051242144
565,0.00293813402147025
566,0.00293048546235453
567,0.00288670253313272
568,0.00290057988843124
569,0.00282968490167617
570,0.00284222591293145
571,0.00283914856824448
572,0.00282432150400576
573,0.00281365280022946
574,0.00282554982246771
575,0.00278685302661856
576,0.00279065202080861
577,0.00279445101499866
578,0.00279825000918871
579,0.00280204900337876
580,0.00280584799756881
581,0.00283221381266884
582,0.00280559356512206
583,0.00279966179004087
584,0.00275737601960682
585,0.00274233059828839
586,0.00266433549537986
587,0.00262452081699954
588,0.0025961646712351
589,0.00256780852547065
590,0.0025394523797062
591,0.00255384980017716
592,0.00255934322329851
593,0.00254828121781397
594,0.00258190769614502
595,0.00256203207014479
596,0.00257326116067595
597,0.00257737330371636
598,0.00257469283862365
599,0.00255894783812961
600,0.00256944338512704
601,0.00258907162728214
602,0.00260007554950981
603,0.0025603857381803
604,0.00258229313568421
605,0.00256102611611013
606,0.0025610589762732
607,0.00254124265716259
608,0.00250939344791372
609,0.00249779074621087
610,0.00248219073734428
611,0.00244898854659534
612,0.00243220764746513
613,0.00240445506961278
614,0.00235565980477563
615,0.00238107528481346
616,0.00234659201609966
617,0.00237318327797316
618,0.00236571735293467
619,0.00236230204883058
620,0.0023230050761443
621,0.00234218870270578
622,0.00228297613842682
623,0.00228205307923243
624,0.00225451832327056
625,0.00222698356730869
626,0.00219944881134681
627,0.00218209012227838
628,0.00217072354765304
629,0.0021626840600231
630,0.00218822965169542
631,0.00215124570764211
632,0.00215312973272106
633,0.00216187185955296
634,0.00215655606178848
635,0.00215579553560781
636,0.00215509062004332
637,0.00216191340026213
638,0.00212319907776553
639,0.00213357082195367
640,0.00211359761680363
641,0.0021143938900791
642,0.00209355956180237
643,0.00208065992609567
644,0.00206776029038897
645,0.00205486065468228
646,0.00202919206611115
647,0.00202580302518607
648,0.00199426604768351
649,0.0020335815248203
650,0.00197899270795481
651,0.00199793018402473
652,0.00196840637433572
653,0.00192698588750563
654,0.00189434350996112
655,0.00190573021155421
656,0.00188825429172761
657,0.0018920800911079
658,0.00191007785320554
659,0.00195092145286401
660,0.00194976783698889
661,0.00195578186883102
662,0.0019534378733465
663,0.00193248798152564
664,0.00191648184210539
665,0.00192191970889882
666,0.00191660994306473
667,0.00192511527195812
668,0.00191599274740335
669,0.00186304949181397
670,0.00186952721287214
671,0.00186651432442574
672,0.00185692500253574
673,0.00184046278169534
674,0.00185943668024042
675,0.0018395220406367
676,0.00183622472330553
677,0.00184600111485062
678,0.00182482333835037
679,0.00180774546427807
680,0.00184260249911068
681,0.00180252223378694
682,0.00174564950133098
683,0.00172284846610131
684,0.00162580228699038
685,0.00158341040362069
686,0.00155049253812668
687,0.00152720901712695
688,0.00149718514088391
689,0.00151070951194829
690,0.00154680699040509
691,0.00160155722582004
692,0.00160808537377992
693,0.00162205857298564
694,0.00167445763154637
695,0.00166357534906429
696,0.00170667176562751
697,0.00170746777432277
698,0.00169494474600069
699,0.00171189771101864
700,0.00174255946357794
701,0.00173488633685862
702,0.00175993298359164
703,0.00176697386438571
704,0.00181572624386484
705,0.00178995991548766
706,0.00184235486629476
707,0.00187672696017267
708,0.00186040218059489
709,0.00187711302390208
710,0.00186402128213221
711,0.00188674613666136
712,0.00186807359333134
713,0.00181776906429011
714,0.00177839162386167
715,0.00171010961566542
716,0.00165927827253223
717,0.00160442178131734
718,0.00161144641001128
719,0.00161261966953401
720,0.00165590213563887
721,0.00163159147014169
722,0.00165474789810615
723,0.00168109125356865
724,0.00167421273596563
725,0.00167839453075388
726,0.0016713230850908
727,0.00171312884973386
728,0.0017459355427542
729,0.00175857451111122
730,0.00180083936274761
731,0.00186748888721105
732,0.00187895564940675
733,0.00194739015308185
734,0.00195640152658804
735,0.00198808692974912
736,0.00200444209849186
737,0.00201424212732822
738,0.00202404215616458
739,0.00203384218500094
740,0.00206310771593946
741,0.00207144951762963
742,0.00207596173762851
743,0.0020804739576274
744,0.00208498617762628
745,0.00210204795139507
746,0.00208096861710803
747,0.00210171424396985
748,0.00205695574651958
749,0.00205948874592301
750,0.0020567848477402
751,0.00205201754085043
752,0.00209426609451548
753,0.00199666888151842
754,0.00199202147271001
755,0.00184104123010866
756,0.0016900609875073
757,0.00153908074490595
758,0.00131503901902547
759,0.00112971226946064
760,0.00104285588989336
761,0.00102422493219186
762,0.00105226919102594
763,0.00114674563241488
764,0.00127565171154039
765,0.00140191347531073
766,0.00154464851480973
767,0.00166137290891381
768,0.00178106744515527
769,0.00181270525346387
770,0.00184654508947352
771,0.00188099828071542
772,0.00185512022936974
773,0.00189223926211479
774,0.00188658132421499
775,0.00186981085824444
776,0.00187655516732846
777,0.00189069514202514
778,0.00186549975379526
779,0.00185432478207472
780,0.00184594376699724
