"wavelength","measurement"
380,0.001653616014371
381,0.00163470270043121
382,0.00161483753950578
383,0.00161830354416304
384,0.00165566330056535
385,0.00173349432924923
386,0.00183343910795843
387,0.00195374802466405
388,0.00208592044358473
389,0.00219029097434318
390,0.00219346796894845
391,0.00218545432436052
392,0.00220507972419311
393,0.00224239951688986
394,0.00235732095937739
395,0.00244217342032781
396,0.00273117268834378
397,0.00303620641024905
398,0.00334124013215433
399,0.0036462738540596
400,0.00381169710481495
401,0.00408030697775828
402,0.00422939415632816
403,0.00427208639639364
404,0.00432657271973321
405,0.00428804658421979
406,0.00434578425607754
407,0.00441137055221633
408,0.00443756637903331
409,0.00452511241300141
410,0.00471324962169977
411,0.00472808586530185
412,0.00484805436980529
413,0.00495292401471709
414,0.0049549718849282
415,0.00496903806207826
416,0.00495451910976837
417,0.00489907196807691
418,0.00492176071219758
419,0.00487279334129767
420,0.00493947401382834
421,0.00493959533429765
422,0.00492963462685985
423,0.00495128326873425
424,0.00499363236379693
425,0.0048780224271715
426,0.0048204265043981
427,0.00469394726555364
428,0.00450641762211077
429,0.00450596918264499
430,0.00448470051738097
431,0.00461842011028714
432,0.00480889626642406
433,0.00495048706449539
434,0.00514355963762021
435,0.0052490619609776
436,0.00532782497431613
437,0.00540831214470052
438,0.00548879931508491
439,0.00556928648546931
440,0.00556452427967483
441,0.00570696586955767
442,0.00588256362515795
443,0.00592482746920249
444,0.00604050948846604
445,0.0061561915077296
446,0.00627187352699315
447,0.00638062559736665
448,0.00644113980070652
449,0.00668466016278728
450,0.00661811212195087
451,0.00655617323853734
452,0.00649561404333338
453,0.00643505484812943
454,0.00637449565292548
455,0.00633205597208701
456,0.0062369791852523
457,0.00633866151671491
458,0.00628923940431715
459,0.00635272122122947
460,0.00634285997790614
461,0.00626377125317189
462,0.00638935108150313
463,0.00622699007380943
464,0.00612633633545497
465,0.00605717846438199
466,0.00594155133850495
467,0.00589869936246877
468,0.00581575506611577
469,0.00573892108040679
470,0.00583638800503635
471,0.00582992245731923
472,0.00580696046742031
473,0.00586224630977972
474,0.0058546065232948
475,0.00592663532893437
476,0.00576881739536935
477,0.00575437652696928
478,0.00573993565856921
479,0.00572549479016915
480,0.00568379154012114
481,0.0055225537887628
482,0.00540564606038034
483,0.0054100530916486
484,0.00522764646550721
485,0.00511301131259554
486,0.00514253875916873
487,0.00514595128882005
488,0.005179474197989
489,0.00528459333525934
490,0.00533582598981409
491,0.00535964796324979
492,0.00546537055737578
493,0.0053944070463645
494,0.0054683212861856
495,0.00537581292611557
496,0.00539143666076636
497,0.00529002157597183
498,0.00530462921126126
499,0.00519986964908807
500,0.00519787010180405
501,0.00512536790074932
502,0.00521206984229528
503,0.00521181752992093
504,0.00516855252296046
505,0.00532168314688921
506,0.00528000609194722
507,0.00529979042316002
508,0.00530058563756182
509,0.00529187003369885
510,0.00519495543442138
511,0.00527318573154034
512,0.00518892566993747
513,0.00504855716688307
514,0.00500481647758201
515,0.00492572592715888
516,0.00486721296667759
517,0.00485196732266695
518,0.00479435056885083
519,0.00486332936932637
520,0.00494174440655213
521,0.00498254474739054
522,0.00502334508822896
523,0.00506414542906737
524,0.0050208942998664
525,0.00502361851314477
526,0.00500132223335926
527,0.00496500174879768
528,0.00496803317751462
529,0.00501347011273441
530,0.00499368416345476
531,0.00499339104777766
532,0.00495284443339614
533,0.00498143998961945
534,0.0049796633973822
535,0.00491081255518385
536,0.00492813253529525
537,0.00489984165073714
538,0.00483999806409583
539,0.0047974470252623
540,0.00479513839345334
541,0.00474690433300351
542,0.00472081720187693
543,0.00469926939930145
544,0.00470540077466345
545,0.00465412976300238
546,0.00467360815662515
547,0.00464922024127069
548,0.00462483232591623
549,0.00460044441056177
550,0.00452665012284245
551,0.00454761289727066
552,0.00454533342488988
553,0.00451619258320486
554,0.00445915943562679
555,0.00448161933515719
556,0.00442362059978762
557,0.00439276699391773
558,0.00435163177516159
559,0.00428614870319842
560,0.0043258543802256
561,0.00422865800191929
562,0.00426711558663989
563,0.00421329747281879
564,0.00420210621348468
565,0.00411688629024893
566,0.00409975321764444
567,0.00402833716767885
568,0.00404410371965512
569,0.0039767173466339
570,0.00395023329935512
571,0.00393505166049103
572,0.00393336034531757
573,0.00391025591149812
574,0.00391717581577898
575,0.00387308981355073
576,0.0038791068760464
577,0.00388512393854207
578,0.00389114100103774
579,0.00389715806353341
580,0.00390317512602908
581,0.00392407499455149
582,0.00389881119932589
583,0.00390417407784401
584,0.00384609623464058
585,0.00384180663894058
586,0.00373003194936941
587,0.00367611693182075
588,0.00362965469152459
589,0.00358319245122843
590,0.00353673021093227
591,0.00353216347104455
592,0.00354383279424059
593,0.00352603830656957
594,0.003574328784507
595,0.00351216500120482
596,0.00353010988005251
597,0.00351948945288611
598,0.00352512482859044
599,0.00350453316605276
600,0.00350308122313728
601,0.00351910542240156
602,0.00351769007932256
603,0.00346882078327261
604,0.00346660182741042
605,0.00342909924395505
606,0.00343769106784339
607,0.00342310940036842
608,0.00335767607996093
609,0.00334241151431209
610,0.0033186693477727
611,0.00326594781766149
612,0.00324446293189836
613,0.00319605158254866
614,0.00313026913210853
615,0.00314069418813893
616,0.00311959037344114
617,0.00313274439560599
618,0.00312374913207567
619,0.0031136998137447
620,0.0030781831387645
621,0.00308862148298428
622,0.00301243779336389
623,0.00300964296881128
624,0.00296148732569987
625,0.00291333168258845
626,0.00286517603947704
627,0.00286077709931409
628,0.00283181303684625
629,0.00282237434447095
630,0.00284670790878799
631,0.00280070904342363
632,0.00279733588930508
633,0.00280395169167777
634,0.00280550835346707
635,0.00277518786414959
636,0.00279588228060497
637,0.0027832439027469
638,0.00274178384351056
639,0.0027477900272165
640,0.00272363248235815
641,0.00271271778141041
642,0.0026946171511413
643,0.00266774692070886
644,0.00264087669027642
645,0.00261400645984398
646,0.00257499473400267
647,0.00258964517973087
648,0.00252368230099038
649,0.00258330381854039
650,0.00252980448898691
651,0.00254023171950212
652,0.00250159106824548
653,0.00241879158601275
654,0.00238478504408769
655,0.00238632952787895
656,0.00237047372421841
657,0.00234916730707892
658,0.002374413688397
659,0.00244294905221754
660,0.00244461374933552
661,0.0024416888632277
662,0.00243161322010789
663,0.00241320807338684
664,0.00237415014536059
665,0.00238700503389066
666,0.00235791137542078
667,0.00239716177495457
668,0.00236924150785533
669,0.00230824666307536
670,0.00232281869330368
671,0.00228546031895774
672,0.00227867497866051
673,0.00227217784210619
674,0.00227865450429784
675,0.00225892613179354
676,0.00224690530064395
677,0.00225438920149843
678,0.00222587803837114
679,0.002177286906025
680,0.0022537315925346
681,0.0021922899830768
682,0.00211763256191145
683,0.00208222168895634
684,0.00199467796939881
685,0.00191248466894898
686,0.00185481693583647
687,0.00181168891933089
688,0.00176194257777293
689,0.00176306762214566
690,0.00179826219404008
691,0.00185874217202689
692,0.00189356132810898
693,0.00189582340235346
694,0.00192351769176941
695,0.00192602979555074
696,0.00197552348976687
697,0.00195910574868028
698,0.00194168745470444
699,0.00194226207592
700,0.00196581799430574
701,0.00194674916362661
702,0.00195947335033473
703,0.00198379935330866
704,0.0020192025986313
705,0.00198402282134891
706,0.00202573424147002
707,0.00206188598333884
708,0.00205101302224478
709,0.00204967325689773
710,0.00204540528463524
711,0.00205872486778798
712,0.00206577536845046
713,0.00199043821674622
714,0.00194648706311716
715,0.00189348925217715
716,0.00182542794508977
717,0.00175683404574112
718,0.00176607568119816
719,0.00175024405023739
720,0.00176106703829756
721,0.00173862498589848
722,0.0018125125704494
723,0.00181835667406475
724,0.00181608045017567
725,0.00178470107578807
726,0.0018114688771704
727,0.00182629682839481
728,0.00185250453347638
729,0.00184611655505527
730,0.00193425551357096
731,0.00198978674680191
732,0.00202098840477256
733,0.00206328117081849
734,0.00211847795759661
735,0.00216016758324196
736,0.00214876882337459
737,0.00216723163054002
738,0.00218569443770544
739,0.00220415724487087
740,0.0022246560228383
741,0.00221913347066006
742,0.00222206211819438
743,0.0022249907657287
744,0.00222791941326303
745,0.00226200029443313
746,0.00223671765288005
747,0.00227486408424397
748,0.0022167089399566
749,0.00222920303507923
750,0.00221384547826105
751,0.00218754001092182
752,0.00221774219517564
753,0.00211490295626028
754,0.00214233648997391
755,0.00199627872081676
756,0.00185022095165961
757,0.00170416318250246
758,0.00147807512907015
759,0.00126108092258822
760,0.00111367599211895
761,0.00104553579881137
762,0.00107681966865683
763,0.00114412649333933
764,0.0012933198998219
765,0.00141954148603697
766,0.00157469975388714
767,0.00171636547883721
768,0.00182238934963832
769,0.00186783413552185
770,0.00192549810348327
771,0.00196942677432567
772,0.00197625606616415
773,0.00197885568384048
774,0.00200323365917576
775,0.00194842960287167
776,0.0019958827518281
777,0.00197165765356055
778,0.00196201420954584
779,0.00195830162381121
780,0.00197126723152099
