"wavelength","measurement"
380,0.0220662955838335
381,0.021786243645894
382,0.0211284374417934
383,0.0207599337170548
384,0.0213829039731638
385,0.0223406666400479
386,0.0235216374511764
387,0.0246283288453257
388,0.0262188786579508
389,0.0266595127024598
390,0.0267855117346696
391,0.0267686458892432
392,0.0277432565966502
393,0.0281102713569269
394,0.0292995258067463
395,0.0313034165922245
396,0.0361016019983424
397,0.0406137263829992
398,0.045125850767656
399,0.0496379751523128
400,0.0520679446749541
401,0.0559913129152183
402,0.0586951334925266
403,0.0602492573191579
404,0.0616436776405371
405,0.062369562883962
406,0.0643691862530223
407,0.0657105750983552
408,0.0671648953632425
409,0.0693761484128805
410,0.0733320785320812
411,0.0740950425699712
412,0.0769293824297781
413,0.0782257742402975
414,0.0788684701831193
415,0.0799729232423735
416,0.0797614120577732
417,0.0791736252394772
418,0.0809308072875965
419,0.0795695971880915
420,0.0814960686615336
421,0.0812338538518923
422,0.0821642157506547
423,0.0826798635634233
424,0.082779838155749
425,0.0807574388802521
426,0.0801844461304942
427,0.0776683479997991
428,0.0757152787270692
429,0.076022952300715
430,0.0760622326163667
431,0.0789264938253296
432,0.0819550262519252
433,0.0849360411989007
434,0.0883061169787164
435,0.0899864200631772
436,0.0906590226144989
437,0.0921251562164065
438,0.0935912898183141
439,0.0950574234202217
440,0.0957807964366133
441,0.0973460457625952
442,0.099395236408718
443,0.100579963351671
444,0.10213248373148
445,0.10368500411129
446,0.105237524491099
447,0.106603965550246
448,0.106948683810932
449,0.11081074632507
450,0.109966640635357
451,0.109463200300167
452,0.109044033064672
453,0.108624865829178
454,0.108205698593684
455,0.108209007337337
456,0.108568775202476
457,0.109486219668887
458,0.110508066006753
459,0.112169081109682
460,0.112494518164602
461,0.111177763168763
462,0.114204928251162
463,0.111089292378082
464,0.110012888669363
465,0.109198779849195
466,0.107995534126117
467,0.107875327785522
468,0.107366611408736
469,0.106987498627329
470,0.109402776852872
471,0.109450249271268
472,0.110550445996084
473,0.111945633955851
474,0.112269610842592
475,0.114177918873389
476,0.112200003440785
477,0.112407515602541
478,0.112615027764298
479,0.112822539926054
480,0.112719348029921
481,0.109844897736125
482,0.107995497539158
483,0.107610063231818
484,0.105312176948674
485,0.103324767140377
486,0.104893979819819
487,0.105810396878427
488,0.10714684957142
489,0.109635908441839
490,0.110518490977826
491,0.111268445135599
492,0.113856680198443
493,0.112589543834623
494,0.114154160693831
495,0.11251201824291
496,0.11276134839087
497,0.110743779959763
498,0.111484067196443
499,0.109035513000003
500,0.109627193433124
501,0.108894839004444
502,0.110935402049062
503,0.111517723984973
504,0.109921263103194
505,0.113731285388585
506,0.113080638517963
507,0.113460639455025
508,0.113963572691733
509,0.113716768056403
510,0.111529194335518
511,0.112891056369732
512,0.111549422955114
513,0.108380147867455
514,0.107538767964395
515,0.105798309819124
516,0.10509443526577
517,0.105012345948176
518,0.104607813804013
519,0.106776054832193
520,0.108687168736878
521,0.109733582095677
522,0.110779995454475
523,0.111826408813274
524,0.110887138653714
525,0.111071261667617
526,0.111309260314035
527,0.110675660231168
528,0.111282509113403
529,0.112583499806741
530,0.112440620411697
531,0.112474667207215
532,0.112068234652043
533,0.113200002813552
534,0.113447541365778
535,0.112154691656599
536,0.112980913854211
537,0.112390901983183
538,0.111450444012538
539,0.11077834229543
540,0.111524405459244
541,0.110763264022228
542,0.109994717907457
543,0.110986923983151
544,0.110962111778228
545,0.110530033680969
546,0.111284170153993
547,0.111159839284403
548,0.111035508414812
549,0.110911177545222
550,0.110517374515332
551,0.111105348661038
552,0.112079403601766
553,0.110749319445758
554,0.110345733049943
555,0.111347677559022
556,0.109654528980339
557,0.109305399082739
558,0.108934592914386
559,0.107635143689441
560,0.109035685909856
561,0.106803514040233
562,0.1085724273144
563,0.106810893829893
564,0.107123572602561
565,0.105619608073459
566,0.1049073422899
567,0.103779363222021
568,0.104406432136777
569,0.102999157120512
570,0.103069622756445
571,0.103225543070483
572,0.103104288872103
573,0.103042803976477
574,0.103921439692689
575,0.102435688717589
576,0.10289871849257
577,0.10336174826755
578,0.103824778042531
579,0.104287807817511
580,0.104750837592492
581,0.106401771137176
582,0.105888658016552
583,0.106704843722468
584,0.105131064714637
585,0.104962366244026
586,0.102217464045061
587,0.101289602637047
588,0.100565046250638
589,0.0998404898642286
590,0.0991159334778193
591,0.099431321675827
592,0.100802735573985
593,0.100612465717757
594,0.102235367430394
595,0.102107984802085
596,0.102761346698624
597,0.102936456774097
598,0.103052183572471
599,0.103139465271779
600,0.10400293100585
601,0.104543564158926
602,0.105022259453126
603,0.104412991157199
604,0.105478262080005
605,0.105049198218092
606,0.10508010539626
607,0.104645965485918
608,0.10321918812004
609,0.103471715220385
610,0.102572161456001
611,0.102114651173689
612,0.101212109562115
613,0.100963848205169
614,0.0997827305974827
615,0.101313726912964
616,0.100176103243548
617,0.10131936463558
618,0.101193282446662
619,0.101479700302419
620,0.101179342471354
621,0.101685466018812
622,0.0996754933783987
623,0.099804663777045
624,0.0990666946570874
625,0.0983287255371298
626,0.0975907564171721
627,0.0975795879040078
628,0.0973355663102226
629,0.0970051432149732
630,0.0979898901335186
631,0.0971856731271879
632,0.0978515281734585
633,0.0986656695662387
634,0.0989834906667373
635,0.0994399625708881
636,0.098514639313881
637,0.0998258680475219
638,0.0992163396397871
639,0.0997457786175995
640,0.0993938007428459
641,0.0991279711000224
642,0.0987667853310819
643,0.0982982930868726
644,0.0978298008426633
645,0.097361308598454
646,0.0978215925483266
647,0.0980394266419165
648,0.0964531761769912
649,0.0981218547834371
650,0.0971513718506458
651,0.0974738103771557
652,0.0964803551175908
653,0.0949668077460324
654,0.093510477190166
655,0.0945380644795507
656,0.0938718389304342
657,0.0950543411853416
658,0.0960010993584963
659,0.0981469837057746
660,0.0989483667259607
661,0.0992163375138846
662,0.0996057081022957
663,0.0991895531411591
664,0.0985108760940242
665,0.0989885465989551
666,0.0990285292517153
667,0.0991961687384631
668,0.099708467838404
669,0.0978394261014771
670,0.0985259603950036
671,0.0982455791940966
672,0.0980561386128654
673,0.0982470888889477
674,0.0984648054637314
675,0.0985521303017898
676,0.0984418521285885
677,0.0992514287078107
678,0.0982784100808193
679,0.0981575863544028
680,0.100156458528174
681,0.0982460555365653
682,0.0956424270141376
683,0.0934966319953668
684,0.0898027761901792
685,0.0867706050630308
686,0.0844708643249728
687,0.0831705111581613
688,0.0831965210108328
689,0.0841872053824368
690,0.0862330353163279
691,0.0890248906363049
692,0.0903638521672359
693,0.0921346996472924
694,0.0934568406936251
695,0.0941840559062248
696,0.0959595693875833
697,0.0969931860982686
698,0.0964948006710577
699,0.0971161136297445
700,0.09953924584505
701,0.0995434533543555
702,0.10177047351531
703,0.102603465473096
704,0.104882946274859
705,0.105247904328943
706,0.107174910307039
707,0.10920586788605
708,0.109512013674974
709,0.111053484879962
710,0.110860944185443
711,0.111267494366636
712,0.111854392715983
713,0.108490879007339
714,0.106812294111482
715,0.102695551939496
716,0.0993469135456944
717,0.0973901703796331
718,0.0975060475618286
719,0.0990589513712355
720,0.100641635278331
721,0.100291716296512
722,0.10320455206473
723,0.103675781825412
724,0.103714066070514
725,0.105352374690116
726,0.10523878380856
727,0.107710310175579
728,0.109551161382901
729,0.1125616251559
730,0.115517205011536
731,0.118992052234809
732,0.122449657095157
733,0.12591372689466
734,0.127943416379575
735,0.129377574278165
736,0.131373603816418
737,0.132474832496683
738,0.133576061176947
739,0.134677289857211
740,0.137240902716971
741,0.13811348327896
742,0.139275326796348
743,0.140437170313737
744,0.141599013831125
745,0.142325626399885
746,0.141932729397582
747,0.142979030565856
748,0.141722961928459
749,0.142912145882654
750,0.1427436286715
751,0.14276136637092
752,0.144854546550832
753,0.143355034702352
754,0.13997630229999
755,0.129133226157659
756,0.118290150015329
757,0.107447073872998
758,0.0916548261284217
759,0.0778472697849846
760,0.0706782911951782
761,0.0698653084239435
762,0.0732266140213467
763,0.0812665671067175
764,0.0912864803342038
765,0.101581957295645
766,0.112679614414034
767,0.123702808814789
768,0.129850987432897
769,0.133776558981206
770,0.138240555272394
771,0.139868070375869
772,0.141326871068818
773,0.143634946704995
774,0.142469877823461
775,0.14313786164898
776,0.143461748234051
777,0.141955974631806
778,0.143888972793744
779,0.142394628774893
780,0.144362865124004
