"wavelength","measurement"
380,0.0088118870603051
381,0.00838963776224041
382,0.00823856016445924
383,0.0080022313365113
384,0.00798835713746405
385,0.00824702332691823
386,0.00855890008126538
387,0.00885952937950415
388,0.00913654585977464
389,0.00926051784026132
390,0.00917593919360407
391,0.00912865622859832
392,0.00909352318387648
393,0.0090785956900389
394,0.00920960718085193
395,0.00975398125338053
396,0.0106363718749452
397,0.0116175731359227
398,0.0125987743969001
399,0.0135799756578776
400,0.0140589453339796
401,0.0147293237245107
402,0.0151052154155802
403,0.015180647659976
404,0.0150036648385635
405,0.0148779413089343
406,0.0148856023949631
407,0.0149878239463413
408,0.0150042588602127
409,0.0151204363448542
410,0.0156892936660133
411,0.0156039021717072
412,0.0159162929383819
413,0.0160767561129695
414,0.0159879409011792
415,0.016071460803487
416,0.0158385211221931
417,0.0157142753337359
418,0.0158247128690263
419,0.015528050356699
420,0.0157079810080754
421,0.0155862903397273
422,0.0156921533896734
423,0.0157152398639134
424,0.0158414219462213
425,0.0153033015003923
426,0.0151701830974303
427,0.0146635871417211
428,0.0142876751795765
429,0.0141534226942899
430,0.0142130662324409
431,0.0146798793992573
432,0.0151808091199764
433,0.0155874668730763
434,0.0162319041889949
435,0.0165747118407772
436,0.0166074303980383
437,0.0168625833937402
438,0.0171177363894421
439,0.0173728893851439
440,0.0175185277169373
441,0.0178698840740527
442,0.0182663336571814
443,0.0184622601525734
444,0.0188173490234769
445,0.0191724378943804
446,0.0195275267652839
447,0.0196884062059016
448,0.0198445993038619
449,0.0204820642774504
450,0.0202406408649312
451,0.0200255809783312
452,0.0198127976177244
453,0.0196000142571175
454,0.0193872308965106
455,0.0192842513409531
456,0.0191024650887237
457,0.0191797607430103
458,0.0191713894005552
459,0.0193163914906989
460,0.0191713972967366
461,0.0189855519546274
462,0.0193920084785553
463,0.0187569546154745
464,0.0185311309122663
465,0.0183119665795912
466,0.017881622598493
467,0.0177371735788564
468,0.0175986396831737
469,0.0173142132734786
470,0.0176308704472667
471,0.0174821606177235
472,0.0175588389172661
473,0.0176052226580494
474,0.0175465661049013
475,0.0176992122189196
476,0.017335871696551
477,0.0173073336464222
478,0.0172787955962934
479,0.0172502575461646
480,0.0170606543343508
481,0.0165811864808027
482,0.0162279580544385
483,0.0161177691388403
484,0.0157769839409601
485,0.015382728610608
486,0.01550962656104
487,0.015639762242428
488,0.0157221186388945
489,0.0161150555290438
490,0.0161380829956846
491,0.0163131784107754
492,0.016644232742375
493,0.0163867535212537
494,0.0166414964364507
495,0.0163270678306391
496,0.0164043119944021
497,0.0160995463027368
498,0.0162365157076368
499,0.015880382023461
500,0.0159659497462533
501,0.015816046290822
502,0.0160968701082925
503,0.0162440932817705
504,0.0161139636580845
505,0.0166408059418851
506,0.0165068681870456
507,0.0166254907206239
508,0.0167674481590486
509,0.0168034366243728
510,0.0165776838700286
511,0.0169078595377025
512,0.0167323385736043
513,0.0163033324304055
514,0.0163024551998347
515,0.0161148674825111
516,0.0161014416207368
517,0.016168996225121
518,0.0162261464451026
519,0.0166105592431724
520,0.0169499998314774
521,0.0172053300979394
522,0.0174606603644014
523,0.0177159906308634
524,0.0177021705625037
525,0.0178146696560669
526,0.0179896509563869
527,0.0179391134883795
528,0.0180919816145183
529,0.0183501424014999
530,0.0184414450223609
531,0.0185074626692497
532,0.018483264219148
533,0.0187406258749099
534,0.0187693069746487
535,0.0186349061769467
536,0.0188659786254666
537,0.0188243966754122
538,0.0186545587931911
539,0.0186304194410107
540,0.0186985582355431
541,0.0185349864879104
542,0.0185080419431593
543,0.0185738179950117
544,0.0187015995369643
545,0.0185868885205531
546,0.0187298011818175
547,0.0187068115358728
548,0.0186838218899281
549,0.0186608322439834
550,0.0185773041227828
551,0.0187641398078347
552,0.0188634728750129
553,0.0186345038390002
554,0.0185893680829779
555,0.0187591804066698
556,0.0184488756261025
557,0.0184343551053081
558,0.0182521407390883
559,0.0180032283016529
560,0.0183185681836837
561,0.0178821398707676
562,0.0181382747157055
563,0.0178208494132248
564,0.017791759972802
565,0.0175033330963585
566,0.0173160722112855
567,0.0171023194620639
568,0.0171231411600641
569,0.0168423216053271
570,0.0167539922109053
571,0.0166912071779688
572,0.0165760993626466
573,0.0165345498576396
574,0.0166028377206431
575,0.0163601655808611
576,0.016385520381241
577,0.0164108751816208
578,0.0164362299820007
579,0.0164615847823805
580,0.0164869395827604
581,0.0166606235760602
582,0.01654151150353
583,0.0166164615586642
584,0.0163230578653331
585,0.0162218125844322
586,0.0158211633579258
587,0.0156459496830596
588,0.0154806025125698
589,0.0153152553420801
590,0.0151499081715904
591,0.0151876039114356
592,0.0152792627427551
593,0.0152612193385503
594,0.0154397507468781
595,0.0154160502438576
596,0.0154422210567346
597,0.015504847666329
598,0.0154714336329724
599,0.0154155636558541
600,0.0155602921585921
601,0.0156038773593621
602,0.0156489482411811
603,0.0154928899623368
604,0.0156739681555422
605,0.0154487480408778
606,0.0154728341637216
607,0.0153852499014656
608,0.0151548685064458
609,0.0151246233277545
610,0.0149727358439153
611,0.0148200644856313
612,0.0146500703313982
613,0.0145679335185859
614,0.0143918066472165
615,0.0145302705207186
616,0.0143434743101131
617,0.0144602362736649
618,0.0143770973715073
619,0.0144773495995056
620,0.0143651061107208
621,0.0143893802389262
622,0.0141161030397127
623,0.014040208246946
624,0.0139113718405722
625,0.0137825354341984
626,0.0136536990278247
627,0.0136343470809564
628,0.0136298694451116
629,0.0135332392022208
630,0.01369873410024
631,0.0135290002011169
632,0.0136279978580602
633,0.0137161029357227
634,0.0137812332497728
635,0.013751706415131
636,0.0135994595085087
637,0.0137923996381874
638,0.013654214847221
639,0.0136546478804783
640,0.0135643321994437
641,0.0135489879888077
642,0.0133710441444029
643,0.0132880711030596
644,0.0132050980617163
645,0.0131221250203731
646,0.0130975772144924
647,0.0130950716120035
648,0.0128970644625021
649,0.0130479220140521
650,0.0128838216617601
651,0.0129150082844449
652,0.0128606398266966
653,0.0125773285550889
654,0.0123693477070716
655,0.0125260572106372
656,0.0123570866137285
657,0.0125157123468457
658,0.0125522319623261
659,0.0128474178616265
660,0.0129140286585702
661,0.0129819855718269
662,0.0129394443642797
663,0.0128907241786167
664,0.0127511729101911
665,0.0127648133708954
666,0.0127628812723899
667,0.0128052694465554
668,0.0128293926855349
669,0.0125447477870229
670,0.0126552178342204
671,0.0125603994282983
672,0.0125660903218181
673,0.0126128154485017
674,0.0126266974416262
675,0.0126636957200898
676,0.0126448742507937
677,0.0127530979944737
678,0.012686969337976
679,0.0127078268253017
680,0.0129760409824339
681,0.0127304592468671
682,0.0124674811251908
683,0.0122203324799674
684,0.011901409524536
685,0.0115843328612207
686,0.0113653508659908
687,0.0112736426711103
688,0.011361940823888
689,0.0115186332058068
690,0.0119613926254196
691,0.0125243926000688
692,0.0129744196173277
693,0.0133753404538074
694,0.0138175924380191
695,0.0141442486500818
696,0.014782363053823
697,0.0151385438142216
698,0.0153255070589563
699,0.0157425000243543
700,0.0163894801525588
701,0.0166897676474396
702,0.0173481947475986
703,0.0178290071184987
704,0.0185269735360239
705,0.0189113396138087
706,0.0196470610700353
707,0.0202773003410338
708,0.0206428054805859
709,0.0213376796797624
710,0.0215176851129156
711,0.0219594215038789
712,0.0223890076792555
713,0.0220009257771885
714,0.0220337300691307
715,0.0213926035274932
716,0.0210861173945048
717,0.0211046330428391
718,0.0212456727988962
719,0.0220322315126564
720,0.0227378793564463
721,0.0228298402928094
722,0.0239541164543159
723,0.0242971458703343
724,0.0247237754601369
725,0.0253948393678235
726,0.0257172976667614
727,0.0266280052851814
728,0.0274784137274784
729,0.0285493458556644
730,0.029658451394982
731,0.0308145962948125
732,0.0320865738825555
733,0.0333637378431179
734,0.0342710289989588
735,0.0349275467155308
736,0.035948627684643
737,0.0365446332460007
738,0.0371406388073584
739,0.0377366443687162
740,0.0386991241203046
741,0.0391595244971364
742,0.0397099207245008
743,0.0402603169518652
744,0.0408107131792295
745,0.0412540855610114
746,0.0414855700440351
747,0.041910937080525
748,0.0416248445865532
749,0.0422227229253914
750,0.0423539903242471
751,0.0423527922530331
752,0.0431525185438758
753,0.0428127395407587
754,0.0419547292759343
755,0.0388685550894403
756,0.0357823809029463
757,0.0326962067164522
758,0.0278611504817225
759,0.0238760494800283
760,0.0216041564280325
761,0.0212376591159846
762,0.0221843816880582
763,0.0246324544018945
764,0.0275989329832594
765,0.0305553551663378
766,0.0341534727669607
767,0.0374477662038493
768,0.0395160403737911
769,0.0408955583298994
770,0.0421392926679906
771,0.0427220383880173
772,0.0433418387932727
773,0.0439661335214204
774,0.043788845266494
775,0.0440079240671203
776,0.0442067464142882
777,0.0436983078518921
778,0.0443557757152693
779,0.0438638419010971
780,0.0445136583521084
