"wavelength","measurement"
380,0.0309391492772288
381,0.0297016482644456
382,0.0289683496465276
383,0.0286819564046642
384,0.0288007097994618
385,0.0298570678566729
386,0.0312191026625112
387,0.0325353982375608
388,0.0339099125986851
389,0.0342544279999009
390,0.0337440733450833
391,0.033369412386101
392,0.033382874757833
393,0.0333280484194128
394,0.0339883416293572
395,0.0359405189713512
396,0.0393550706732152
397,0.0432091842299354
398,0.0470632977866556
399,0.0509174113433758
400,0.0528479531342619
401,0.0553930970118998
402,0.0570201661143733
403,0.0570990769526927
404,0.0575008265231969
405,0.0572940529749136
406,0.0582609497050105
407,0.0585949139532741
408,0.0590380326812549
409,0.0605084132033773
410,0.0634192699708865
411,0.0639263963979379
412,0.0659406910600956
413,0.0676459684502887
414,0.0681569628905472
415,0.069350158522657
416,0.0694532274318689
417,0.0695854585244493
418,0.0717247325032992
419,0.070866192261741
420,0.0731511255408936
421,0.0734772630612419
422,0.0744760540663225
423,0.0750659973420718
424,0.0756834613209337
425,0.0744616577378442
426,0.0739894209193456
427,0.0720620628060468
428,0.0706273387545751
429,0.0705504466650492
430,0.0709968452327151
431,0.0739930993364352
432,0.0769459177555485
433,0.0792809049687676
434,0.0824779943710336
435,0.084099836010916
436,0.0848036631577034
437,0.0860325363594244
438,0.0872614095611455
439,0.0884902827628665
440,0.0888372211228915
441,0.090120440716206
442,0.0917348269823622
443,0.0923032820118129
444,0.0934043180719086
445,0.0945053541320044
446,0.0956063901921001
447,0.0966159492684686
448,0.096607929741825
449,0.0996128823248006
450,0.0985289871496261
451,0.0977070984979518
452,0.0971850939202461
453,0.0966630893425404
454,0.0961410847648347
455,0.0958790187882528
456,0.096212646716069
457,0.0971167350715289
458,0.0977194871922052
459,0.0988907003985598
460,0.0988680958159587
461,0.0978112096591834
462,0.0999728823290248
463,0.0973420832962314
464,0.0961336059927167
465,0.0954343230200174
466,0.0940576168135549
467,0.0939075471091269
468,0.0929986591811791
469,0.0919782133028991
470,0.0941925408481463
471,0.0939770174411044
472,0.0945543308554075
473,0.0953564238030161
474,0.0953968744899579
475,0.0964450936982198
476,0.0944466653816116
477,0.09425526358646
478,0.0940638617913083
479,0.0938724599961566
480,0.0935043652425692
481,0.0909930983953627
482,0.0894319932270558
483,0.0887782735134788
484,0.0866831792818618
485,0.0849487277727419
486,0.0859924902455652
487,0.0867717173303376
488,0.0875564424145947
489,0.0898201268617557
490,0.0901645458697982
491,0.090904415955304
492,0.0927827453124832
493,0.0916924164196068
494,0.0931361155969097
495,0.0914209420095324
496,0.0918614107493732
497,0.0900417593788884
498,0.0905696512136288
499,0.0886352814634434
500,0.0894081632896315
501,0.0886731635733125
502,0.0902991307144657
503,0.090746289655402
504,0.0895992936412971
505,0.0924619564734295
506,0.0917332931812426
507,0.0921998627464754
508,0.0925403792437567
509,0.0923424321621647
510,0.0908104240647304
511,0.0917105307577084
512,0.0908589773978681
513,0.0879372442015553
514,0.0874437626935563
515,0.0859581377825836
516,0.0854091513104106
517,0.0852247550516013
518,0.0850786197586812
519,0.0870209393064329
520,0.0883550116945866
521,0.0891187981347649
522,0.0898825845749433
523,0.0906463710151217
524,0.0900488295066877
525,0.0901066339257144
526,0.0903724723677103
527,0.0899001207594697
528,0.0904415974132316
529,0.0913510389190858
530,0.0910987569387857
531,0.0913253478525332
532,0.091021944745939
533,0.0919342376799853
534,0.0921798341979705
535,0.0910598681997903
536,0.0919710673292322
537,0.0912800190582822
538,0.0907065523004889
539,0.09014557630898
540,0.0907463189591361
541,0.0900383818410501
542,0.0897251058618462
543,0.0899409781866411
544,0.0905594219060282
545,0.0899246899645689
546,0.0906414231980234
547,0.0905538846663362
548,0.0904663461346489
549,0.0903788076029617
550,0.0900360892682593
551,0.090452922760615
552,0.0913932927177958
553,0.0903352199765493
554,0.0902174769781832
555,0.0912412082132673
556,0.089929782572852
557,0.0898599759470938
558,0.0895386290203451
559,0.0888588076474217
560,0.090150006427997
561,0.0884381128315121
562,0.0899614346287645
563,0.0886725544253759
564,0.0890897230922472
565,0.0879094035722576
566,0.0873854925652295
567,0.0867651881540304
568,0.0873272230557061
569,0.0864175281777949
570,0.0864199809976513
571,0.086710321569594
572,0.0867207042816038
573,0.0867173181144706
574,0.0873960623859642
575,0.0862791512767039
576,0.0866931966372094
577,0.087107241997715
578,0.0875212873582205
579,0.087935332718726
580,0.0883493780792315
581,0.0894989062371785
582,0.089136372636951
583,0.0897762602650644
584,0.0882877950072253
585,0.0879387299313821
586,0.0858726980197139
587,0.0848239905188846
588,0.0842583479610964
589,0.0836927054033083
590,0.0831270628455201
591,0.0834869468435235
592,0.0841879658459232
593,0.0844339709805574
594,0.0856519189696076
595,0.085374282353349
596,0.0858827236725405
597,0.0864023540591653
598,0.0862471234123733
599,0.0864341805760159
600,0.0870783537454719
601,0.0877451960847354
602,0.0880688950635913
603,0.0877872350288209
604,0.0885632024071521
605,0.0879093024818097
606,0.0882187940118489
607,0.0878338759028654
608,0.0868367397213725
609,0.0868764087794704
610,0.0862633758076847
611,0.0859709954717423
612,0.0852829243373766
613,0.0850515153323858
614,0.0841730888110813
615,0.0855962367440283
616,0.0846269836665191
617,0.085539855914323
618,0.0852826530481784
619,0.085691090864768
620,0.0854435057596955
621,0.0859115290635102
622,0.0844289402754436
623,0.0842894720755003
624,0.0836766497010943
625,0.0830638273266883
626,0.0824510049522822
627,0.0824853937868172
628,0.0822016602150134
629,0.0821008228415411
630,0.0830469671875745
631,0.0820756772155837
632,0.082845147154467
633,0.0832811694739789
634,0.0836970485521967
635,0.0841295485170513
636,0.0833577722038203
637,0.0845639974764865
638,0.0839957172709019
639,0.0844637770645059
640,0.0842875778932988
641,0.0842118582907773
642,0.083766300930422
643,0.0834481038446626
644,0.0831299067589031
645,0.0828117096731436
646,0.0833628550776352
647,0.0833821984099903
648,0.0820546113065787
649,0.0834031406333947
650,0.0826171872975045
651,0.0829664599223261
652,0.0820363791298622
653,0.0808685348044979
654,0.0796145128511935
655,0.080498637258386
656,0.0798629470416973
657,0.0812740580451179
658,0.0818046573665646
659,0.083965239247587
660,0.0844827857305462
661,0.084961111563951
662,0.0851808211121522
663,0.0847933752921354
664,0.0842601623692494
665,0.0848214772754392
666,0.0847902345771673
667,0.0852084334987353
668,0.0855006885733693
669,0.0838495128136192
670,0.0845854538243925
671,0.0844431961732289
672,0.0841325752234784
673,0.0844943199566741
674,0.0847746412419787
675,0.0848975867397343
676,0.0848103810629274
677,0.0856027885920554
678,0.0848239469950155
679,0.0846108281341166
680,0.0867577596131248
681,0.0849903542328532
682,0.0825954562911839
683,0.0807950709222048
684,0.0775017194268371
685,0.0750525743635198
686,0.0729020115583886
687,0.0718923108380427
688,0.0718526672763828
689,0.0725341449397313
690,0.0744100084012424
691,0.0767656009256206
692,0.0776134443444448
693,0.0788233490058428
694,0.0800279225608233
695,0.0802247661417963
696,0.0816027079637685
697,0.0821251086652959
698,0.0813148478185382
699,0.0817303691465462
700,0.0833044088667836
701,0.0828610429280603
702,0.0844040533589704
703,0.0846102270559641
704,0.0861014203356712
705,0.0860586599853711
706,0.087675694472582
707,0.0883171502173004
708,0.0883767482826818
709,0.0893477228599605
710,0.0885604873348738
711,0.0887041366753253
712,0.0885809604185202
713,0.0853558270298208
714,0.0835129131473437
715,0.0799170979582795
716,0.0769652816664193
717,0.0751292555947097
718,0.0744920229367642
719,0.0754060944086539
720,0.0762856342295247
721,0.0755666846957632
722,0.0773569942194437
723,0.0771439799578795
724,0.0771124516823906
725,0.0775760612360032
726,0.0774706144756245
727,0.0786747596202038
728,0.0798792131996822
729,0.0815908646673402
730,0.0833202635039471
731,0.0856231531400983
732,0.0878041555737239
733,0.089964510194141
734,0.0908924931155622
735,0.0915332428567325
736,0.0928690039409152
737,0.0933040782044826
738,0.09373915246805
739,0.0941742267316175
740,0.0956777248202966
741,0.0959066501796929
742,0.0964557186195214
743,0.09700478705935
744,0.0975538554991786
745,0.0976749648548477
746,0.0975777873153471
747,0.0983097850833535
748,0.0969690110995629
749,0.0977950364245368
750,0.0977927446675298
751,0.0970428967074308
752,0.098935466805965
753,0.0975875732223343
754,0.095399043068784
755,0.0877536693638393
756,0.0801082956588945
757,0.0724629219539498
758,0.061637498639057
759,0.0524793957465916
760,0.0475115079498922
761,0.0473022892093209
762,0.0496896637297678
763,0.055366114054977
764,0.0623458122867665
765,0.0693521797372923
766,0.076608597588187
767,0.0841924861560873
768,0.0882758257861086
769,0.0910835247009886
770,0.0935304172071269
771,0.094566286399927
772,0.0956747453739579
773,0.0972008528643464
774,0.0966750922065239
775,0.0969506648524778
776,0.0972437172417906
777,0.0960803461134865
778,0.0977248855907694
779,0.0968465377526429
780,0.0980112768441904
