"wavelength","measurement"
380,0.00161713359745525
381,0.00161030418573673
382,0.00159403378004975
383,0.00162736237603061
384,0.00165451819561529
385,0.00175369896191072
386,0.00185654424679666
387,0.00197098510031025
388,0.00213565561777186
389,0.00215492961302094
390,0.00217768135369993
391,0.00218283217042977
392,0.0022134581942331
393,0.00226084469120496
394,0.00238645647541523
395,0.00253133690758426
396,0.00279374873635492
397,0.00309470381908315
398,0.00339565890181138
399,0.00369661398453961
400,0.00389736147134058
401,0.00414481140351341
402,0.00426429373304738
403,0.00434640079664633
404,0.00440710453941212
405,0.00440375394384669
406,0.00448479647168593
407,0.00454241533038959
408,0.0045714752648669
409,0.00469194612295233
410,0.00492432267140847
411,0.00491163473735857
412,0.00504488181982218
413,0.00518726688418246
414,0.00516919293173074
415,0.00523637235466408
416,0.00519707176134447
417,0.00516729013358305
418,0.00525728744320038
419,0.00515436519445467
420,0.0052878126807748
421,0.00526597730803729
422,0.00529923427613195
423,0.00533886989419485
424,0.00536145194309952
425,0.00524035338551031
426,0.00517139019643299
427,0.00503404962784881
428,0.00490227013512863
429,0.00488673941690059
430,0.00490652692032663
431,0.00511060358641441
432,0.00531293143492942
433,0.0054361868973271
434,0.00565871445796629
435,0.00576523386585331
436,0.00581782459663123
437,0.00591522230832307
438,0.0060126200200149
439,0.00611001773170674
440,0.00611455325346327
441,0.00627682151899456
442,0.00639230923917428
443,0.00649312885571767
444,0.00661183561556713
445,0.0067305423754166
446,0.00684924913526606
447,0.00698619314147215
448,0.00699452410037307
449,0.00722673512681039
450,0.00720854221181161
451,0.00710821638450747
452,0.00708186695038575
453,0.00705551751626402
454,0.0070291680821423
455,0.00699585276477721
456,0.0069762905236294
457,0.00704425638602676
458,0.00705082907655936
459,0.00715753944825493
460,0.00714063473533079
461,0.00703849054051702
462,0.00722241986599953
463,0.00700731797688352
464,0.00692213773918499
465,0.00685291731223501
466,0.00673812925755727
467,0.00672503937183553
468,0.00667450571425816
469,0.00658028626614754
470,0.00670022284023704
471,0.00670190098751281
472,0.00672145621879154
473,0.00677222023487667
474,0.00679853570274391
475,0.00685526033401617
476,0.00672369848160153
477,0.00670833253080686
478,0.00669296658001219
479,0.00667760062921752
480,0.00663344776261361
481,0.00644597195800292
482,0.00630195036064416
483,0.00629018287012408
484,0.00616188770965346
485,0.00603284239383046
486,0.00608382028642954
487,0.00614557302090757
488,0.0061778424690958
489,0.0063379888216722
490,0.00637475354783194
491,0.00639572990492695
492,0.00651717044326053
493,0.00643527057508813
494,0.00652112423824479
495,0.00643697262071839
496,0.00644218809744133
497,0.00631421823485212
498,0.00634293904640481
499,0.00622223550434632
500,0.00623394588826724
501,0.0061728059999065
502,0.00630459436926303
503,0.0063183920283889
504,0.00623151893614397
505,0.00642742663994107
506,0.00640137925965817
507,0.0064048804505224
508,0.00644119351981688
509,0.0064100705183027
510,0.00628821684595098
511,0.00636568596285138
512,0.00629895338965675
513,0.00610460010079076
514,0.00606887742226478
515,0.00596639771802884
516,0.00592194791600655
517,0.00591550297337796
518,0.00590589317735961
519,0.00597707718760128
520,0.00608874712370448
521,0.00614173783532276
522,0.00619472854694103
523,0.00624771925855931
524,0.00616209112997318
525,0.00618512938525788
526,0.00619111891972989
527,0.00615326785449018
528,0.00617409775362433
529,0.00622739654498887
530,0.00621328941712571
531,0.00620810708465665
532,0.00616221167826822
533,0.0062237752602514
534,0.00623625110733123
535,0.00613382253769418
536,0.00618458176212984
537,0.00614472973572419
538,0.00608372925222684
539,0.00604105279813853
540,0.00607386664420446
541,0.00601229622707467
542,0.00597768961579587
543,0.00599495053748092
544,0.00599579346286045
545,0.00592540788990334
546,0.00596567907919143
547,0.00593817723907421
548,0.00591067539895699
549,0.00588317355883977
550,0.00582855029115099
551,0.00587300420467428
552,0.00589520133061014
553,0.00579929588041795
554,0.00576440711633491
555,0.00580179561331114
556,0.00573172363111262
557,0.00571205656679794
558,0.00563487209792939
559,0.00557773833945028
560,0.00565550709660612
561,0.00552941893387712
562,0.00560384779833844
563,0.00549783223551582
564,0.00551315382124472
565,0.00542055559641951
566,0.00537433894281097
567,0.00530319857314718
568,0.00531862384455023
569,0.00525102935616533
570,0.00523234142391521
571,0.00522959969852156
572,0.00521084118656802
573,0.00518613483066656
574,0.0052145053724944
575,0.00513313052547013
576,0.00514455488580181
577,0.00515597924613348
578,0.00516740360646516
579,0.00517882796679684
580,0.00519025232712852
581,0.00523904042195916
582,0.00520141724329517
583,0.00522133599802457
584,0.00511215719194467
585,0.00508249860398533
586,0.00497303435404742
587,0.00487958891512644
588,0.0048325153651046
589,0.00478544181508276
590,0.00473836826506093
591,0.00473585209280388
592,0.00475295941569074
593,0.0047435319163573
594,0.00480755209789831
595,0.00476099145058476
596,0.00477968172036172
597,0.00478450729163045
598,0.00475973012582448
599,0.00474850907424593
600,0.00476338705281275
601,0.00478241984872445
602,0.00477784926927987
603,0.00473135133043815
604,0.00474605696040815
605,0.00471448380141954
606,0.0047085445010406
607,0.00468564270033455
608,0.00460463347179544
609,0.00460202265360465
610,0.00457096442069651
611,0.00450541484478673
612,0.00447085388726388
613,0.00442709351471192
614,0.00435154960048403
615,0.00437689058061171
616,0.00432811051791829
617,0.00437075263890757
618,0.00434150729262559
619,0.00435969058314579
620,0.00430031967581912
621,0.00430148685848877
622,0.00420428111607927
623,0.00420598425619455
624,0.00415418822433787
625,0.00410239219248118
626,0.0040505961606245
627,0.00403045472570605
628,0.00399375707161495
629,0.0039776640990364
630,0.00400719884286588
631,0.00394974086369424
632,0.00396125281046098
633,0.00396819507711231
634,0.00396805806451128
635,0.00396573051797547
636,0.00392929034620372
637,0.00396303224460605
638,0.00390733067838627
639,0.00393073267216561
640,0.00388567259836179
641,0.00388762411356536
642,0.00384845711560578
643,0.00381294354925367
644,0.00377742998290156
645,0.00374191641654946
646,0.00373596803189351
647,0.00372756679268393
648,0.00365120238438749
649,0.00371106017165676
650,0.0036583386584656
651,0.00364720720010533
652,0.00360812212645348
653,0.00352386356227532
654,0.00345136202751795
655,0.0034856309271338
656,0.00343836415261559
657,0.00346132541566943
658,0.0034600334377141
659,0.00356225868508885
660,0.00355579359727531
661,0.00355988074662107
662,0.00355523626299426
663,0.00352710655127875
664,0.00348543076448883
665,0.00347670314888538
666,0.00346286376431976
667,0.00349092640035666
668,0.00346798732493692
669,0.00339014987046986
670,0.00340996641080968
671,0.00335767669265578
672,0.00334925016483474
673,0.00335332469699443
674,0.00335897572600375
675,0.00334460138252787
676,0.00331647238185379
677,0.00333966601943906
678,0.00327453788012111
679,0.00325820380440207
680,0.00331984383323243
681,0.00324858565993613
682,0.00314176390966737
683,0.00306355218481071
684,0.00294515549529532
685,0.00283220565855284
686,0.00276912867698575
687,0.00272367955185021
688,0.00266670492171113
689,0.00268949967344349
690,0.00275529378071748
691,0.00281344353659267
692,0.00285132006271548
693,0.00287767341569519
694,0.00291407585492248
695,0.00291245696277102
696,0.00296909418305909
697,0.00297740002771434
698,0.00293975853244473
699,0.00295383840858174
700,0.00301314962710716
701,0.00299526403853283
702,0.00302835959557198
703,0.00302861609605185
704,0.00308593362924882
705,0.00307738441033794
706,0.00311426035050524
707,0.00317352197256626
708,0.00313749458851196
709,0.00316382388958902
710,0.00313232846686924
711,0.00316371141801616
712,0.0031371672631476
713,0.0030535557255116
714,0.00297912679570437
715,0.00286917885381803
716,0.00276149466173739
717,0.00269685574778643
718,0.00268394115758619
719,0.00268414021623716
720,0.00273690304645245
721,0.00271792036397443
722,0.00277623657805086
723,0.00278228467979951
724,0.00276942360707614
725,0.00279471846687052
726,0.00278456785200172
727,0.00282830310041642
728,0.00287087223992986
729,0.00292754875838237
730,0.00300040418548936
731,0.00307250731205714
732,0.0031269831440058
733,0.00318754499177953
734,0.00325936093211605
735,0.0032833635676515
736,0.00330408650922563
737,0.00332171296437656
738,0.00333933941952748
739,0.00335696587467841
740,0.00339866621813764
741,0.00340546992239331
742,0.00341280678410497
743,0.00342014364581663
744,0.00342748050752829
745,0.00343567688068966
746,0.00342140592000166
747,0.00342948657851148
748,0.00336570433040641
749,0.00337588294821166
750,0.00336746549174839
751,0.00334697936361918
752,0.00337646697628446
753,0.00328563753286262
754,0.00324092409311266
755,0.00299461748819953
756,0.0027483108832864
757,0.00250200427837327
758,0.00214099928983013
759,0.00184903807988067
760,0.00167607823710959
761,0.00164740311574144
762,0.00172597308351395
763,0.00184570116166304
764,0.00206013158537619
765,0.00225512987084986
766,0.00248447324484198
767,0.00268536566532986
768,0.00281319945025936
769,0.00293578419027136
770,0.00298990346223096
771,0.00300847104506897
772,0.00303813426607269
773,0.00308490786308606
774,0.0030493672988863
775,0.00304915059025842
776,0.00306375049844261
777,0.00298140652891591
778,0.00303823531855777
779,0.0029928895981012
780,0.00301443750082561
