"wavelength","measurement"
380,0.00867732841430788
381,0.00833883664857837
382,0.00802130680830086
383,0.00790452314673236
384,0.00780970923380288
385,0.00815797847754931
386,0.00850641095591521
387,0.00884793657965652
388,0.00902258274262845
389,0.00918177968659667
390,0.00909812989293185
391,0.00899115919188472
392,0.00893101856659789
393,0.00892851448153384
394,0.00915673401051451
395,0.00950094026317789
396,0.0104812891503271
397,0.0114637229277753
398,0.0124461567052235
399,0.0134285904826717
400,0.0140339377534146
401,0.0144631157965767
402,0.0149066909510093
403,0.0147975136631627
404,0.0148692312304691
405,0.0146403692935669
406,0.0147900377120897
407,0.0147765545469609
408,0.0147424294916972
409,0.0148745135838338
410,0.0154747822124383
411,0.0154893585214408
412,0.0157344521025594
413,0.0158720846957829
414,0.0158083328850499
415,0.0157603039823071
416,0.0155114755560756
417,0.015422847707366
418,0.0154155709884254
419,0.0152410883697157
420,0.0154485630848287
421,0.015397822495055
422,0.0154439978089597
423,0.0154051458649075
424,0.0153975373911926
425,0.0151160840347483
426,0.0148362068589848
427,0.014414386601391
428,0.013958256126125
429,0.014055830611135
430,0.0138793936574737
431,0.0144176213293607
432,0.0148920966023535
433,0.0153559457990777
434,0.0159119857833384
435,0.0162054749137351
436,0.0163966968753844
437,0.0166139812490878
438,0.0168312656227913
439,0.0170485499964947
440,0.0171320355593054
441,0.0174458805455732
442,0.017924399649349
443,0.0181585966742842
444,0.0184751917336751
445,0.0187917867930661
446,0.019108381852457
447,0.0193380433037269
448,0.0194339658997059
449,0.0200154496179439
450,0.0197867532776765
451,0.019548204127903
452,0.0193643789501719
453,0.0191805537724407
454,0.0189967285947095
455,0.018844207235797
456,0.0186116466637418
457,0.0187353045861402
458,0.0187754836750963
459,0.0189261928523761
460,0.0188247520393513
461,0.0185896462291685
462,0.0190669099312104
463,0.0184572208998455
464,0.0181025746644322
465,0.0178611334896771
466,0.0175346424181537
467,0.0174500106381007
468,0.0171822991918816
469,0.0170172482542693
470,0.017341443427342
471,0.0171573121461843
472,0.0172102957631415
473,0.017256831335664
474,0.0172949809131387
475,0.0174781630692826
476,0.016946423285645
477,0.016907182586453
478,0.016867941887261
479,0.016828701188069
480,0.0167680924355767
481,0.0163178209323382
482,0.0159835982672034
483,0.0158598338078699
484,0.0154574585115696
485,0.0151024472201471
486,0.0151919633032737
487,0.0153352324300978
488,0.0154176513455158
489,0.0158676591070258
490,0.015884881242464
491,0.016027243520851
492,0.0162704051380435
493,0.0161231691564593
494,0.0162958380853698
495,0.0160600583204352
496,0.0161117233017916
497,0.0158226766607672
498,0.0159077017483222
499,0.0155825908609652
500,0.0157137482962554
501,0.0155260476690558
502,0.015850489619235
503,0.0159274794492601
504,0.0158399520253223
505,0.0163299617154622
506,0.0162612915130777
507,0.0162948190553245
508,0.016468920166054
509,0.0164864208843176
510,0.0162199861551614
511,0.0165445351172082
512,0.01631033565157
513,0.0159894962255936
514,0.0159937455490386
515,0.0157976284604867
516,0.015792133574263
517,0.0158605880049835
518,0.0159193659505216
519,0.0162372317904521
520,0.0166037966723914
521,0.0168647030339008
522,0.0171256093954102
523,0.0173865157569196
524,0.0173954347243165
525,0.0174751381622245
526,0.0176038197133842
527,0.0175550685011314
528,0.0177578624756124
529,0.0180342430712914
530,0.0180922677474434
531,0.018135135519752
532,0.0181803866933908
533,0.0184107401621425
534,0.0184509961991715
535,0.0183551785257697
536,0.0185035562641284
537,0.0184828087546322
538,0.0183308981817286
539,0.0182660589921788
540,0.0183691458805507
541,0.0182919485299338
542,0.0181301148818708
543,0.0182720300852649
544,0.0183822884582644
545,0.0181704006631613
546,0.0184149200173891
547,0.0184001650104733
548,0.0183854100035575
549,0.0183706549966417
550,0.0182318869162289
551,0.0183989844751919
552,0.018523369779329
553,0.0183359646819071
554,0.0182498723142505
555,0.0184405123800416
556,0.0181973708158489
557,0.0181587135141699
558,0.0179496293957608
559,0.0177512769274606
560,0.0180056161754704
561,0.0176217037817407
562,0.0178442748810489
563,0.0174736012945223
564,0.0175094422507808
565,0.0172216762889665
566,0.0170395955455819
567,0.0167647171244365
568,0.0168310883441801
569,0.0165113284139919
570,0.0164472563727181
571,0.0164044595416761
572,0.0163622845488159
573,0.0162575015900946
574,0.0163180862251562
575,0.0160090591497286
576,0.0160444884325647
577,0.0160799177154007
578,0.0161153469982367
579,0.0161507762810727
580,0.0161862055639088
581,0.0163664272532705
582,0.0162840048739407
583,0.0163150309000683
584,0.0160261821589115
585,0.0159517307143302
586,0.0155317899256737
587,0.0153532984714977
588,0.0151911799582845
589,0.0150290614450713
590,0.0148669429318581
591,0.0149715116215178
592,0.0149992671532149
593,0.014943694515605
594,0.0151338097925017
595,0.0151880346967775
596,0.0151844643513397
597,0.0151464890368327
598,0.0151720393059368
599,0.0151578069504592
600,0.0152129011394293
601,0.0153176745310745
602,0.0153528763498491
603,0.0152293993759695
604,0.0153369016946412
605,0.0151933134679639
606,0.0151938210148465
607,0.0151052543119254
608,0.0148522767816094
609,0.0149074146279899
610,0.0146851129423027
611,0.0145708706437603
612,0.0144359339915316
613,0.0143300042520676
614,0.0141129721239168
615,0.0143288523218251
616,0.0140743570181187
617,0.0142015194558019
618,0.0141810379398778
619,0.0141846269377136
620,0.0140475991503331
621,0.0141837040528776
622,0.0138456281933448
623,0.0137969202131637
624,0.013675130585742
625,0.0135533409583203
626,0.0134315513308985
627,0.01343877440402
628,0.01337143396253
629,0.013311453222085
630,0.0134410041886814
631,0.0133004845024255
632,0.0133433401410004
633,0.0134395369572314
634,0.0134966827080583
635,0.0135587907936296
636,0.0133590384152126
637,0.013548013057116
638,0.0134041390415711
639,0.013413449765929
640,0.0133778381673803
641,0.0132689209490373
642,0.0131721668943204
643,0.0130442918489448
644,0.0129164168035692
645,0.0127885417581936
646,0.0128500021668989
647,0.0128378686458926
648,0.012663493660025
649,0.0128278731676377
650,0.0126801885057308
651,0.0127314972994917
652,0.0126169498853695
653,0.0123802933812533
654,0.0122128181152923
655,0.0123057047007445
656,0.0121842663694669
657,0.0122149961905516
658,0.0123225194722791
659,0.0126282978682045
660,0.0126940691249436
661,0.0127517907927261
662,0.0127036586046669
663,0.0126374777690023
664,0.0125264976613722
665,0.0125259909764997
666,0.0125298374153605
667,0.0125874355572768
668,0.012574315363772
669,0.0123253062675651
670,0.0124372678383177
671,0.012393313065009
672,0.0123339663865023
673,0.0123501644023391
674,0.0124526491465332
675,0.0124265166809883
676,0.0124469124567855
677,0.0125643354176019
678,0.0124250327941153
679,0.012492984914412
680,0.0128094279769197
681,0.0126289999200034
682,0.0122713323807736
683,0.0120772891191356
684,0.0116550134057406
685,0.0113319706482048
686,0.0111507992216613
687,0.0110912123708887
688,0.0110988789389019
689,0.011416745177562
690,0.0117907962695725
691,0.0123355585729668
692,0.0127497086433937
693,0.0132023415839702
694,0.0137176782223832
695,0.0139458492234137
696,0.0145421563112174
697,0.0149223354176797
698,0.0150994117368125
699,0.0155440023536197
700,0.0162450435122384
701,0.0165214219738434
702,0.0170903822217114
703,0.0176507030690703
704,0.018274414834875
705,0.0185758807830869
706,0.0192824862705128
707,0.019936482743048
708,0.0203147060235732
709,0.0209681926769147
710,0.0212753795197983
711,0.0216893217712194
712,0.0221455052947826
713,0.0217243062110246
714,0.0217536808919178
715,0.0211559335712819
716,0.020881716148501
717,0.0208095793172873
718,0.0211218852750995
719,0.0216881539979184
720,0.0224227838413274
721,0.0226061117595404
722,0.0235972225545384
723,0.0240533934100558
724,0.0244203799202109
725,0.0250010771492701
726,0.0253909666029458
727,0.0263012321230665
728,0.0272110469661235
729,0.0281312191086177
730,0.0293411498540061
731,0.0306272448599868
732,0.0317382450791215
733,0.0330423904328578
734,0.0338830542490505
735,0.0345699383134514
736,0.0355236774406135
737,0.0360785246922914
738,0.0366333719439693
739,0.0371882191956471
740,0.0382576688731022
741,0.038643171546142
742,0.039217208868419
743,0.0397912461906961
744,0.0403652835129732
745,0.0408338242383379
746,0.0409519707937296
747,0.0414468142477963
748,0.0411445561392449
749,0.0416827913984356
750,0.0418777298836656
751,0.0418195949102723
752,0.0426345043750295
753,0.0423728204735054
754,0.0415601632422913
755,0.0384790977472556
756,0.0353980322522199
757,0.0323169667571841
758,0.0276304555510104
759,0.0236409558945204
760,0.0213512315444539
761,0.0210515134037934
762,0.0219347971027408
763,0.0242629450708498
764,0.0273072195559687
765,0.0302614625070265
766,0.0336899929863036
767,0.0370651055648111
768,0.0389533698110787
769,0.0404505127086302
770,0.0416376763269719
771,0.0422566651762603
772,0.0428038006974169
773,0.0434534066696079
774,0.0433467737610564
775,0.0433829578349648
776,0.0437212421001764
777,0.0431642709689267
778,0.0438256328698489
779,0.0434229761182938
780,0.0441179133896674
