"wavelength","measurement"
380,0.00204349807421492
381,0.00199703039124327
382,0.00201811359771015
383,0.00200319761508018
384,0.00204980584304943
385,0.00220966334240202
386,0.00233369410802719
387,0.00248749568435704
388,0.00263074546762389
389,0.00278251722063296
390,0.0027648445091097
391,0.0027717619867745
392,0.00280641923207783
393,0.00285831542612908
394,0.00297952769047203
395,0.00313884526442592
396,0.00347386190526243
397,0.00385711377485972
398,0.00424036564445701
399,0.0046236175140543
400,0.00487235638318714
401,0.00517911517495261
402,0.00536039765430603
403,0.0053905651811752
404,0.00546326051062325
405,0.0054529324968829
406,0.00552309634835412
407,0.00559422515852754
408,0.00562212397410123
409,0.00573267650484444
410,0.00598930769142628
411,0.00603109396475215
412,0.00610746683293769
413,0.00627422651604766
414,0.00626347377903051
415,0.00629588471966985
416,0.00623725556677612
417,0.00622360418128939
418,0.00627590774114083
419,0.00610603966409865
420,0.00625169171882124
421,0.00624207354203581
422,0.00627242839742498
423,0.00631428737195705
424,0.00634306072893982
425,0.00621051177460695
426,0.00614834827286021
427,0.00600004931950506
428,0.00576827152846238
429,0.00576971712342227
430,0.00579868963722978
431,0.00595934393241353
432,0.00619424340696418
433,0.006365998619195
434,0.006642329332774
435,0.00681201697940088
436,0.00685897116256412
437,0.00696747106561017
438,0.00707597096865622
439,0.00718447087170228
440,0.00722264522203827
441,0.00739691096954263
442,0.00759005208215843
443,0.00767215633819715
444,0.00783149530356348
445,0.00799083426892981
446,0.00815017323429614
447,0.00829055951143979
448,0.0083607885786387
449,0.0086675499838201
450,0.00861773075571441
451,0.00853907181811084
452,0.00849353643971532
453,0.0084480010613198
454,0.00840246568292428
455,0.00837768978903591
456,0.00825356749161572
457,0.00842302997989504
458,0.00839048776505501
459,0.00850220943448967
460,0.00849601856712706
461,0.0083866488301603
462,0.00862501238704314
463,0.00836398641840095
464,0.00828067732766995
465,0.00818230260705911
466,0.00802674529414574
467,0.00799801208571267
468,0.00793015437570975
469,0.00780812632000573
470,0.00798691191573394
471,0.00794899882764527
472,0.00799435673963349
473,0.00806058309414068
474,0.0080707056281887
475,0.00818830950034362
476,0.00800019796414383
477,0.00798451082839047
478,0.0079688236926371
479,0.00795313655688373
480,0.00793290158490095
481,0.00768719208779315
482,0.00757899034886322
483,0.00753014545269546
484,0.00734712134943495
485,0.00720207216395393
486,0.00723203644274437
487,0.00728967857193699
488,0.00731516333038153
489,0.00751358720169398
490,0.00755874361864038
491,0.00760182124379781
492,0.00777403429962291
493,0.00768445341554317
494,0.00778751279435018
495,0.00769474167805925
496,0.00772550017103397
497,0.00759246675432429
498,0.00762267335059457
499,0.00745946093003789
500,0.00746299951751816
501,0.00740147833686194
502,0.00750459597330871
503,0.0075377005631778
504,0.00743968591832216
505,0.00769021151479839
506,0.00763038512130643
507,0.00765940916554546
508,0.00769038083710021
509,0.0076741471208667
510,0.00754793739259389
511,0.00766087340722358
512,0.0075660483559053
513,0.00735003014721819
514,0.0073012379695703
515,0.00718219752539429
516,0.00711201818870497
517,0.00707613578058649
518,0.00703674062328109
519,0.0071394551328852
520,0.00725931339505265
521,0.00732782393395949
522,0.00739633447286633
523,0.00746484501177317
524,0.00738333548199136
525,0.00740072149239604
526,0.0073968706993178
527,0.00734239813916228
528,0.00737273431850123
529,0.00741788660114838
530,0.00741713734007303
531,0.00740691203924587
532,0.00737109503684057
533,0.00741671719617829
534,0.00741541356513867
535,0.00733000908102352
536,0.00738941384918264
537,0.00733380179173872
538,0.00723808431722124
539,0.00719600842922051
540,0.00721364737384832
541,0.00716488342168634
542,0.0070965713658609
543,0.00711938557191428
544,0.00714079184225135
545,0.00706026237798412
546,0.00709554391606772
547,0.00706823064812056
548,0.0070409173801734
549,0.00701360411222624
550,0.00692200152163532
551,0.0069671597647382
552,0.00698448190643667
553,0.00690247068124472
554,0.00687047984374494
555,0.00690719317344166
556,0.00681921285844965
557,0.00678396355996759
558,0.00672244831182778
559,0.00666427862134637
560,0.00673309549801426
561,0.0065877884556609
562,0.00667959431176518
563,0.00658803564608195
564,0.00657592036070433
565,0.00645662533488801
566,0.00643585746789438
567,0.00635057664800589
568,0.00637113850101361
569,0.00627177031663833
570,0.00625118952578914
571,0.00624578241834258
572,0.00622866731300221
573,0.00620604897819143
574,0.00624063054362768
575,0.00617073531160139
576,0.00618226018241419
577,0.00619378505322699
578,0.00620530992403979
579,0.00621683479485259
580,0.00622835966566539
581,0.00630070501260513
582,0.00625957074163708
583,0.00628848971535902
584,0.00616481478160754
585,0.00617587014920819
586,0.00602862336981532
587,0.00592595612511356
588,0.00585795882287936
589,0.00578996152064515
590,0.00572196421841094
591,0.00572394448769402
592,0.00574830274672443
593,0.00573938285041435
594,0.00579305326197474
595,0.00575551192620619
596,0.00578658147828792
597,0.00576364654290193
598,0.00576215246647914
599,0.00574058860592412
600,0.00576584145359292
601,0.00577267137476082
602,0.00578432158476615
603,0.00573448665960439
604,0.00575855865327856
605,0.00571004220489707
606,0.00570899963401903
607,0.00568779432014217
608,0.00559044706707103
609,0.00558401767935
610,0.00552417937696427
611,0.00547257456079188
612,0.00544211655008498
613,0.00538349712155325
614,0.0052958292675472
615,0.00529501273659337
616,0.00527046900503695
617,0.00530667441149796
618,0.00528185355974626
619,0.0052724994505831
620,0.00523114192377577
621,0.00525926704611498
622,0.005137850967884
623,0.00511463779533217
624,0.005054861028473
625,0.00499508426161383
626,0.00493530749475466
627,0.0049155936987747
628,0.00486883501865511
629,0.00484433273109905
630,0.0048783324398925
631,0.0048073213719335
632,0.00482111057831016
633,0.00483980002903327
634,0.00482084856778121
635,0.00484307932264402
636,0.00480446309113642
637,0.00483825373751163
638,0.0047752126339986
639,0.00479235530220041
640,0.00475163754651974
641,0.0047592515384159
642,0.00470586001063576
643,0.00466556457954163
644,0.00462526914844751
645,0.00458497371735339
646,0.00457798540593444
647,0.00457368455923012
648,0.00445902638385108
649,0.00454323750440712
650,0.00447359618434959
651,0.00449856697169169
652,0.00445249031938354
653,0.00434728265818706
654,0.00426629913582638
655,0.00428725254580155
656,0.00424037837026359
657,0.00425751099860682
658,0.00425878744367316
659,0.00436031404066306
660,0.0043807986521031
661,0.00437086693343791
662,0.00437968784187126
663,0.00432282175331576
664,0.00429623817687681
665,0.00430457146877219
666,0.00428869225857848
667,0.00429304644234139
668,0.00427212205962365
669,0.00417329031903388
670,0.00419366926174411
671,0.0041450386455215
672,0.0041379117221371
673,0.00413752585735391
674,0.00413397070599507
675,0.0041182417021364
676,0.00409321224841702
677,0.00409933638582832
678,0.00403570347450721
679,0.00401150049873107
680,0.00409187558037833
681,0.00398634566668843
682,0.00389300189894663
683,0.00382065188060314
684,0.00363586646296032
685,0.00348991974477911
686,0.00338078463689752
687,0.00326846195925272
688,0.00320111095089437
689,0.00322098803089876
690,0.00331200297228852
691,0.00339830312824925
692,0.00340046825497881
693,0.00341943724560227
694,0.00348052128178927
695,0.00347732500667153
696,0.00352723692120593
697,0.00351963684096575
698,0.00347237381956586
699,0.00346069743198188
700,0.00350959180860322
701,0.00348465475565729
702,0.00350209596393939
703,0.00349848386431717
704,0.00354369667522013
705,0.00354320728800225
706,0.00358646240092117
707,0.00361812539068291
708,0.00358466853240238
709,0.00361275746379629
710,0.00356387895931267
711,0.0035820759548159
712,0.00355530097130766
713,0.0034497775090922
714,0.00337742459761886
715,0.00320575293950871
716,0.00307192375032969
717,0.00298957894208721
718,0.00296555782961329
719,0.00293855905926421
720,0.00296028643049179
721,0.00291973609520225
722,0.00302849580953714
723,0.00300398719036802
724,0.00299416438885114
725,0.00298824280781613
726,0.00298238942437355
727,0.00299956356968709
728,0.00302545925175634
729,0.00304925977348163
730,0.00314820677121706
731,0.003243324418762
732,0.003271375191717
733,0.00334665043239159
734,0.00341842056780306
735,0.00343939624470068
736,0.00346307544032366
737,0.00346560208269141
738,0.00346812872505917
739,0.00347065536742692
740,0.00354943347519028
741,0.00352444944558395
742,0.00353118805832134
743,0.00353792667105873
744,0.00354466528379612
745,0.00356051964177636
746,0.00353453631696755
747,0.00352987100140592
748,0.00348265089517841
749,0.00348944755957782
750,0.00343336278851991
751,0.00345989321793362
752,0.00347897205550262
753,0.00336403727188509
754,0.00337646304611489
755,0.00313529628353211
756,0.00289412952094933
757,0.00265296275836655
758,0.00227493592019798
759,0.00193080273696254
760,0.0016827468464418
761,0.00158924848818205
762,0.00164486577371816
763,0.00177000360039468
764,0.00200487250456373
765,0.00218341323363063
766,0.00247114077346627
767,0.00266932755116742
768,0.00285206529029589
769,0.00292917220079804
770,0.00301121994605911
771,0.00305609891856711
772,0.00307005328326237
773,0.00312118835420955
774,0.00308061518137316
775,0.00305594050506576
776,0.00308081851537642
777,0.00301917912088768
778,0.00305521146660633
779,0.00301429259999206
780,0.00303931652860604
