"wavelength","measurement"
380,0.0289780734385274
381,0.0286757172792482
382,0.0288128404861374
383,0.0276944828188729
384,0.0284171218822542
385,0.0298482300167944
386,0.0325635353234354
387,0.0335429963569795
388,0.0357282902578282
389,0.0366905922906633
390,0.0377293391629332
391,0.0380749632290144
392,0.0388351466603339
393,0.0404581478846291
394,0.0413926412673712
395,0.0443587583157288
396,0.0497144683785266
397,0.0567276362517795
398,0.0637408041250325
399,0.0707539719982855
400,0.0739658373893874
401,0.0807233864090978
402,0.085465521147184
403,0.0872481846957906
404,0.0899177225384784
405,0.0918013446335688
406,0.0940426008158785
407,0.0967817485519603
408,0.0989959655036843
409,0.10276516327385
410,0.107873021838987
411,0.110067762139493
412,0.114123391724842
413,0.117876681076507
414,0.118530277360994
415,0.120881146705088
416,0.120853914244956
417,0.12062816661508
418,0.123013675318107
419,0.121732164829035
420,0.125393133855995
421,0.124692802644254
422,0.126346552141345
423,0.126683947857876
424,0.127824842843832
425,0.12617069263681
426,0.124742050653821
427,0.121764131221052
428,0.118424262809472
429,0.117793319470617
430,0.11776264603712
431,0.122320033630645
432,0.126553932462703
433,0.130472253515942
434,0.136053909632367
435,0.138852464061532
436,0.140474199011172
437,0.142663172297294
438,0.144852145583416
439,0.147041118869538
440,0.147746523294701
441,0.150516369149604
442,0.154138857038164
443,0.155328137836522
444,0.157439635093806
445,0.15955113235109
446,0.161662629608374
447,0.164635327723675
448,0.164202510027468
449,0.170509090074892
450,0.169098627270892
451,0.16827731149384
452,0.167588810229508
453,0.166900308965177
454,0.166211807700845
455,0.166384629064948
456,0.166323441411638
457,0.16823415559903
458,0.169337729843724
459,0.171242921206427
460,0.172091884386393
461,0.170087518709993
462,0.174950788766366
463,0.169987030296959
464,0.168592101545445
465,0.167883601495995
466,0.165936245265771
467,0.165825284793938
468,0.164205741583119
469,0.164179197259962
470,0.166896208991388
471,0.167624647476405
472,0.168900931653211
473,0.17187974993486
474,0.172338846604388
475,0.175112856889629
476,0.172157275254198
477,0.172491981706979
478,0.172826688159759
479,0.173161394612539
480,0.173644001242223
481,0.169342285146413
482,0.166604419609248
483,0.166027976577548
484,0.161706144850105
485,0.157500369218621
486,0.159429640143188
487,0.160519645661254
488,0.162012103470135
489,0.165956920419884
490,0.167056848224768
491,0.16919535919551
492,0.172455318558837
493,0.171188650879752
494,0.173690562739936
495,0.171411208252569
496,0.172216134287305
497,0.169464064229572
498,0.170112395366571
499,0.166432058610715
500,0.167255273409277
501,0.166102706523287
502,0.168705178113185
503,0.169577304200273
504,0.167733637806653
505,0.172852849104328
506,0.17208130352399
507,0.172664373163686
508,0.173780255537479
509,0.173851529609594
510,0.171016203589781
511,0.173129142125461
512,0.172199442666367
513,0.167006854010273
514,0.165933869392903
515,0.163150723287244
516,0.161707916076482
517,0.161162510657935
518,0.160397886711421
519,0.163446256633211
520,0.166551927025799
521,0.168571099386728
522,0.170590271747657
523,0.172609444108585
524,0.171781737928961
525,0.171780412778726
526,0.172824975652797
527,0.171722630931276
528,0.172144883743332
529,0.174887632891722
530,0.175060320552774
531,0.175546541652279
532,0.174406814713803
533,0.176229011452601
534,0.176818796717151
535,0.174736592150869
536,0.176744650585765
537,0.175439827457473
538,0.174201435117101
539,0.172975196993052
540,0.173969750408971
541,0.173005897431891
542,0.17172432830624
543,0.172632520627921
544,0.174018714158664
545,0.172784119422959
546,0.17424277366488
547,0.174181675766443
548,0.174120577868006
549,0.174059479969569
550,0.172840057654037
551,0.174022951301972
552,0.175465675728549
553,0.173845193975998
554,0.173063286435036
555,0.175061893433776
556,0.17226311494981
557,0.172185981749326
558,0.170570711050837
559,0.169318689031921
560,0.171132342318252
561,0.168537574749729
562,0.1712692716849
563,0.168671930217852
564,0.169543275513258
565,0.167303132672219
566,0.166232683668043
567,0.164949850787738
568,0.166017633208826
569,0.164273949646067
570,0.164115113117801
571,0.16472499187196
572,0.16466836583699
573,0.164668076144691
574,0.166204782111717
575,0.163706874121692
576,0.164288714850414
577,0.164870555579136
578,0.165452396307858
579,0.166034237036581
580,0.166616077765303
581,0.168490226096899
582,0.167786419410166
583,0.168927814841772
584,0.166008129448385
585,0.165850387114057
586,0.16190073549794
587,0.15994802222464
588,0.158491050522915
589,0.15703407882119
590,0.155577107119464
591,0.156561400733913
592,0.158406394250295
593,0.158553104666111
594,0.16091892647617
595,0.160980038593313
596,0.16206925981759
597,0.162772958620391
598,0.163384669929197
599,0.163595952307026
600,0.164481920829119
601,0.165533187102026
602,0.16647665144729
603,0.165862633017223
604,0.167619639077309
605,0.167017956037646
606,0.167005529379731
607,0.166436034431229
608,0.164634690839125
609,0.164698249404564
610,0.163313183783512
611,0.162681484815424
612,0.161448472338338
613,0.160913128292797
614,0.159133080149185
615,0.161339895674085
616,0.159120233313622
617,0.160474323916413
618,0.160609188058886
619,0.161420039503097
620,0.161059405883868
621,0.162114076905885
622,0.159332468959805
623,0.159124638692162
624,0.158519572343967
625,0.157914505995772
626,0.157309439647577
627,0.157132142715736
628,0.156834388195392
629,0.156498054495417
630,0.157659271306684
631,0.155723499106478
632,0.15630430465219
633,0.157697244204271
634,0.15808230286569
635,0.158176732922315
636,0.156559842487216
637,0.158705620523835
638,0.157440920826438
639,0.158152100059355
640,0.157409535886538
641,0.156439596550398
642,0.156175131189154
643,0.155179107182602
644,0.15418308317605
645,0.153187059169497
646,0.153490045452613
647,0.153609008494046
648,0.150586122658753
649,0.153170675174299
650,0.151722053105479
651,0.153181635264615
652,0.151273032902451
653,0.149408636690815
654,0.146290394846102
655,0.148131700478071
656,0.146048766608672
657,0.147629675224252
658,0.149389738879767
659,0.153407433274661
660,0.154898354965613
661,0.154933290980545
662,0.156165640969796
663,0.155279779246065
664,0.154541610827161
665,0.154951685770938
666,0.154865999504364
667,0.155565606096547
668,0.156088295759404
669,0.153104489727806
670,0.154043613092958
671,0.153536522609395
672,0.153040506865622
673,0.153022399207596
674,0.153830555634982
675,0.153770183896503
676,0.153765742182523
677,0.154950249303669
678,0.153130558137634
679,0.153290306620184
680,0.15581729562766
681,0.154098895108114
682,0.151033246883405
683,0.148945141626393
684,0.144831358015182
685,0.14157920946846
686,0.139086443434108
687,0.136719586225106
688,0.136249745776226
689,0.137137212216814
690,0.139459130801059
691,0.142667468343216
692,0.144055692706715
693,0.145535218159766
694,0.147890450312769
695,0.149037499526034
696,0.151607809411646
697,0.153340696625257
698,0.152569789876794
699,0.153706537222944
700,0.157077501807723
701,0.157067804305156
702,0.160128602777047
703,0.161839267807418
704,0.164980158603399
705,0.165992258203708
706,0.169335550926809
707,0.172457131361554
708,0.173493938702313
709,0.176418180831821
710,0.175858159301205
711,0.176538651653257
712,0.178202483135861
713,0.172631186738663
714,0.170942392811177
715,0.163592690203119
716,0.15796920355161
717,0.153775668167659
718,0.152715729236652
719,0.154386276649248
720,0.157403144955293
721,0.156473835236019
722,0.161933226466739
723,0.162079925165836
724,0.162506041588776
725,0.163942942041321
726,0.1639599624458
727,0.167854377119654
728,0.169831045579413
729,0.174821120978416
730,0.178920600052202
731,0.184596273533658
732,0.190182844140873
733,0.196488213497468
734,0.200374210869926
735,0.202598304638089
736,0.205773972261205
737,0.207853186483353
738,0.209932400705501
739,0.212011614927649
740,0.216159002260314
741,0.217797459373561
742,0.219998710654455
743,0.22219996193535
744,0.224401213216244
745,0.225291931441158
746,0.22556098553313
747,0.227328503683298
748,0.225656165299574
749,0.227706393615462
750,0.228135424375608
751,0.227149413731629
752,0.231696913684837
753,0.230292275580606
754,0.228261048227076
755,0.21519803703791
756,0.202135025848744
757,0.189072014659578
758,0.166962365927656
759,0.148552800666747
760,0.134967694880165
761,0.133198159777538
762,0.137767902073119
763,0.146922303724973
764,0.160662958393547
765,0.17292573125237
766,0.188981663706006
767,0.203801101655683
768,0.212535704608166
769,0.218588590569277
770,0.224501432988535
771,0.226518678231663
772,0.228930417303286
773,0.231979890002778
774,0.230515191568434
775,0.231089576038696
776,0.231808478356291
777,0.22997413633032
778,0.233170632160244
779,0.230695187417564
780,0.233266346236468
