"wavelength","measurement"
380,0.0032281259291131
381,0.00317516168332496
382,0.00325704250864841
383,0.00326645766431401
384,0.00332607607335217
385,0.00360403977974775
386,0.00378775818377037
387,0.00406041563489427
388,0.00431745387114188
389,0.00450542902888001
390,0.00455859086819405
391,0.00461848918979562
392,0.00470407216550332
393,0.00486617795548976
394,0.00507417197593634
395,0.00541810659742327
396,0.00609997437359136
397,0.00693338181756316
398,0.00776678926153495
399,0.00860019670550675
400,0.0090616425222218
401,0.00984661322102907
402,0.0103674252763993
403,0.0106186045364484
404,0.0109896465301455
405,0.0112095646950546
406,0.0115926792632511
407,0.011987511312788
408,0.0122977657564589
409,0.0127858233184037
410,0.0135847878400739
411,0.0138811977914952
412,0.0143977900636311
413,0.0149477397398366
414,0.0151664846113483
415,0.0155170012691523
416,0.0155281108647968
417,0.0155907966031484
418,0.0158719669698827
419,0.0156991304342306
420,0.0161786069859516
421,0.0162148251301959
422,0.0163994793350937
423,0.0166148573597765
424,0.0167512131162612
425,0.0165315546051173
426,0.0164030441121868
427,0.0160333241579841
428,0.0155817549647957
429,0.0156231838239959
430,0.0157099662416185
431,0.0163160673978964
432,0.0169286690495784
433,0.0175540561784664
434,0.0183259299577725
435,0.0187512152404564
436,0.019001352717377
437,0.0193822483292648
438,0.0197631439411525
439,0.0201440395530402
440,0.0203351469460343
441,0.0208146759146021
442,0.0213951386603803
443,0.0216635640956994
444,0.0221240145438924
445,0.0225844649920855
446,0.0230449154402785
447,0.0235362250315982
448,0.0236227695187434
449,0.0246760059867799
450,0.0246095659549509
451,0.0244336794820083
452,0.0243960863244287
453,0.024358493166849
454,0.0243209000092694
455,0.0243419327416706
456,0.0242879379706627
457,0.0246023473562412
458,0.0247082731954433
459,0.0251105831037176
460,0.0251018913967613
461,0.02486347404905
462,0.0256471355454598
463,0.0249633146833092
464,0.0247141867466124
465,0.024584347456178
466,0.0242384537773155
467,0.0242379024014917
468,0.0240628532044889
469,0.0238507262726777
470,0.0243564586000565
471,0.0243564923193375
472,0.0245453912850751
473,0.0248359426883606
474,0.0249675150083183
475,0.0253805991027048
476,0.0248362512428671
477,0.0248684233291129
478,0.0249005954153586
479,0.0249327675016043
480,0.0249116335097257
481,0.0243048638286795
482,0.0239070115960347
483,0.0237945699858809
484,0.0232003302266825
485,0.0226980622053677
486,0.0228678306257261
487,0.0230381763877406
488,0.0232299741021903
489,0.0238808927804296
490,0.0240595271678754
491,0.0242011011723482
492,0.0248080593574345
493,0.0245618354015429
494,0.0249501156446711
495,0.0246489373726634
496,0.0247954062237176
497,0.0244124884488773
498,0.0245481637914998
499,0.0240808097321647
500,0.0242286406896872
501,0.0240077677236417
502,0.0244513710365795
503,0.0246169816175437
504,0.0244082201586477
505,0.0251517290051777
506,0.0250772287749447
507,0.0252112585872128
508,0.0253658539991105
509,0.0254322374756702
510,0.0249755719204754
511,0.0253549282725758
512,0.0252772541037411
513,0.0245601759331292
514,0.0244908656146116
515,0.0240840847498538
516,0.023964757869904
517,0.0239408246568812
518,0.0238905397838898
519,0.0243402820832439
520,0.0248392336514013
521,0.0251382826935663
522,0.0254373317357314
523,0.0257363807778964
524,0.0256323960311818
525,0.0257243289924794
526,0.0258596433314799
527,0.0256929284348685
528,0.0258940411684762
529,0.026212948470667
530,0.0262259413794112
531,0.0262893295021477
532,0.0262290946551404
533,0.0264229058733889
534,0.0265091102188688
535,0.0262294217601511
536,0.0264500921442411
537,0.0262982691895439
538,0.0261284397740707
539,0.0259443159439731
540,0.0260767823096795
541,0.0258847334607282
542,0.02571109215567
543,0.0258363411330847
544,0.0259783267123068
545,0.0257795392258409
546,0.0259679720134395
547,0.0259260081790666
548,0.0258840443446938
549,0.0258420805103209
550,0.0256489359344051
551,0.0257796281249786
552,0.0259907339347867
553,0.0257047363503175
554,0.0256103989034082
555,0.0258307582046374
556,0.0254485757649196
557,0.0253703288525149
558,0.025185678165215
559,0.0249890272216853
560,0.0252177510721112
561,0.0247698482987404
562,0.0251612851459808
563,0.0247411876987006
564,0.0248671256372744
565,0.0244894588119167
566,0.0243520548618724
567,0.0240407519943889
568,0.0242015022790105
569,0.023869925393983
570,0.0238316043888551
571,0.0238695088896745
572,0.0238135767713573
573,0.0237553997330735
574,0.0238864487589993
575,0.0235573952598993
576,0.0235599766953627
577,0.0235625581308262
578,0.0235651395662897
579,0.0235677210017531
580,0.0235703024372166
581,0.023811306857209
582,0.0236019421814514
583,0.0237148392562736
584,0.0232543459441817
585,0.023185138694572
586,0.0225381431649506
587,0.0222092240685269
588,0.021944637619782
589,0.021680051171037
590,0.0214154647222921
591,0.0214267274605355
592,0.0216120038753076
593,0.0215727804162805
594,0.0218648786530531
595,0.021724682418978
596,0.0218458698013295
597,0.0218412361341729
598,0.0218326367644054
599,0.0217823403125364
600,0.0218830101985235
601,0.0219228525894538
602,0.0219845972185392
603,0.0217988289103607
604,0.0219541725689683
605,0.0217625077692472
606,0.0217701037707973
607,0.0215916631316382
608,0.0212727959088723
609,0.0212066575722159
610,0.0209984970387966
611,0.0207932220576078
612,0.0205988879167431
613,0.0204966227717194
614,0.0201455793652403
615,0.0202997982286018
616,0.0200216089892742
617,0.0201337944753551
618,0.020071413234541
619,0.0200677935275077
620,0.0199459319239687
621,0.0200058340879471
622,0.0195994453832685
623,0.019538191265581
624,0.0193734767482894
625,0.0192087622309978
626,0.0190440477137062
627,0.0190019760820669
628,0.0188730573963407
629,0.0187594075075108
630,0.0188808502650309
631,0.0185457344969297
632,0.0185664232861995
633,0.0186224916473305
634,0.0185650665972521
635,0.0186022921583694
636,0.0183642278208818
637,0.0184795808822703
638,0.0182434710464148
639,0.0182602671673984
640,0.0180891156453779
641,0.0179688335459222
642,0.0177671424583008
643,0.0175880662209057
644,0.0174089899835106
645,0.0172299137461155
646,0.0172589807407229
647,0.0171683686113011
648,0.0167295692222323
649,0.0169805972440039
650,0.0167091707444701
651,0.0167912710944277
652,0.0165277619448494
653,0.0161757523267354
654,0.0157900956712894
655,0.015909260012222
656,0.0156592753214466
657,0.0157401390374473
658,0.0158266616411892
659,0.0161591878963274
660,0.0162159269879923
661,0.0162124859976963
662,0.0162023370925979
663,0.0160108014831699
664,0.0158784056387151
665,0.0158470842427281
666,0.0158059963527568
667,0.0157354839190816
668,0.0157010631889376
669,0.0153624491625155
670,0.0153467630182928
671,0.0152420174541803
672,0.0151296946552126
673,0.0151066105876475
674,0.0150767025820387
675,0.0149886255996152
676,0.0148968472281811
677,0.0149665228223998
678,0.0147300053515505
679,0.0146350220760664
680,0.0149427553450651
681,0.0146378417411121
682,0.0143135310455593
683,0.0140528733262196
684,0.0135957666226539
685,0.0132258784968538
686,0.0129684312737977
687,0.0127071783539308
688,0.0125935131245863
689,0.0126865290349783
690,0.0128831684415398
691,0.0131925273141923
692,0.0132709248988709
693,0.0134118516488089
694,0.0136523457446044
695,0.0137079457399062
696,0.0140136596734583
697,0.0141034299579805
698,0.0140026768811169
699,0.0141139071470618
700,0.0144071149195186
701,0.0143461604810676
702,0.0146254382039805
703,0.014715158154889
704,0.0150464151231084
705,0.0151072370740794
706,0.0153355775245828
707,0.0155820159943389
708,0.0156438751393299
709,0.0158696795448128
710,0.015747346919244
711,0.0158211305024687
712,0.0159682753405096
713,0.0153927092664159
714,0.0151607088299857
715,0.0144941229409913
716,0.013902334442577
717,0.0134608422538516
718,0.013357528864026
719,0.0134684391206116
720,0.0136560583851342
721,0.0135075630576067
722,0.0138973993227015
723,0.0139140182536291
724,0.0138662068504725
725,0.0139443647184442
726,0.0138848376360126
727,0.0141232706940454
728,0.0142459867113614
729,0.0145323602419182
730,0.0148550047019952
731,0.0152575482872852
732,0.0156277040630452
733,0.0160200376259065
734,0.0162945051587407
735,0.0163869654136657
736,0.016574502830539
737,0.0166425454533546
738,0.0167105880761703
739,0.016778630698986
740,0.0169977884148997
741,0.0170398477347381
742,0.0170872016954468
743,0.0171345556561554
744,0.0171819096168641
745,0.0172087705566938
746,0.0171341783267252
747,0.0171454014876315
748,0.016857131243946
749,0.016928175488367
750,0.0168845294483957
751,0.0167322151486718
752,0.0169152577501469
753,0.0165941166131243
754,0.0164861665803444
755,0.0154656367428467
756,0.014445106905349
757,0.0134245770678512
758,0.0117953242715288
759,0.0103885048889503
760,0.009373123937796
761,0.00915177811226075
762,0.00946491962011538
763,0.00999685024950933
764,0.0108445221013241
765,0.0116331554968621
766,0.0126534152366664
767,0.0136383992014458
768,0.0141490269505324
769,0.0144791621726417
770,0.0147617754455038
771,0.0148278866810471
772,0.0150222764889975
773,0.0150897135662774
774,0.0149181242046952
775,0.0148846937060074
776,0.0149027430706335
777,0.0146568933379987
778,0.014777689844859
779,0.01459123579624
780,0.0146644957165491
