"wavelength","measurement"
380,0.00457813916245173
381,0.00441108093592494
382,0.00445637941762459
383,0.00430588895305111
384,0.00462828515707901
385,0.00496747739140363
386,0.00523730905657563
387,0.0056789929252843
388,0.00598403691456731
389,0.00619621144605826
390,0.00632314999316589
391,0.00647775970566496
392,0.0065769295523828
393,0.00674754045369457
394,0.00685500793666116
395,0.00759230248339025
396,0.00848560936852536
397,0.00957404421353581
398,0.0106624790585463
399,0.0117509139035567
400,0.0123166776531304
401,0.0136322247508281
402,0.0142389875754829
403,0.0147344665705225
404,0.0151019877135868
405,0.0155853038562705
406,0.0161115127906471
407,0.0166394389006532
408,0.0170004657677779
409,0.0177654798753223
410,0.0188996524793567
411,0.0193631125284268
412,0.0199181093587412
413,0.0207254662713973
414,0.0208778356119339
415,0.0213532613841297
416,0.0214944161490132
417,0.0214075661529494
418,0.0221067495836735
419,0.0216770476986024
420,0.0225443560422874
421,0.0224696683735837
422,0.0228321253786201
423,0.0226527063732306
424,0.0231627426359607
425,0.0228273149698656
426,0.0227118632887067
427,0.0221582925601131
428,0.0215276063077344
429,0.0215346816967114
430,0.0216402328137412
431,0.0225254263242417
432,0.0232061598215257
433,0.0241085065761642
434,0.0250367330098572
435,0.0256808367956868
436,0.0260066546723058
437,0.0264748741159685
438,0.0269430935596312
439,0.0274113130032939
440,0.0276902260412093
441,0.0284091846330281
442,0.0292717456602718
443,0.0294105221315896
444,0.0300165284528262
445,0.0306225347740627
446,0.0312285410952992
447,0.0318776612998708
448,0.0320701864268708
449,0.0333355864136991
450,0.0332031115627543
451,0.0330595600018131
452,0.0330003484100094
453,0.0329411368182058
454,0.0328819252264021
455,0.0330285056541502
456,0.0328442232027505
457,0.0332071471068822
458,0.033506822450875
459,0.0340719659344063
460,0.0341112019131228
461,0.0337326285422784
462,0.034724648680019
463,0.0338261059978398
464,0.0335937452032454
465,0.0333278371276981
466,0.0328670027797781
467,0.0328820596613884
468,0.0325338315783497
469,0.0323208781673755
470,0.0330259050398473
471,0.0330370642280837
472,0.0332091037658477
473,0.03372831742687
474,0.0337887674159448
475,0.0343770012519901
476,0.0337302880278859
477,0.03376224683089
478,0.0337942056338941
479,0.0338261644368981
480,0.033757445174096
481,0.0329171408865007
482,0.0324253788409805
483,0.0321247650383937
484,0.031349095206081
485,0.0306064774043436
486,0.0308971866371404
487,0.0311624352876977
488,0.0314660908067006
489,0.032225984189839
490,0.0326355423450623
491,0.0328567189688691
492,0.0335941547916741
493,0.0331827314037053
494,0.033833669354923
495,0.0334024883260972
496,0.0334470937419452
497,0.0329605198127836
498,0.033234213301812
499,0.0325054985922332
500,0.0327598827139003
501,0.032432485057668
502,0.0330324771416065
503,0.0331973768887743
504,0.0329976275057349
505,0.033938542159524
506,0.0338852403532439
507,0.0340519787929149
508,0.0341920521020956
509,0.0342091673002418
510,0.0336395234816844
511,0.0342056554389874
512,0.0339889213415227
513,0.0329816849202288
514,0.0328328290672634
515,0.0323250865875592
516,0.0321037640157039
517,0.0319339261586579
518,0.0318274458855519
519,0.0325350210378397
520,0.0331310682376617
521,0.0335101632810315
522,0.0338892583244013
523,0.0342683533677711
524,0.0341550073592902
525,0.0341609932832193
526,0.0343382459960869
527,0.0340369101102936
528,0.0343209159132612
529,0.0347452037474228
530,0.0347499036187997
531,0.0348627662326625
532,0.0346825858854198
533,0.0350059357989495
534,0.0350386093373396
535,0.0346871072486401
536,0.0349332350840981
537,0.0347776424527598
538,0.0344788107231899
539,0.0341682292353075
540,0.0343474700951104
541,0.0340955750585646
542,0.0339330049516646
543,0.033952989257147
544,0.0342302967757666
545,0.0338657427293442
546,0.0340521786277795
547,0.0340057343332292
548,0.0339592900386789
549,0.0339128457441285
550,0.0335710732954199
551,0.0337810299628946
552,0.0341029189771533
553,0.0337327393200781
554,0.0335893648593801
555,0.0338524896889881
556,0.0333566381030527
557,0.0332217863850067
558,0.0329629268671173
559,0.032711198238839
560,0.0329649740505529
561,0.03241229315819
562,0.032935991866485
563,0.0323613658186815
564,0.0325238722536544
565,0.0321889090845741
566,0.031930807103629
567,0.0314147124098114
568,0.0316267322646477
569,0.0312303727754315
570,0.0312290205761755
571,0.0312693349365704
572,0.0312333753272003
573,0.0311446419784624
574,0.0313258135896341
575,0.0308976098060157
576,0.0309101742142335
577,0.0309227386224512
578,0.0309353030306689
579,0.0309478674388866
580,0.0309604318471044
581,0.0313313520264272
582,0.0309793926814709
583,0.0311347807769539
584,0.030541199052709
585,0.0304303511571201
586,0.0295617335071037
587,0.0290371743751059
588,0.0287168642945151
589,0.0283965542139243
590,0.0280762441333335
591,0.0281237316462521
592,0.0283052425588652
593,0.02827005166908
594,0.0285093620161046
595,0.0284730601352637
596,0.0285376256689013
597,0.0285557513846613
598,0.0285319168301588
599,0.0285137471104844
600,0.0286085284940108
601,0.0286202403660938
602,0.0287166171367637
603,0.0285736022942588
604,0.0287913658826513
605,0.0284882133455864
606,0.0284370816833972
607,0.0282306699691635
608,0.0278235865308448
609,0.0277641843168913
610,0.0274544470549483
611,0.0271756708744652
612,0.0268766848010652
613,0.0267767882388483
614,0.0263181517983693
615,0.0265641172164827
616,0.0261462740711787
617,0.0263248103482388
618,0.0262197838067965
619,0.0262774913067193
620,0.0260495027396086
621,0.0261419909776452
622,0.0255973290258184
623,0.0255236796037268
624,0.0253193738445058
625,0.0251150680852848
626,0.0249107623260638
627,0.0248039532972731
628,0.024639343358122
629,0.0244862385737484
630,0.0246876563923754
631,0.024151720579118
632,0.0243310133538105
633,0.0242522902481368
634,0.0242338804424414
635,0.0243472515645004
636,0.0239397268120231
637,0.0241353368015316
638,0.0237803493392359
639,0.0238596337817414
640,0.0236005896366588
641,0.02347385208095
642,0.0232506773977064
643,0.0230411192227939
644,0.0228315610478815
645,0.022622002872969
646,0.0226108047625846
647,0.0224333830954416
648,0.0218964488310968
649,0.0222571652257969
650,0.0219046993697076
651,0.0219679301866473
652,0.0216392477285697
653,0.0212171289962072
654,0.0207555547939079
655,0.0208064544288837
656,0.0205322216293606
657,0.0205880471573447
658,0.0206988962238033
659,0.0211743317772391
660,0.0212592619051116
661,0.0212553698645887
662,0.0212640271988751
663,0.0210313643951668
664,0.0208769240153425
665,0.0207951642760985
666,0.020742498337503
667,0.0207688559106903
668,0.0206737141857259
669,0.0201184267451187
670,0.0203399141260991
671,0.0200974146904567
672,0.0199022339122031
673,0.0198492493756801
674,0.0198813558495585
675,0.0197255936655571
676,0.0196110355084342
677,0.0197402225533171
678,0.0193478429980685
679,0.0192565442013783
680,0.0196137156504214
681,0.0192023063376646
682,0.0188170446277892
683,0.0184151880278795
684,0.0178289278395772
685,0.0173196857252775
686,0.0170379883323826
687,0.0166615136706204
688,0.0164694526222673
689,0.0165081671811474
690,0.016754604103477
691,0.0171755627302159
692,0.0170394546071547
693,0.0171825508684882
694,0.017468084737443
695,0.0175545795074954
696,0.0178095272661266
697,0.0179250814646802
698,0.0177291425070162
699,0.0177943661717944
700,0.0181884727679897
701,0.0179931302683439
702,0.0182322250407604
703,0.0183552042963425
704,0.0186399439374469
705,0.0186501882606147
706,0.0189048353593107
707,0.0190908696425423
708,0.0191773824682193
709,0.0193413857075578
710,0.0192792076864925
711,0.0191949440311344
712,0.0192874649607161
713,0.0186434292716611
714,0.0183516767236461
715,0.0174901602356816
716,0.0167592342849333
717,0.0161090725032038
718,0.0160857757571511
719,0.0159678293519499
720,0.0162382339906484
721,0.0161311594075837
722,0.0165467210888468
723,0.0164709969716773
724,0.0164432060850228
725,0.0163439482933871
726,0.0163481244784668
727,0.0166282485896834
728,0.016631044714797
729,0.017016812630518
730,0.017396455268095
731,0.0178603263966543
732,0.0181288182096627
733,0.018599484459982
734,0.0188023021225399
735,0.0189710373066834
736,0.0192710061214695
737,0.0192748984710389
738,0.0192787908206084
739,0.0192826831701779
740,0.0196299579226892
741,0.0196245169485164
742,0.0197048505545501
743,0.0197851841605838
744,0.0198655177666175
745,0.0198014299061054
746,0.0196484521589431
747,0.0197117181893012
748,0.0194346167301658
749,0.0193868084536244
750,0.0194156990294455
751,0.0191818370197124
752,0.0194238859397266
753,0.0190633249653502
754,0.0189361021476894
755,0.0177336369753473
756,0.0165311718030051
757,0.015328706630663
758,0.0137593835088771
759,0.0120070890989003
760,0.0108809713557538
761,0.0106586690078304
762,0.0110231108865536
763,0.011621217986724
764,0.0125633189821015
765,0.0134893748966006
766,0.0146763398798528
767,0.01562592883686
768,0.0161167937331212
769,0.0165558877398484
770,0.0170977102015397
771,0.0170656629072914
772,0.017143211482498
773,0.0173517043383272
774,0.0171279809358482
775,0.0170896254552637
776,0.0170346063290718
777,0.0168130242959399
778,0.0171148405770072
779,0.0166753502495584
780,0.0169121015246333
