"wavelength","measurement"
380,0.00134750353563534
381,0.00119254808989318
382,0.00145895948919402
383,0.00134295414690476
384,0.00141874468079803
385,0.00147748352499904
386,0.00156749467674461
387,0.00165452284416838
388,0.00187218589882206
389,0.00201004803774268
390,0.00202921346930763
391,0.00202142359358861
392,0.00199784209964155
393,0.00210628492141197
394,0.00219846852707101
395,0.00241076855006636
396,0.00270003866960712
397,0.00310050186059453
398,0.00350096505158194
399,0.00390142824256936
400,0.0041749841630959
401,0.00452851643070646
402,0.00482375012946534
403,0.00497798163941458
404,0.00527664329282863
405,0.00550256762931638
406,0.00568646272594408
407,0.00596891772715302
408,0.00618550350317799
409,0.00647846806872068
410,0.00707015888620352
411,0.00731606338708939
412,0.00770099997459442
413,0.00809897734865477
414,0.00821166456580416
415,0.00848750236978229
416,0.00854404212511339
417,0.00863520522425851
418,0.00895009440012055
419,0.00880812063156327
420,0.00924150632978774
421,0.00922634464262136
422,0.00941706283072257
423,0.00954574966161644
424,0.00963290452780468
425,0.00946391975082739
426,0.00954311415552672
427,0.00926316226487584
428,0.00901411069081642
429,0.00902468140576843
430,0.00904788150629748
431,0.00949376508967613
432,0.00974204294168722
433,0.0101861058727995
434,0.0106111097592936
435,0.0108366400824953
436,0.0109520617683162
437,0.0111674901951158
438,0.0113829186219154
439,0.011598347048715
440,0.0116681175965194
441,0.011932847179351
442,0.012262500032756
443,0.0123641319196698
444,0.0126249826837156
445,0.0128858334477613
446,0.0131466842118071
447,0.0133478991957038
448,0.0134380121749508
449,0.0139632035438692
450,0.0139555362151121
451,0.0138774185589237
452,0.0138719017867629
453,0.0138663850146022
454,0.0138608682424415
455,0.0139416120658292
456,0.0138257667352364
457,0.0141589798953704
458,0.0141900568363953
459,0.0144360407402178
460,0.0144907184810412
461,0.0142991986371317
462,0.0146913092160436
463,0.0143311538364208
464,0.0142590645983747
465,0.0141684750152708
466,0.0139932478990352
467,0.0140032391566571
468,0.0138218865269024
469,0.0137791434628916
470,0.0141086119884073
471,0.0140248113838173
472,0.014202645329169
473,0.014383887951485
474,0.0144132844116912
475,0.0146467830979231
476,0.0143253081504256
477,0.0143575892201617
478,0.0143898702898977
479,0.0144221513596338
480,0.0143323670499348
481,0.0140222089759899
482,0.0137700192193993
483,0.013722954179314
484,0.013373111878156
485,0.0130494893026188
486,0.0131820624364981
487,0.013248789643468
488,0.0134091901125153
489,0.013736141760609
490,0.0138500988492443
491,0.0139754053988303
492,0.0142801578820794
493,0.0141460221753714
494,0.0143984735288802
495,0.0141982064716477
496,0.0142434924676415
497,0.0140644534509603
498,0.0141325653463474
499,0.0138336540187001
500,0.0139488303167784
501,0.0138056454114169
502,0.0140371742751776
503,0.0141131543666626
504,0.0139700808342613
505,0.0144029313578037
506,0.014383704132005
507,0.014445873260684
508,0.0145553074368134
509,0.0145253013634143
510,0.0142845002398891
511,0.0145268402403893
512,0.0144258455273645
513,0.014027890549352
514,0.0139469113625266
515,0.013670034867222
516,0.0135891651781012
517,0.0135687221824745
518,0.013565726970999
519,0.0137778166580344
520,0.0140918612603299
521,0.0142402091233092
522,0.0143885569862886
523,0.0145369048492679
524,0.0144684647249551
525,0.0145399036336432
526,0.0145433432708016
527,0.0144488944219993
528,0.0145757843695612
529,0.014764985063371
530,0.014770313797855
531,0.0148036576116534
532,0.0147250157710095
533,0.014904079640802
534,0.0148814861996198
535,0.0147364495701976
536,0.0147961972548384
537,0.0147387081044048
538,0.0146663181151145
539,0.0145112592824306
540,0.0145832326582778
541,0.0144365264417035
542,0.0143907311814023
543,0.0144300972145509
544,0.0145409904229263
545,0.0144046324193973
546,0.0145046062428948
547,0.0144694010753028
548,0.0144341959077108
549,0.0143989907401188
550,0.0143104130232271
551,0.0143941547276231
552,0.0144932801700805
553,0.0143554605774821
554,0.0142603338118634
555,0.0143534507013835
556,0.0141457157937829
557,0.0141427988402356
558,0.0140150956285238
559,0.013893842387368
560,0.0139635768578276
561,0.0137810104533233
562,0.0139901828906565
563,0.0137590546658218
564,0.013781236382745
565,0.0135838273141686
566,0.0135109118706888
567,0.013341258872277
568,0.0134706129746505
569,0.0132256324749548
570,0.0131992611298975
571,0.0132544631418477
572,0.0132346609152209
573,0.0131948081770055
574,0.0132495308315482
575,0.0130473667942081
576,0.0130532591260139
577,0.0130591514578197
578,0.0130650437896256
579,0.0130709361214314
580,0.0130768284532373
581,0.0132255506860149
582,0.0131015316592721
583,0.0131926286771392
584,0.0129196189179926
585,0.012873690693133
586,0.0124887173659387
587,0.0123069906391092
588,0.0121797493350629
589,0.0120525080310165
590,0.0119252667269702
591,0.0119751998934851
592,0.0120609609528566
593,0.0120504930368194
594,0.0121971193194391
595,0.0121352529790399
596,0.0121775355150568
597,0.0122428147117812
598,0.0122140499020255
599,0.0122032646449785
600,0.0122682315191594
601,0.0122770274365264
602,0.0123254641468055
603,0.0122687189534575
604,0.0123797123603847
605,0.012293410264091
606,0.0122413415335686
607,0.0121863543784917
608,0.0119594093044771
609,0.0119741710237133
610,0.0117903445505343
611,0.0117806659762673
612,0.0116335910203105
613,0.0115437793123416
614,0.0113396474085509
615,0.0114840383207568
616,0.0112793186027523
617,0.011374656148047
618,0.0113190601370903
619,0.011381745406479
620,0.0112167120583311
621,0.0113412411928757
622,0.0110588032880459
623,0.011055334747418
624,0.0109533013942418
625,0.0108512680410656
626,0.0107492346878894
627,0.010765408468342
628,0.0106471257325208
629,0.0106357787866925
630,0.0106921102444065
631,0.0105172794366347
632,0.0105400625249496
633,0.0105606511123842
634,0.0105315475103631
635,0.0105302196283931
636,0.0104270550295869
637,0.0104779873730635
638,0.0103770235436445
639,0.0103754332396521
640,0.0102817383701924
641,0.0102015367585296
642,0.0101476446887572
643,0.0100575269117363
644,0.00996740913471547
645,0.00987729135769464
646,0.00989411344897979
647,0.00981749459714055
648,0.00957070926078494
649,0.00972228870156697
650,0.00953855216226272
651,0.00963016381704059
652,0.00949262355770073
653,0.00929839127663395
654,0.00911130961218481
655,0.00912196307059806
656,0.00906096117906615
657,0.00905047929907074
658,0.00911482406328034
659,0.00933849793846769
660,0.00935670105203077
661,0.00935676961355176
662,0.00934198420558299
663,0.00927806450368016
664,0.00915542885637243
665,0.00917081810832516
666,0.00918214045646627
667,0.00910323609616058
668,0.00909345433923491
669,0.00886752861242874
670,0.00890319647345472
671,0.00885646198814509
672,0.00879844383081237
673,0.00878327442283747
674,0.00880756655056605
675,0.00870357336653603
676,0.00866900668957567
677,0.00872781267238167
678,0.00860099397790316
679,0.0085182340891731
680,0.00870299066400651
681,0.00851284924287842
682,0.00835135351474005
683,0.0081426112167473
684,0.00792940415463312
685,0.00774071767884446
686,0.00757443153519631
687,0.00742955290335276
688,0.00731992261648006
689,0.00738948192074147
690,0.00748508947752115
691,0.00763048165652094
692,0.00767446138780734
693,0.00768379261116914
694,0.00784005633930506
695,0.00790289902875328
696,0.00807351699037033
697,0.00808503791792404
698,0.00800087611028643
699,0.0080667950235967
700,0.00821800421504157
701,0.00816486219601788
702,0.00832804465624291
703,0.00838350999610793
704,0.00853480875707071
705,0.00858371747120732
706,0.00870974649539893
707,0.00883093585850529
708,0.00882242942168824
709,0.00892361741656745
710,0.00886421284506302
711,0.00893258667773355
712,0.00898387906418324
713,0.00866652136897496
714,0.00852024995382244
715,0.00813381517403456
716,0.00781801274365475
717,0.00756943477566576
718,0.00755390752476077
719,0.00755523776517365
720,0.00769678330837001
721,0.00752084063952302
722,0.00780509082004387
723,0.00776752385936243
724,0.00780604468427766
725,0.00778714777582908
726,0.00777462902932767
727,0.00788121072433313
728,0.00793572720684667
729,0.00808638481928886
730,0.00827730373531491
731,0.0084897347043012
732,0.00864210469209344
733,0.00893166227668429
734,0.00908170072531842
735,0.00912942884584794
736,0.00924806447298921
737,0.00924647429346737
738,0.00924488411394553
739,0.00924329393442369
740,0.00942055522684487
741,0.0094221524412802
742,0.00946129374862662
743,0.00950043505597304
744,0.00953957636331946
745,0.0095609926048825
746,0.00948566110584138
747,0.00954625767665578
748,0.00939017035542827
749,0.00939210622634555
750,0.00934696577013044
751,0.00927304198035401
752,0.00947811947925857
753,0.00916602458952784
754,0.0091630954870376
755,0.00862436560150139
756,0.00808563571596518
757,0.00754690583042896
758,0.00661244834595277
759,0.00585727551369288
760,0.00529493000414648
761,0.0051873938919214
762,0.00532588817260548
763,0.0057069244559635
764,0.00613536304846861
765,0.00659682464061679
766,0.00720719313830267
767,0.00765668503451386
768,0.00798974196398115
769,0.00813739819120968
770,0.00834745475098459
771,0.00836789106758522
772,0.00845046484265113
773,0.00849925452776972
774,0.00837473684325852
775,0.00835703261314958
776,0.00831519541764148
777,0.00824666388798716
778,0.00835441237229763
779,0.00819149117429765
780,0.00824709422199077
