"wavelength","measurement"
380,0.0058261818532349
381,0.00581534295138676
382,0.00589704292720155
383,0.00590750082786404
384,0.0061798594496609
385,0.00636804815312114
386,0.00676465247651082
387,0.00721049047617207
388,0.00780904473014143
389,0.00788592358006148
390,0.00810100750699937
391,0.00807703126998782
392,0.0081955807611374
393,0.00855678555342519
394,0.00869980295693397
395,0.00936371834801374
396,0.0104629774660792
397,0.0118571095770538
398,0.0132512416880285
399,0.0146453737990031
400,0.0152972459958692
401,0.0165679572723389
402,0.0173104551514855
403,0.0177765728867467
404,0.0181891843612306
405,0.0184940863838254
406,0.0192194313100598
407,0.0194914202059455
408,0.0200504103554141
409,0.020618355609016
410,0.0218089821286074
411,0.0221709718429168
412,0.0229433853494407
413,0.0236814056869869
414,0.0239915582086826
415,0.0244878292079499
416,0.0244782807603863
417,0.0243066662080398
418,0.0249196098296736
419,0.0244599237653491
420,0.0253532463373099
421,0.0252951341139777
422,0.0254236357041371
423,0.0257901189562151
424,0.0258481451161607
425,0.0255582798999678
426,0.0253958933636317
427,0.0246201005206381
428,0.0240925648062148
429,0.0240416456783146
430,0.024161784015318
431,0.0250140380527617
432,0.0259393350143143
433,0.0268263130150112
434,0.0278718090482281
435,0.0285640202346511
436,0.0290380960882178
437,0.0295276704180805
438,0.0300172447479432
439,0.0305068190778059
440,0.0307826022627136
441,0.0313743465265558
442,0.0322899912523361
443,0.0326090489828709
444,0.0332357138051269
445,0.0338623786273828
446,0.0344890434496388
447,0.0351496061485893
448,0.0353735770915019
449,0.0367693735300876
450,0.0367136390596322
451,0.0364257969761942
452,0.0364085763450446
453,0.036391355713895
454,0.0363741350827454
455,0.0361921003606121
456,0.0364052427195574
457,0.0367511630188442
458,0.0369444701453938
459,0.0375576250909474
460,0.037587897057023
461,0.0373453183833561
462,0.0384884601208095
463,0.0373910810291871
464,0.0369670003873087
465,0.0368153984623635
466,0.0362334404080118
467,0.0363035300320689
468,0.0359090161587984
469,0.0355429569819588
470,0.0364371633758867
471,0.0364469189534715
472,0.0366483769034877
473,0.0371511805656534
474,0.037270750543368
475,0.0378582021643986
476,0.0370060597376854
477,0.0371052683276437
478,0.037204476917602
479,0.0373036855075603
480,0.0370792619147141
481,0.036256058568874
482,0.0356292519273344
483,0.0355714394540992
484,0.0345997740728576
485,0.0338045914080682
486,0.0341221068868425
487,0.0342402390313916
488,0.0346442139819879
489,0.0354762826692582
490,0.0357296146369041
491,0.0360404478219377
492,0.036955403383792
493,0.0364530100178445
494,0.0370890017822917
495,0.036780663123803
496,0.036792257791273
497,0.0362345493751084
498,0.0364475055539154
499,0.0356104978405833
500,0.0358272346374494
501,0.0356107038766794
502,0.0361925333794055
503,0.0363742045485473
504,0.0360801766013655
505,0.0371061753811733
506,0.0371479467353457
507,0.0372550792297822
508,0.0375138209332293
509,0.0374067699040332
510,0.0370179033807846
511,0.0373507187642719
512,0.0372591921910009
513,0.0361867830822667
514,0.0360035817977186
515,0.0354125705021298
516,0.0351428577423881
517,0.0350153240703547
518,0.0349400529055275
519,0.0356774211585928
520,0.0362633770914836
521,0.0367469311427818
522,0.0372304851940799
523,0.037714039245378
524,0.0374053780941427
525,0.0374956093962005
526,0.0377948809209632
527,0.037489492568717
528,0.0376733005396278
529,0.0382740728673851
530,0.0382073512486485
531,0.0382517820243126
532,0.0381621797785141
533,0.0384633624573537
534,0.0385662464914698
535,0.0380710110792443
536,0.0384174877023015
537,0.03815349343819
538,0.037865830309066
539,0.0376484426600984
540,0.0376910303420631
541,0.0374473615500329
542,0.0372276042616487
543,0.0373823700418435
544,0.037600442653105
545,0.0372076554259128
546,0.0374275265150334
547,0.037364786958061
548,0.0373020474010887
549,0.0372393078441163
550,0.0369897074802176
551,0.0370808766577271
552,0.0374803315126539
553,0.0369910437939993
554,0.0369449270743579
555,0.0372599754602522
556,0.0365551268762048
557,0.0364772980828382
558,0.0362010916262151
559,0.0358964740952856
560,0.0362649824216044
561,0.0355030011736825
562,0.0361050688842413
563,0.0355841149681354
564,0.0357740314687342
565,0.0351741299169315
566,0.0350299385211356
567,0.034538010263464
568,0.034736382758236
569,0.0343422076779024
570,0.0341126378037948
571,0.0342539474382116
572,0.0341992624874405
573,0.0340627807367873
574,0.0341951467919705
575,0.0337549623920049
576,0.0337652193368023
577,0.0337754762815997
578,0.0337857332263971
579,0.0337959901711945
580,0.0338062471159919
581,0.034067805772378
582,0.0338094210216049
583,0.0339608105649757
584,0.0333542312100553
585,0.0330204609304086
586,0.0321828257749815
587,0.0316276456666916
588,0.0312305369954579
589,0.0308334283242242
590,0.0304363196529905
591,0.0305000006522862
592,0.030769558457825
593,0.0307564473299588
594,0.0310613057075663
595,0.0308923956455981
596,0.0310072697612594
597,0.031142545886784
598,0.0309790228363813
599,0.0309138195354648
600,0.0310861003818499
601,0.0311038108146627
602,0.0312177096951479
603,0.0309915769870246
604,0.031099107250762
605,0.0309522489085735
606,0.0308966638015701
607,0.0306636492418905
608,0.0300985405983858
609,0.03008093243788
610,0.0297460554009135
611,0.0294852872072794
612,0.029180539500678
613,0.0289929357434009
614,0.0285381371570797
615,0.0288134806708413
616,0.0282932267543615
617,0.0285640099214249
618,0.0283839017332178
619,0.0284509787290213
620,0.0282417940613133
621,0.0282536448306013
622,0.027693684003152
623,0.0276125538312246
624,0.0273505788462359
625,0.0270886038612472
626,0.0268266288762585
627,0.0268431807804946
628,0.0266273578726354
629,0.0264397368415974
630,0.0266062184283765
631,0.0261844388848188
632,0.0261854400602648
633,0.0262557272195617
634,0.026044017682591
635,0.0262818754769087
636,0.0258890156195275
637,0.0260349212678902
638,0.0257358067461484
639,0.0257350955629814
640,0.0255278448584545
641,0.0253262140513365
642,0.0250914571028926
643,0.024805985239144
644,0.0245205133753954
645,0.0242350415116468
646,0.0243055544772637
647,0.0241214744072913
648,0.0236393860006935
649,0.0238229448984438
650,0.0235247551199879
651,0.0236402025308482
652,0.0232545079359827
653,0.0228025790127465
654,0.0222570943590576
655,0.0224427413056512
656,0.0220266155098992
657,0.0222118276694852
658,0.0221886818246325
659,0.0226973131028443
660,0.0228263651084315
661,0.0228130487026446
662,0.0227048746071444
663,0.0225339969397386
664,0.0223081031542845
665,0.0222661154160691
666,0.022236464070767
667,0.0221214945584991
668,0.022160635596354
669,0.0216283664912844
670,0.0215698335111474
671,0.0214547345275165
672,0.0212317511841705
673,0.0212867864641731
674,0.0212076604898151
675,0.0211071260636426
676,0.0210390298911512
677,0.0209752610715046
678,0.0206746273957249
679,0.020618483777528
680,0.021030279079943
681,0.020597332652575
682,0.0201723914053202
683,0.019776034597331
684,0.0190637145207056
685,0.0185354031798654
686,0.0182499319540608
687,0.0177909454827583
688,0.0176958634857944
689,0.0177294517050715
690,0.0180522031002479
691,0.0182711912740308
692,0.0185618511556706
693,0.0185644207139497
694,0.0188388691575687
695,0.0190738719630633
696,0.0192515196522458
697,0.0195274741357755
698,0.0192978254268075
699,0.0193878429711321
700,0.0198556607791383
701,0.019700214553903
702,0.0200679007634437
703,0.0200619332424069
704,0.0205512437638798
705,0.0205315726861488
706,0.0209135501790203
707,0.0212547498964002
708,0.021231382168663
709,0.0215200784759634
710,0.0214635801577021
711,0.0213822710747276
712,0.0214833591542812
713,0.020827970467676
714,0.0204785247372134
715,0.019421003886494
716,0.0187683995701819
717,0.0180983526331857
718,0.0179418552112333
719,0.017999240223828
720,0.0183426682254278
721,0.0181127932162783
722,0.0186648361046915
723,0.0186425606057423
724,0.0184516050098908
725,0.0186558867096957
726,0.0184813473787914
727,0.0189233184086025
728,0.0189237266913822
729,0.0193298171542385
730,0.0197519892092203
731,0.0202770222524201
732,0.0208298183004116
733,0.0213159121725341
734,0.0216767383994597
735,0.0216865298695426
736,0.0220285337451634
737,0.0221001622755081
738,0.0221717908058528
739,0.0222434193361975
740,0.0225706209516481
741,0.0226003302169767
742,0.0226389187479259
743,0.0226775072788752
744,0.0227160958098244
745,0.0227726807714278
746,0.0227357451374232
747,0.0227242628320683
748,0.0223840945269363
749,0.022418533514741
750,0.022285722186233
751,0.0220665577933791
752,0.0223813434279338
753,0.0219653152095148
754,0.0218340688025561
755,0.0205294107906616
756,0.0192247527787671
757,0.0179200947668726
758,0.01580515676266
759,0.0139365284484754
760,0.0125270317110998
761,0.0122533750605191
762,0.0126726234188439
763,0.0133432067178931
764,0.0144757737069035
765,0.0155489887090147
766,0.0166817229573686
767,0.0181235824883973
768,0.0188503788659301
769,0.0191255515160503
770,0.0195485179948198
771,0.0197400411929936
772,0.0198154206549825
773,0.0199623645924298
774,0.0198538490439244
775,0.0197456519505411
776,0.0197512879974765
777,0.0193995473423318
778,0.0197997807669862
779,0.0193319758409957
780,0.0196047926611891
