"wavelength","measurement"
380,0.02849934025841
381,0.0270471454393541
382,0.0276369893608779
383,0.0275009365477074
384,0.0276746309356454
385,0.0294886726879316
386,0.0312624606911761
387,0.0328775860372881
388,0.0348209896141993
389,0.0364378495666164
390,0.0365496607208091
391,0.0369817327273387
392,0.0375106973921373
393,0.0395877219207186
394,0.0404293862351708
395,0.0439520664471024
396,0.0492946128759273
397,0.0561824221643021
398,0.0630702314526768
399,0.0699580407410516
400,0.0743269521202394
401,0.0808811766364866
402,0.0847173284406781
403,0.087275981044818
404,0.0899393145499618
405,0.0926146734718133
406,0.0959509501450991
407,0.0982599353623038
408,0.100414795206094
409,0.104434326531797
410,0.111060656432661
411,0.113076109503426
412,0.117911203017391
413,0.122251230518221
414,0.123861030473904
415,0.126337650941202
416,0.127456058186389
417,0.127051594070849
418,0.130551251171651
419,0.129347003195105
420,0.133570242324433
421,0.13441104567388
422,0.135608910722605
423,0.137431556324827
424,0.13847045682173
425,0.136450138434122
426,0.135385473785872
427,0.132525323321935
428,0.129066167151608
429,0.128679384939021
430,0.128938762647166
431,0.134180132246612
432,0.138640597043361
433,0.143621474819821
434,0.149561925504229
435,0.152791483095944
436,0.154366875525297
437,0.156739827748971
438,0.159112779972646
439,0.16148573219632
440,0.162732898871567
441,0.165400492428545
442,0.168641955701094
443,0.169935018312442
444,0.172261068444721
445,0.174587118576999
446,0.176913168709278
447,0.179077349783063
448,0.179164771022868
449,0.186043917038119
450,0.184227377798514
451,0.182700454712204
452,0.181989161047725
453,0.181277867383245
454,0.180566573718766
455,0.180723156081109
456,0.18042217945329
457,0.182229828934873
458,0.182998521772018
459,0.185943243894412
460,0.185993552601063
461,0.183842216681904
462,0.189644350147009
463,0.184461710303796
464,0.182792394150116
465,0.181481020151526
466,0.179760464591961
467,0.179750017985666
468,0.178476116550261
469,0.177032543781904
470,0.181040532201969
471,0.181557313783919
472,0.182345197668336
473,0.18576767233436
474,0.186023569637188
475,0.190161755037446
476,0.185565982559123
477,0.186146001691857
478,0.186726020824592
479,0.187306039957327
480,0.186894028897969
481,0.182470475680873
482,0.179645742290908
483,0.178922191752143
484,0.174136565160889
485,0.170263447047683
486,0.171495787518753
487,0.173124009417587
488,0.17391131257766
489,0.179042541760555
490,0.179756722355158
491,0.181222472699149
492,0.185866284495605
493,0.183611280530152
494,0.186107389312314
495,0.184372965792558
496,0.184751645833823
497,0.181916764454817
498,0.182247110294797
499,0.178613551812711
500,0.179345728401894
501,0.177877819660463
502,0.180461260881154
503,0.181486711933112
504,0.179480255469414
505,0.185398671974129
506,0.18410247258367
507,0.18466465232135
508,0.185824984666318
509,0.185584005472598
510,0.182575404932831
511,0.184643663222836
512,0.183032503637762
513,0.177853701076519
514,0.176741378805729
515,0.173618581768802
516,0.17177237088068
517,0.171231959468924
518,0.170655690075543
519,0.173982669275703
520,0.176389276290503
521,0.178436697035458
522,0.180484117780413
523,0.182531538525367
524,0.181463531248259
525,0.181540607758376
526,0.182435624133076
527,0.180951716948475
528,0.181676727422414
529,0.184622655748968
530,0.184192508741486
531,0.184765505759275
532,0.183831165164151
533,0.185598063574295
534,0.186331069716743
535,0.183752352428016
536,0.18546746596343
537,0.184135677906648
538,0.182790085818895
539,0.18166899774898
540,0.182541263642337
541,0.18165156605064
542,0.180201643770887
543,0.180790420989063
544,0.18241989468853
545,0.181617455147625
546,0.182375306872265
547,0.182286393806133
548,0.182197480740002
549,0.182108567673871
550,0.180856706958561
551,0.182393831864128
552,0.183654065887894
553,0.182016544048284
554,0.181093649526635
555,0.183221106738158
556,0.180267765962955
557,0.179971154611502
558,0.17814299095082
559,0.177282419512154
560,0.179274707935132
561,0.176224034859062
562,0.179175854950787
563,0.176498030043961
564,0.177666640047442
565,0.175237388170779
566,0.174653849879688
567,0.172345418505537
568,0.17367821783528
569,0.171969056215329
570,0.172208258460481
571,0.172936664938252
572,0.17273062200512
573,0.17281933263029
574,0.174264993783833
575,0.172021280866987
576,0.172626126577564
577,0.173230972288141
578,0.173835817998717
579,0.174440663709294
580,0.175045509419871
581,0.177237799955803
582,0.176332830877495
583,0.177534192820468
584,0.175035284546751
585,0.174429616301462
586,0.170131185115752
587,0.168418763604357
588,0.166938251138941
589,0.165457738673525
590,0.163977226208109
591,0.165046748367247
592,0.16721501455908
593,0.16757360652153
594,0.169989172011353
595,0.169826413410984
596,0.171194503099459
597,0.172025013971914
598,0.172004172344263
599,0.172533839402473
600,0.173731801100037
601,0.174655916431887
602,0.175643332954285
603,0.175322115522739
604,0.177606125428184
605,0.176153756263916
606,0.176843147511515
607,0.175847750756552
608,0.173748418508709
609,0.17404381926907
610,0.172694856572761
611,0.172190060310802
612,0.170695572118168
613,0.170141711650851
614,0.168434537042146
615,0.170883947687162
616,0.168745599973302
617,0.170026715722267
618,0.170354992737593
619,0.171256324220151
620,0.170738422734644
621,0.171971255823329
622,0.168896787753149
623,0.169017769904715
624,0.168206082688178
625,0.167394395471642
626,0.166582708255105
627,0.166892414110879
628,0.166630108973063
629,0.165940266056181
630,0.167635468548965
631,0.165633080175743
632,0.166347037424566
633,0.167225270980927
634,0.167771783620885
635,0.168202551234082
636,0.166977024948391
637,0.168472882870346
638,0.167455423897707
639,0.168105185573237
640,0.16743067219882
641,0.166616391015606
642,0.16602786625449
643,0.165135703646813
644,0.164243541039135
645,0.163351378431458
646,0.164249007737545
647,0.163899424094139
648,0.160797216571804
649,0.163644603133507
650,0.161854924656266
651,0.163838624898261
652,0.161871954979169
653,0.159540214777834
654,0.156084569388535
655,0.158476043375549
656,0.156473593383619
657,0.158148122644816
658,0.159315711913303
659,0.164278596462717
660,0.165534750703738
661,0.166090689374321
662,0.166834907777307
663,0.166246524133584
664,0.165601041196162
665,0.166256842781249
666,0.166362500681898
667,0.166703578435478
668,0.166949296987853
669,0.164318728233766
670,0.164873502397939
671,0.16484315463991
672,0.164154218182247
673,0.164469509719623
674,0.165016106675449
675,0.16504231788287
676,0.165174516706886
677,0.166320945879837
678,0.164329062251245
679,0.164067448329891
680,0.167798807619262
681,0.165778944412904
682,0.162262235801257
683,0.160038503530712
684,0.155243347802003
685,0.151921953798651
686,0.149045213768697
687,0.146665024162064
688,0.146015484682886
689,0.146692778927632
690,0.148712194162468
691,0.152037694256655
692,0.152889314800932
693,0.154823959175151
694,0.15761960581939
695,0.158023987672972
696,0.161403845091147
697,0.162130497235309
698,0.161254962282154
699,0.162161373219115
700,0.165812035415751
701,0.164996522271871
702,0.168573343355278
703,0.16955298599
704,0.17286970250849
705,0.173974273159987
706,0.17685168531814
707,0.179410056500681
708,0.180520751761964
709,0.183234852412366
710,0.18310828519384
711,0.183174264695866
712,0.185016445139083
713,0.17909638712397
714,0.176766266420982
715,0.169080324845053
716,0.162453432234556
717,0.158359464027677
718,0.157301920888372
719,0.159418973419493
720,0.16137335193784
721,0.160648249048545
722,0.16632991423404
723,0.166357493070111
724,0.16684678100734
725,0.167968220056359
726,0.167813342761179
727,0.171544766914248
728,0.173185584195029
729,0.178172224261787
730,0.182431023270063
731,0.188514392696311
732,0.194216568288535
733,0.200385639997849
734,0.203902069734885
735,0.205992129791292
736,0.20917950520942
737,0.211182384600634
738,0.213185263991848
739,0.215188143383062
740,0.220116788316934
741,0.221636658365155
742,0.223609298805112
743,0.225581939245069
744,0.227554579685027
745,0.229225434452564
746,0.22906416088155
747,0.231454686997514
748,0.229601886848657
749,0.231060646121976
750,0.232170181888469
751,0.230324335146034
752,0.235149337895321
753,0.233385641937621
754,0.231944561499486
755,0.218540013750127
756,0.205135466000767
757,0.191730918251407
758,0.169838243891511
759,0.150778005027015
760,0.137349830777778
761,0.135298980254653
762,0.140069436065581
763,0.149176131474128
764,0.162877337152347
765,0.176163071787459
766,0.192179930683326
767,0.207271041748206
768,0.215887106488854
769,0.22248596986083
770,0.227484189052977
771,0.229046880446713
772,0.232210418608192
773,0.234968921452279
774,0.234030175266583
775,0.235190935658152
776,0.235423297213907
777,0.233367379519706
778,0.236756702969852
779,0.234485546610608
780,0.237343150599131
