"wavelength","measurement"
380,0.0182985985308733
381,0.0172806476383695
382,0.0167566398333282
383,0.016796143590335
384,0.0168032410310307
385,0.017755439491208
386,0.0186739331445124
387,0.0193359913696231
388,0.0202910922861567
389,0.0206261907938666
390,0.020523605413846
391,0.0204791336923508
392,0.0204583330920198
393,0.0208700902880834
394,0.0208621131676117
395,0.022223660386486
396,0.0242142540063398
397,0.0268359271961705
398,0.0294576003860012
399,0.0320792735758319
400,0.0333105924285751
401,0.0352856420702645
402,0.0365107641527158
403,0.0371414321433378
404,0.0376778494770694
405,0.0377909997571197
406,0.0384960376412964
407,0.0392161447927759
408,0.039777282758502
409,0.041220594442756
410,0.0430254593929271
411,0.0445596628845064
412,0.0460225522016075
413,0.0478541880205556
414,0.0484771416477503
415,0.0501341731149213
416,0.0506478021618395
417,0.0513218901301019
418,0.0532078296235133
419,0.0533079945376512
420,0.0555475716965724
421,0.0561620155946874
422,0.0572614718617507
423,0.058173440057694
424,0.059364533622602
425,0.0585757377290257
426,0.0585399504352547
427,0.057518599393805
428,0.0566308969390658
429,0.0565785812437041
430,0.0568650419678858
431,0.0593305791014556
432,0.0613234207885716
433,0.0636792804749091
434,0.0663007755418996
435,0.0679730078369592
436,0.068922533844575
437,0.0700429428649281
438,0.0711633518852812
439,0.0722837609056343
440,0.0726294393200608
441,0.0737246998784122
442,0.0755914125018221
443,0.0757580675158529
444,0.0766045986296142
445,0.0774511297433755
446,0.0782976608571368
447,0.0789638811491568
448,0.079355119832886
449,0.0819388328211567
450,0.0811068184599056
451,0.0802902511772726
452,0.0798711497282531
453,0.0794520482792336
454,0.0790329468302142
455,0.079240413232429
456,0.079118072150736
457,0.079751810794836
458,0.0803260833980468
459,0.081289809090569
460,0.0813527795385182
461,0.0805369470513179
462,0.0830945109327619
463,0.0807176296397161
464,0.0801485128350482
465,0.0794155405421376
466,0.0787400075385983
467,0.0786114864172212
468,0.0778071350834894
469,0.0773964408518181
470,0.078653765718979
471,0.0788567668220798
472,0.0789015701397744
473,0.0800785816311603
474,0.080591633204363
475,0.081639950067991
476,0.0794864453564021
477,0.0795139153692735
478,0.0795413853821448
479,0.0795688553950162
480,0.0793578164998882
481,0.0776639430903005
482,0.0761953662700893
483,0.0760180272402193
484,0.073747609585091
485,0.0719217642956028
486,0.0725380046461988
487,0.0731532230313011
488,0.0736490401229567
489,0.0756731366248117
490,0.0761283317814977
491,0.0767544484803939
492,0.0786594584316953
493,0.0780078251757311
494,0.0793051771008714
495,0.0784020853179765
496,0.0790101785682409
497,0.0778229415827372
498,0.0784512072421602
499,0.0770807569787709
500,0.0778577075204194
501,0.0774340095132365
502,0.0789036761090895
503,0.0797059897649975
504,0.0791733095099017
505,0.081771063715096
506,0.0821796189558337
507,0.0829257186078866
508,0.0837899138949382
509,0.0842682869443394
510,0.0834826606179915
511,0.0850946155323469
512,0.0854061403326996
513,0.0833321735276958
514,0.0836276585470887
515,0.0827724223256958
516,0.0828373424810569
517,0.0833152472994247
518,0.0842668841721402
519,0.0865716815252862
520,0.0886986696759248
521,0.0906781095181333
522,0.092657549360342
523,0.0946369892025506
524,0.0950168566173394
525,0.0959505074260192
526,0.0972024391175734
527,0.0975662873766394
528,0.098966039396306
529,0.100940007127493
530,0.101755744067204
531,0.102399943918461
532,0.102775191913969
533,0.104048144563644
534,0.105079658578296
535,0.103964981379036
536,0.105760251287472
537,0.105652288148868
538,0.105052691425806
539,0.104865698788764
540,0.105694277497044
541,0.105236006746209
542,0.105241321609714
543,0.105914370387667
544,0.106881586151305
545,0.106457232403484
546,0.107400288708273
547,0.107682425961266
548,0.107964563214258
549,0.10824670046725
550,0.107692080851975
551,0.108530583587611
552,0.1098148542748
553,0.108896957172266
554,0.108772883518477
555,0.109823118137095
556,0.108457244064286
557,0.10836336267068
558,0.107481259817509
559,0.106680102981872
560,0.108011612291391
561,0.106107678020615
562,0.107847833163538
563,0.10620265206477
564,0.106660801202741
565,0.105044988621608
566,0.104373838874947
567,0.102822339390705
568,0.103355293402429
569,0.102182447548296
570,0.101616330408088
571,0.101662987740673
572,0.101285414726492
573,0.101084472084289
574,0.101490808344483
575,0.100001409821634
576,0.0999711689083764
577,0.0999409279951188
578,0.0999106870818612
579,0.0998804461686035
580,0.0998502052553459
581,0.100849072474218
582,0.0998304056672741
583,0.100631238126034
584,0.0985848658061273
585,0.0983762749508778
586,0.0955347095494469
587,0.0942572731308161
588,0.0932637842160751
589,0.0922702953013341
590,0.0912768063865931
591,0.0916387490191878
592,0.0926270663561696
593,0.0926060357138318
594,0.0938763601358922
595,0.0937552427058625
596,0.0942894543656478
597,0.0947467693193035
598,0.094611765761879
599,0.0945961142176083
600,0.0954570160777246
601,0.0958566412279299
602,0.0963640989249624
603,0.0957329057486605
604,0.0969335260672291
605,0.0960727701592659
606,0.0964764093191814
607,0.0957454825718397
608,0.0944120840509923
609,0.0942689456996985
610,0.0934992232246613
611,0.0928926678607445
612,0.0919042706638769
613,0.0915077973105965
614,0.0905107664451264
615,0.0914603695893844
616,0.0900641933209847
617,0.0908419512093743
618,0.0907351229302669
619,0.0910775188839161
620,0.0907204863075923
621,0.0914948881340812
622,0.0897227945135294
623,0.0897986148721827
624,0.0893585298037051
625,0.0889184447352275
626,0.0884783596667499
627,0.0886512198973725
628,0.0883413462715219
629,0.0881984459013162
630,0.0890223160978875
631,0.0875853427735259
632,0.0881490217908927
633,0.0887523740422599
634,0.0886824879420421
635,0.0892846088731947
636,0.0878630438786504
637,0.0888752720792197
638,0.0881406169640872
639,0.0882603170035704
640,0.0873833664970364
641,0.087019851842511
642,0.0863697031769355
643,0.0855936919875802
644,0.084817680798225
645,0.0840416696088697
646,0.0842928670579314
647,0.0841511357309831
648,0.0822742340094906
649,0.0835966922614592
650,0.082345105131482
651,0.0832874614943988
652,0.0822090887815522
653,0.0808545813516785
654,0.0791777699657923
655,0.0798095459718399
656,0.0789936057977841
657,0.0794505870359029
658,0.0802851020132545
659,0.0821432109675331
660,0.0825953925508154
661,0.0826768145565531
662,0.0829568496906966
663,0.082255011399519
664,0.081736055571624
665,0.0817562227128663
666,0.0817874858366013
667,0.0819526703293849
668,0.0818515227172545
669,0.0800628463814489
670,0.0806237364611029
671,0.0804798568102605
672,0.0800917203826286
673,0.0803448301435777
674,0.0804222244157692
675,0.0805614174777261
676,0.0808317033988389
677,0.0813921950879581
678,0.0806717707670006
679,0.0806057237494774
680,0.0829503707273563
681,0.0816596419424441
682,0.0802647648366653
683,0.0795741404941984
684,0.0779556226658023
685,0.076688491177302
686,0.0759696532890785
687,0.0752725296708921
688,0.0758867916607601
689,0.0771940277303317
690,0.0797037907526096
691,0.0827124359361101
692,0.0843426980729598
693,0.0872085761804026
694,0.089918495159579
695,0.0921150972200037
696,0.0952743301383517
697,0.0985360485656526
698,0.099643115002812
699,0.102310082695878
700,0.106307546112813
701,0.108144848414852
702,0.112429276745927
703,0.114821371366511
704,0.119154780946604
705,0.122251752152211
706,0.126004719562994
707,0.129914974367623
708,0.132564222588579
709,0.136287221060972
710,0.137540123159975
711,0.140245009852207
712,0.143455849234021
713,0.140493627444504
714,0.140648349532427
715,0.136288310565739
716,0.133033754136542
717,0.130910894163376
718,0.131789213048693
719,0.135213102350474
720,0.138752725185833
721,0.139675063822549
722,0.145615887902295
723,0.147474442414103
724,0.149200125765244
725,0.151840040885151
726,0.153148053536892
727,0.157776658027055
728,0.161157382656738
729,0.166670365858885
730,0.172043432211897
731,0.178459135444598
732,0.18534377473405
733,0.19240323388333
734,0.197361455321682
735,0.200495250870568
736,0.204756346992689
737,0.2075022178768
738,0.210248088760912
739,0.212993959645023
740,0.218241536145939
741,0.220301648273025
742,0.22304349926923
743,0.225785350265434
744,0.228527201261638
745,0.230190139196137
746,0.230865037522099
747,0.233122399651849
748,0.231462660468125
749,0.233841264253468
750,0.23444952906873
751,0.234164716870957
752,0.237673880199793
753,0.23679079570414
754,0.234739509775777
755,0.221275638855429
756,0.20781176793508
757,0.194347897014731
758,0.172287272777725
759,0.15287534816302
760,0.138978582057939
761,0.136832711938342
762,0.141553452931628
763,0.151043389618308
764,0.165240433116426
765,0.17877978553582
766,0.194603731555172
767,0.210341103370376
768,0.219219022538685
769,0.225816750230787
770,0.231730837147662
771,0.233443822514265
772,0.236537620742491
773,0.239535595047646
774,0.238603928312604
775,0.239264818638678
776,0.239849831558234
777,0.23733753311149
778,0.240690752980114
779,0.238000816498312
780,0.241816880498262
