"wavelength","measurement"
380,0.00372067779441859
381,0.00364674203305692
382,0.0036847468136704
383,0.00367364426958035
384,0.00375552332849662
385,0.00399496051388815
386,0.00423254806103056
387,0.00448628184477346
388,0.00477741429872974
389,0.00496755242820498
390,0.0049522496253626
391,0.0049618338084131
392,0.00499633255513016
393,0.00510164811460016
394,0.00532058348999308
395,0.00553814678169907
396,0.00616719556670171
397,0.00688128143083881
398,0.00759536729497591
399,0.00830945315911301
400,0.0087101831254176
401,0.00933173751960982
402,0.0096544354552345
403,0.00979656378119845
404,0.00984632524792234
405,0.00983155497080927
406,0.00999645955881852
407,0.0100797865168903
408,0.0101367012621372
409,0.0102766444350004
410,0.0107026498907561
411,0.0107257831843825
412,0.0109941539960776
413,0.0112049847946985
414,0.0111698205363724
415,0.0112726659682168
416,0.0111726618580825
417,0.0110755868182178
418,0.0111887971163629
419,0.0108596946029426
420,0.0111285017984205
421,0.0110314851474416
422,0.0110722965116649
423,0.0111656203391016
424,0.0111502744395388
425,0.0109636104821963
426,0.0108197241957394
427,0.0105126884211029
428,0.0101341352496034
429,0.0100657359613742
430,0.0101164013256564
431,0.0104404018207733
432,0.0108485259802638
433,0.0112781458372469
434,0.011802663119283
435,0.012042346546404
436,0.0120727729064055
437,0.0121622514097228
438,0.0122517299130401
439,0.0123412084163574
440,0.0122970693569693
441,0.0125025507615157
442,0.0127983496623776
443,0.0128727164498677
444,0.0130366912424757
445,0.0132006660350837
446,0.0133646408276916
447,0.013556180640701
448,0.0135565050527769
449,0.0141111396991942
450,0.0140651409148663
451,0.0138683356580343
452,0.0138293148037799
453,0.0137902939495255
454,0.0137512730952711
455,0.013728401893317
456,0.0136668155197755
457,0.01388134294285
458,0.0138621657267392
459,0.0141103486553148
460,0.014082678465336
461,0.0139112515108926
462,0.0142717761571772
463,0.0138708487502193
464,0.0137181593225012
465,0.0135986348733804
466,0.0133760976730858
467,0.0133362614619372
468,0.0131796528309461
469,0.0130261380294473
470,0.0132777071127183
471,0.0132562689443972
472,0.0132920480883174
473,0.0134173040833034
474,0.0134184452695296
475,0.0136234879726461
476,0.0132633305983763
477,0.0132660954980565
478,0.0132688603977367
479,0.0132716252974169
480,0.0132236548414901
481,0.0129019171731454
482,0.0126916932467857
483,0.0126488737521911
484,0.0123247285154001
485,0.0120677821027944
486,0.012127905699098
487,0.0121979498970858
488,0.0122507489442622
489,0.0125819660810947
490,0.0126276621222738
491,0.0126354940541885
492,0.0129130612843873
493,0.0127277167794033
494,0.0128931975105243
495,0.0126764119124155
496,0.0126930421599404
497,0.0124568064516538
498,0.0124772985110147
499,0.0121349950242008
500,0.012182296250249
501,0.0120056693666717
502,0.0121666133069952
503,0.0121675428276
504,0.0120300949478871
505,0.0123781142056109
506,0.0123166482683573
507,0.0123276582763431
508,0.012369492431256
509,0.0123755051947304
510,0.0121362856363817
511,0.0123142056534708
512,0.0122317539958488
513,0.0118387156717273
514,0.0117836221397805
515,0.0115280737135085
516,0.0114391601196138
517,0.0114105577916645
518,0.0113653148527848
519,0.0115545661888922
520,0.0117392354052091
521,0.0118730670265028
522,0.0120068986477964
523,0.0121407302690901
524,0.0120558117057865
525,0.0120708722128391
526,0.0121081369891425
527,0.0120301005286519
528,0.0121016216210955
529,0.0122389037657396
530,0.0122417307466101
531,0.0122821384668043
532,0.0122161248418281
533,0.0123141120316115
534,0.012349229049666
535,0.0122135668156801
536,0.0123567965793148
537,0.0123619529749832
538,0.0123932669560065
539,0.0124923608829211
540,0.0127557191596701
541,0.0128688790109855
542,0.0130424226541152
543,0.0131814953362525
544,0.0132775743692784
545,0.0130542304032739
546,0.0129851873304145
547,0.0127353455820863
548,0.0124855038337582
549,0.01223566208543
550,0.0119910698865021
551,0.0119925300155485
552,0.0119719458086758
553,0.0117861933578242
554,0.0116531185594369
555,0.0116798819357163
556,0.0114896623411526
557,0.0113968096775228
558,0.0112791986614002
559,0.0111170771439267
560,0.0112118779274865
561,0.0109966556491555
562,0.0111417840801145
563,0.0109520067920051
564,0.0109478747107178
565,0.0107484694405045
566,0.0106735596193065
567,0.0104972947988399
568,0.0104947392386196
569,0.0103488756513078
570,0.0102977808402486
571,0.0102978220424608
572,0.0102459556363279
573,0.0102223089426378
574,0.0102651451280073
575,0.0101486169744466
576,0.0101591834984419
577,0.0101697500224373
578,0.0101803165464326
579,0.010190883070428
580,0.0102014495944234
581,0.0102936799332368
582,0.0101858956116055
583,0.0102232410695629
584,0.0100478574183389
585,0.00999162183527012
586,0.00965448014656793
587,0.00945029082319943
588,0.00926960695201599
589,0.00908892308083256
590,0.00890823920964913
591,0.00888429028428622
592,0.00894031718497375
593,0.0088874708423991
594,0.00893895895973751
595,0.00887560470214795
596,0.0089252720936262
597,0.00889875032267373
598,0.00889856102976005
599,0.00886665139435573
600,0.00889313651540071
601,0.00890139248166944
602,0.00890047125883829
603,0.00883616978599743
604,0.00886564035238391
605,0.00879709802617806
606,0.00887766454701256
607,0.00899770628534014
608,0.00911349819786556
609,0.00933283945537115
610,0.00941201130254189
611,0.00944681431532875
612,0.00928353719343219
613,0.00902944649464696
614,0.00865551123639076
615,0.00847628323179759
616,0.00826870527960075
617,0.00822671690756347
618,0.00811609320678896
619,0.00808423025552195
620,0.00799653547179416
621,0.00801102794535265
622,0.00780532291605258
623,0.00775472676102438
624,0.00766016011398781
625,0.00756559346695123
626,0.00747102681991466
627,0.0074166759410661
628,0.00735063940208966
629,0.00731714767455195
630,0.00735147265573032
631,0.00719789989497176
632,0.00714962120985021
633,0.00712671977618134
634,0.00705047087034538
635,0.0070432859828494
636,0.0069346444564182
637,0.00695585224323135
638,0.00682977066882807
639,0.00684984571453557
640,0.00677753749395938
641,0.00672505777970304
642,0.00663700518140934
643,0.00654420172932901
644,0.00645139827724868
645,0.00635859482516834
646,0.00636461671748708
647,0.00632401882601739
648,0.00611320024523631
649,0.00623738429677505
650,0.00612747030114979
651,0.00616272494299447
652,0.00604361665194061
653,0.00589939213073575
654,0.00575229663924601
655,0.0057678105170802
656,0.00568086600111639
657,0.00570212284040969
658,0.00573486957323603
659,0.00586002792353759
660,0.00589206446408763
661,0.00586436072568418
662,0.005864481192717
663,0.00580480331284758
664,0.00573478343336347
665,0.00572691358947333
666,0.00568521400207894
667,0.00565784061259336
668,0.00562128891258175
669,0.00551563423977889
670,0.00550268953584048
671,0.00544433865291516
672,0.00540214392148649
673,0.00539008805708948
674,0.00539018010657784
675,0.00533564870190931
676,0.005313782720321
677,0.00531791186544416
678,0.00523075949089615
679,0.00516895367786006
680,0.00529457949508009
681,0.00516443448708798
682,0.00504838996584922
683,0.00495143685133774
684,0.00475565221413084
685,0.00461773946767573
686,0.00451526208954503
687,0.00443020147760806
688,0.00436205614293672
689,0.00436502853118738
690,0.00445736124596385
691,0.00454693723058394
692,0.0045673138980617
693,0.00458380531872082
694,0.00470558373441468
695,0.00472782912541067
696,0.00486158452374457
697,0.00487673204268706
698,0.00484743100830708
699,0.00491547781641916
700,0.00504087836007387
701,0.00504384255610904
702,0.00515712131259111
703,0.00527929560317104
704,0.00544286464650263
705,0.00547687730150401
706,0.00561195743438223
707,0.00574489494809186
708,0.00580234983686098
709,0.00589249248998575
710,0.00585497615240142
711,0.00591035360800961
712,0.00594100453427082
713,0.00572321562996364
714,0.00562913563972027
715,0.00539324260535083
716,0.00516189106849517
717,0.00500536508471233
718,0.00500876387522888
719,0.0050498425916772
720,0.00512137422563067
721,0.00512245364952906
722,0.00530221898587104
723,0.00532637063612733
724,0.00535171184490688
725,0.0053801130519143
726,0.00539208261030402
727,0.00552849131265271
728,0.00559311492781628
729,0.00573797769230439
730,0.00594514134357719
731,0.00615011258918518
732,0.00632818265263956
733,0.00656375955459478
734,0.00670437175641893
735,0.00680292629336303
736,0.00690860232875252
737,0.00696827417254934
738,0.00702794601634616
739,0.00708761786014298
740,0.00725359506027523
741,0.00727790709754637
742,0.00732093345407139
743,0.00736395981059642
744,0.00740698616712145
745,0.00747639125348508
746,0.00744664669607664
747,0.00746886620260881
748,0.00735088725690942
749,0.00740840655188212
750,0.00737873048250853
751,0.00731529949892743
752,0.00741956978029285
753,0.0072560558079475
754,0.00726140054117322
755,0.00684907179987451
756,0.00643674305857579
757,0.00602441431727708
758,0.00535064525150861
759,0.00472938664850771
760,0.00427187390691687
761,0.00409555003762319
762,0.00420925061281706
763,0.00442948523348097
764,0.00480773941431956
765,0.0051643010584379
766,0.00561852892554251
767,0.00604217090914244
768,0.00630980719127789
769,0.00645334360991431
770,0.00657962268594965
771,0.00660807062476492
772,0.0066662478448798
773,0.00672919848785767
774,0.00668841111650482
775,0.00663206137021297
776,0.00668353818457914
777,0.00656559432629075
778,0.00663998811543769
779,0.00654219497397936
780,0.00655571582153043
