"wavelength","measurement"
380,0.00622517470768417
381,0.00627738878774104
382,0.0062169843114816
383,0.00625728715270967
384,0.00648357006231431
385,0.00687061061782657
386,0.00722683925166343
387,0.0078342506389684
388,0.00836582001368595
389,0.00859180739387084
390,0.00879770317067497
391,0.00871424790261922
392,0.00900464437326847
393,0.00913861656009089
394,0.00926239013760643
395,0.0100426165113573
396,0.0112400727250699
397,0.012716085082597
398,0.0141920974401242
399,0.0156681097976513
400,0.0163858682143206
401,0.0177076317605738
402,0.0185592626604225
403,0.0190910603811786
404,0.0195441251895135
405,0.0197702236903019
406,0.0203556972119802
407,0.0208890397986097
408,0.0213044747567652
409,0.0220831017200205
410,0.0233347368694156
411,0.0236379625404896
412,0.0244310843492538
413,0.0251892096559231
414,0.0254478885998005
415,0.0260562563742428
416,0.0259250873605801
417,0.0259588731318743
418,0.0264500638602571
419,0.026036494742483
420,0.0268519115735069
421,0.026823648942595
422,0.0270845595105028
423,0.0273149427934042
424,0.0275361891886527
425,0.0270793257832675
426,0.0269357417558305
427,0.0262205900298218
428,0.0255157497125555
429,0.0254137455953768
430,0.0255940274237285
431,0.0266050698520111
432,0.0273622140016744
433,0.0284330548445076
434,0.0295512746120702
435,0.03025454298871
436,0.0305252961306706
437,0.0311471990710633
438,0.031769102011456
439,0.0323910049518486
440,0.0325343494130072
441,0.0332941465719588
442,0.0342687703340217
443,0.0345570082279835
444,0.0352266123178205
445,0.0358962164076576
446,0.0365658204974946
447,0.0371074778058565
448,0.0373174289881103
449,0.0391145836510591
450,0.0388803790360845
451,0.0386313111773017
452,0.0385414562162108
453,0.0384516012551199
454,0.038361746294029
455,0.038460648394625
456,0.0387564157668021
457,0.0389172400951589
458,0.0392107023238125
459,0.0398272306711145
460,0.0399429139675906
461,0.0395850098715414
462,0.0406940392372145
463,0.0395841973020413
464,0.0392857121608276
465,0.0390651824931277
466,0.0384362473765461
467,0.0384966793327875
468,0.038118915619373
469,0.0380606767800634
470,0.0385676572678829
471,0.0385459909411728
472,0.0389010373912661
473,0.0394741158290485
474,0.0396740542573474
475,0.040184797478905
476,0.0394794863107758
477,0.0395271556736683
478,0.0395748250365607
479,0.0396224943994532
480,0.0395059501479781
481,0.0385285706698206
482,0.037897186856421
483,0.0378600304767998
484,0.0365774584297234
485,0.0358993050328463
486,0.0361554688110427
487,0.0364702090584648
488,0.0367372525287094
489,0.0378581199133343
490,0.0379273566757843
491,0.0382682890978239
492,0.0391911850802165
493,0.0388509658606357
494,0.0395768278497257
495,0.0390190912612445
496,0.0391588933370103
497,0.0385485904156867
498,0.0387374868799144
499,0.0379958892890127
500,0.0380547369379643
501,0.0377990567654431
502,0.0385574666244485
503,0.0386515321902469
504,0.0383782387209181
505,0.0395363724199985
506,0.0394250959811571
507,0.0395962242668054
508,0.0398466870361806
509,0.0398759551412617
510,0.0392853253923527
511,0.039629465138503
512,0.0395537260940677
513,0.0384210407409579
514,0.0382084271250055
515,0.0374753058863028
516,0.0372303041452578
517,0.0371125111288266
518,0.0370939677703547
519,0.0378881665500213
520,0.0384686409628988
521,0.0389612009141132
522,0.0394537608653275
523,0.0399463208165418
524,0.0397362515350395
525,0.03977967614539
526,0.040011646938412
527,0.0396697124770656
528,0.0399135863547737
529,0.0405338006479678
530,0.0405068216308342
531,0.0405563264676762
532,0.0404510234932763
533,0.0406850965391856
534,0.0408992037117719
535,0.0403749076857427
536,0.0407312716534416
537,0.0404085948844389
538,0.0401235060060188
539,0.0398187109817785
540,0.0399855922752307
541,0.0397066848531116
542,0.0393144161387799
543,0.0395190606319178
544,0.0398021812799106
545,0.0393750494291011
546,0.0397359792052218
547,0.0396459053303534
548,0.039555831455485
549,0.0394657575806166
550,0.0391400779006083
551,0.0393058361188355
552,0.0396370181403719
553,0.039172831781628
554,0.0390729191293566
555,0.0394198610181486
556,0.0388036469885987
557,0.0386015976282578
558,0.0383958029151964
559,0.0380347447895337
560,0.0383667845219363
561,0.0377487459227223
562,0.038374174395047
563,0.0377698160571012
564,0.0378690447122463
565,0.0373525679117766
566,0.0370841462929076
567,0.0366705280035897
568,0.0367858845832995
569,0.0363139544122327
570,0.0361824467796269
571,0.0363039582911281
572,0.0362719985414184
573,0.0361108677328271
574,0.0363287380563831
575,0.0357531194449803
576,0.0357827099224858
577,0.0358123003999914
578,0.0358418908774969
579,0.0358714813550024
580,0.035901071832508
581,0.0362127807559912
582,0.0357966103306198
583,0.0359514117800193
584,0.0353322842854099
585,0.0351821844336869
586,0.0342127703202281
587,0.0335766551023015
588,0.0331755345237049
589,0.0327744139451082
590,0.0323732933665116
591,0.032421820842942
592,0.0325767593545444
593,0.032550541483264
594,0.0330028710229365
595,0.0328537064353444
596,0.0330248282303353
597,0.0329668499496233
598,0.0329036834417935
599,0.0328351954875911
600,0.0330342665453299
601,0.0330931234299435
602,0.0331688742576312
603,0.032910050145092
604,0.0332164106249625
605,0.0328733928199489
606,0.0328662596140242
607,0.0325608513731954
608,0.032035705410567
609,0.0320215016107761
610,0.0316161277043526
611,0.0313376915119407
612,0.0309998201362087
613,0.0308466454433152
614,0.0303617432577329
615,0.0306332277804796
616,0.0300685897856386
617,0.0303474692087129
618,0.030218790163812
619,0.0302475186804951
620,0.030036362856122
621,0.0301414506520889
622,0.0294301545468094
623,0.0294430754206347
624,0.0291706120528003
625,0.0288981486849659
626,0.0286256853171315
627,0.0284802743094014
628,0.0283597994883865
629,0.0281205110611967
630,0.0283472879900707
631,0.0278298048627133
632,0.0279437932620169
633,0.0279336010851915
634,0.0279153512738825
635,0.0279151263815858
636,0.0275221077868103
637,0.0276681461822608
638,0.027439700946755
639,0.0274063893398199
640,0.0271793440720206
641,0.0269775691490825
642,0.0266908566951333
643,0.02639693481355
644,0.0261030129319667
645,0.0258090910503835
646,0.0259202886456076
647,0.0257204144329042
648,0.025083430345587
649,0.0254506798443991
650,0.0250781880242767
651,0.025223895947414
652,0.0248589347622165
653,0.0241879747607307
654,0.0238136074986776
655,0.0239143320521565
656,0.023610913609978
657,0.0235578096265436
658,0.0237644953304656
659,0.0241844261646804
660,0.0244031515981936
661,0.0243656740693888
662,0.0243791179024022
663,0.0240522584036913
664,0.0238498330408076
665,0.0237864059916738
666,0.0237838849603542
667,0.023587157027415
668,0.0236112111203308
669,0.0229939258549872
670,0.0231622684339463
671,0.0228677708227186
672,0.0227288814027525
673,0.0227228685515083
674,0.0226846908247205
675,0.0225886932104783
676,0.0224431094752563
677,0.02249427259103
678,0.0221451848501727
679,0.0218977848638022
680,0.0225027476188077
681,0.0219475433512591
682,0.0214673783045078
683,0.0210424825129541
684,0.0204000776278852
685,0.0197690131211949
686,0.0194148716034172
687,0.0190425501292691
688,0.0188448892773914
689,0.0189871202042829
690,0.0190853356604633
691,0.0196730351035791
692,0.0195849652950395
693,0.0198644567707929
694,0.0201917758403335
695,0.0201282892059861
696,0.0205735102886629
697,0.0207437825673709
698,0.0205350440587936
699,0.0205220038028831
700,0.0209915210865428
701,0.0208811489389495
702,0.0212140704193501
703,0.0213712584746778
704,0.0217399418371887
705,0.0216757487720762
706,0.0221493881871797
707,0.0224615513783696
708,0.0224425479062049
709,0.0227375065508252
710,0.0224742622510639
711,0.0225976113113794
712,0.0227129447738909
713,0.0219383269997891
714,0.0215128458104611
715,0.0204886150315111
716,0.019724530244178
717,0.0189707054329162
718,0.01893335584659
719,0.0190720537700662
720,0.0192173294657216
721,0.0190257245151669
722,0.0195107770915969
723,0.01944609258709
724,0.0194295846378943
725,0.0194755984159083
726,0.0194193233886536
727,0.019776304803245
728,0.0197855740345758
729,0.0203020306982679
730,0.020660980728535
731,0.0212047823859748
732,0.0216924131769115
733,0.0223317001776481
734,0.0225911025215353
735,0.0226594412282026
736,0.0229552768546729
737,0.0230527525874304
738,0.0231502283201879
739,0.0232477040529454
740,0.0234886225370865
741,0.0235836447047176
742,0.0236535297884606
743,0.0237234148722036
744,0.0237932999559466
745,0.0237447982152446
746,0.0236767108229417
747,0.0236515532890737
748,0.0234083973055897
749,0.0233545892395576
750,0.023312895625238
751,0.0229229057600936
752,0.0232904169447893
753,0.0228771111543577
754,0.022679997455564
755,0.0213236087949122
756,0.0199672201342605
757,0.0186108314736088
758,0.0164296898181666
759,0.0144404370554744
760,0.0130500819167285
761,0.0127901675551317
762,0.013059559435458
763,0.0138348569853682
764,0.0151710408205711
765,0.0161045631397697
766,0.0174797615186407
767,0.0188128836856192
768,0.0194766758478654
769,0.0199683680091269
770,0.0203939945476833
771,0.0205032756281029
772,0.020658834799553
773,0.0206818274971979
774,0.0206440042388692
775,0.0205977823676193
776,0.0205953480630962
777,0.0203019685490599
778,0.0204756026608766
779,0.0200643113440338
780,0.0203114755870913
