"wavelength","measurement"
380,0.00509010909509388
381,0.00492843257687093
382,0.00520536958963258
383,0.00519193908879049
384,0.00524101725299425
385,0.0055095986310593
386,0.00584745769065864
387,0.00628436764991553
388,0.00669815933210044
389,0.00698577470856193
390,0.00702973262043767
391,0.00717211039996081
392,0.00721343174401793
393,0.00756626433614617
394,0.00778082275549591
395,0.00847226951589749
396,0.00943004972718698
397,0.0105886676241781
398,0.0117472855211692
399,0.0129059034181603
400,0.0137221937838276
401,0.014863680593228
402,0.0154614056683382
403,0.0160050395397803
404,0.0163673962083513
405,0.0168269285456232
406,0.0171906810413819
407,0.0177599458125409
408,0.0181951952655506
409,0.0189449571183723
410,0.0199759586056758
411,0.020326942874684
412,0.0209799032831232
413,0.021764808233713
414,0.0219781605894041
415,0.0224614196796293
416,0.0225954669116372
417,0.0224190414326708
418,0.0230149686359338
419,0.022672750200363
420,0.0233167695585437
421,0.0233640158610234
422,0.0237113317304404
423,0.0238344908157223
424,0.0240928952939912
425,0.0235818407607919
426,0.0235903670188028
427,0.0230373998783409
428,0.0224695550781945
429,0.0224278473283642
430,0.0223863044505133
431,0.023397925402587
432,0.0241522736620758
433,0.0250238177733216
434,0.0260122888068885
435,0.0266616917782312
436,0.0270639849003463
437,0.027555587371495
438,0.0280471898426437
439,0.0285387923137923
440,0.0287199899627874
441,0.0293462741837056
442,0.0302569810739534
443,0.0304470369635726
444,0.0310476932843121
445,0.0316483496050516
446,0.0322490059257911
447,0.0329360550596418
448,0.0330690491407229
449,0.0345009796720851
450,0.0344743711629913
451,0.0342245439492707
452,0.0342648403274633
453,0.034305136705656
454,0.0343454330838486
455,0.0343020114787027
456,0.0342049797330272
457,0.0348857725297443
458,0.0349782792082164
459,0.0355606887118343
460,0.0355152976366686
461,0.0353982306508349
462,0.0364036788456646
463,0.0354329739067869
464,0.0353054625352445
465,0.0348990611761546
466,0.0345722090805873
467,0.0345617814643818
468,0.0342823992636603
469,0.0339345924802832
470,0.0347567225969765
471,0.0347177065420201
472,0.0349494380508282
473,0.0355844677117052
474,0.0356089222805654
475,0.0362791313743769
476,0.0354365029649295
477,0.0355130113319617
478,0.0355895196989938
479,0.035666028066026
480,0.0356466562843523
481,0.034814618352646
482,0.0343132770120546
483,0.0340727969253617
484,0.0332099905929322
485,0.0324164514292261
486,0.0327168500542298
487,0.0328999707058863
488,0.0331762393757393
489,0.0340542041049403
490,0.0344673341594986
491,0.0347540458838973
492,0.0355430183671304
493,0.0352169193075385
494,0.0359063282980585
495,0.0354093175240835
496,0.0356851552043371
497,0.034978188302474
498,0.0352782171514799
499,0.0344443636876992
500,0.0347815061775662
501,0.0345313671929822
502,0.0350432729501446
503,0.0352540907673413
504,0.0350245372862435
505,0.0361343981797156
506,0.0360262676903328
507,0.0362553667478953
508,0.0365328017823276
509,0.0364363404289421
510,0.0360130916170835
511,0.0365479610516187
512,0.0363742123248748
513,0.0353753133504568
514,0.0351958055990769
515,0.0346606832561802
516,0.0344313506211852
517,0.0343874095388708
518,0.0343009734738313
519,0.035050272173732
520,0.0357629509762588
521,0.0362381210997695
522,0.0367132912232802
523,0.0371884613467909
524,0.0371736275480293
525,0.0371953403896293
526,0.0373632967392071
527,0.0371721298095166
528,0.0374105428543581
529,0.0380227114519599
530,0.0380126848408893
531,0.0381960419667345
532,0.0380415197513307
533,0.0383637147204325
534,0.0385800629074265
535,0.0380994655479518
536,0.038452641853676
537,0.0381763882113938
538,0.0379339180104466
539,0.0376100299966818
540,0.0378781966291189
541,0.0375699547222546
542,0.0373970344695087
543,0.03754147323677
544,0.0376712035502101
545,0.0375421294173768
546,0.0376990917339427
547,0.0376347131164253
548,0.0375703344989078
549,0.0375059558813903
550,0.0372109366493988
551,0.0374927013912935
552,0.0377752185246129
553,0.037346561883788
554,0.0372327518176631
555,0.0375675096448338
556,0.0370164959781818
557,0.0367885888786601
558,0.0365444469827577
559,0.0362171351976993
560,0.0366155420358227
561,0.03598127136672
562,0.0365881159319899
563,0.0359812910895988
564,0.0360940874624623
565,0.035618964421916
566,0.0353761376583112
567,0.034924991410704
568,0.0352006509156949
569,0.0346459320562688
570,0.0345480286875488
571,0.0346083643569912
572,0.0345106907684573
573,0.0344641086725326
574,0.0345244649413899
575,0.034089122560493
576,0.0340814492830808
577,0.0340737760056686
578,0.0340661027282564
579,0.0340584294508442
580,0.034050756173432
581,0.0344351721600122
582,0.0340741763055245
583,0.0341801638950034
584,0.0336311005266164
585,0.0335078387998412
586,0.0324564087277882
587,0.0319783483948103
588,0.0315930419553619
589,0.0312077355159136
590,0.0308224290764652
591,0.0307327947471194
592,0.0310079067373725
593,0.0309636367067753
594,0.0313735372027651
595,0.0312987681278996
596,0.031372055931142
597,0.0314324646181869
598,0.0313359820441463
599,0.0312681967036322
600,0.0314800626933947
601,0.031468446030994
602,0.0316351297837361
603,0.0313893858652736
604,0.0316156639303963
605,0.0313039920191394
606,0.0313818220079961
607,0.0311236534904493
608,0.0306043820943883
609,0.0306003625808263
610,0.0302138017154665
611,0.0299530237636691
612,0.0296251368638979
613,0.0294030722822413
614,0.0289887359840267
615,0.0291084704446696
616,0.0287999671656538
617,0.0289189206567675
618,0.0288781177481115
619,0.0288459303260917
620,0.0286697773692545
621,0.0287707346738278
622,0.028261926098667
623,0.0280818557386198
624,0.0278374605744612
625,0.0275930654103025
626,0.0273486702461439
627,0.027337827061477
628,0.027217473738966
629,0.026976033612567
630,0.0270323216544522
631,0.0266569366126731
632,0.0267299194453407
633,0.0267268028733101
634,0.0266266422802142
635,0.0267121112201521
636,0.0263991765184058
637,0.026606757595745
638,0.0262590656393285
639,0.026265091396694
640,0.0259899466107276
641,0.0258429994991037
642,0.0256163284968607
643,0.0253448603095385
644,0.0250733921222162
645,0.0248019239348939
646,0.0248574750973863
647,0.0246203624249837
648,0.0240667924377917
649,0.0242943590881704
650,0.0239868195325112
651,0.0240557869628569
652,0.0237914867736283
653,0.0232667135735227
654,0.0227795493711933
655,0.0229204794661406
656,0.0224885295914501
657,0.0226955978039379
658,0.022738562498029
659,0.0232489791190732
660,0.0233206504760523
661,0.0232972250047344
662,0.0233004329406843
663,0.0231316763456182
664,0.0228847978590747
665,0.0228919855866796
666,0.0227866608461318
667,0.0226606190656108
668,0.022631643664656
669,0.0221004634980057
670,0.0221483842788799
671,0.0220153565625651
672,0.0218089495658775
673,0.021736601410058
674,0.0217167299777195
675,0.0216979154388296
676,0.0215386344059856
677,0.0215786582290559
678,0.0212602000975198
679,0.0210932486095312
680,0.021623666932179
681,0.0211208201496249
682,0.020690858803289
683,0.0203089201576936
684,0.01966547301369
685,0.0191776396965865
686,0.0188115243279056
687,0.0184450058083026
688,0.0182219475806934
689,0.0184156395790437
690,0.0186910188675537
691,0.0191797583716326
692,0.0191563514202868
693,0.0194889555701872
694,0.0198987970724638
695,0.0199243685918809
696,0.0203786535222147
697,0.0206025701130114
698,0.0204024524768587
699,0.0205721767945763
700,0.0210744830308934
701,0.0210112469730084
702,0.0213723814377266
703,0.0216513182962335
704,0.0221183645029183
705,0.0223081353867456
706,0.022607697956027
707,0.022845702954999
708,0.023006548616633
709,0.0234249523678883
710,0.0233173662828569
711,0.0233450291778416
712,0.0235491792532963
713,0.0227753753141775
714,0.0226003461200718
715,0.021547776485702
716,0.020654956403505
717,0.0200517001333284
718,0.0199508055302427
719,0.0201193245068452
720,0.0204464984437362
721,0.0202942216652745
722,0.0209359483969556
723,0.0209364080119423
724,0.0207655200130165
725,0.0209536596143402
726,0.0209357537827946
727,0.0211827136672825
728,0.0215325598513147
729,0.0218954926997638
730,0.0223744543745349
731,0.0229729311790361
732,0.0235588294658898
733,0.0243868108021723
734,0.0246229194467454
735,0.0247652582423455
736,0.0252489600636309
737,0.0252883826498436
738,0.0253278052360563
739,0.025367227822269
740,0.0257800834931261
741,0.0259307567302417
742,0.0260273512422295
743,0.0261239457542173
744,0.026220540266205
745,0.0261969884031553
746,0.0260918992072375
747,0.0261032602140119
748,0.0258315448523636
749,0.0257111027729308
750,0.0258923253238307
751,0.0254810467707152
752,0.0258713479531999
753,0.025507229325991
754,0.0251255405870281
755,0.023644647062618
756,0.0221637535382079
757,0.0206828600137977
758,0.018288749666968
759,0.0161458136640195
760,0.0145499783959315
761,0.0141877415120126
762,0.014573130962178
763,0.0155077459321631
764,0.0166950064149385
765,0.0180113866092618
766,0.019490316139802
767,0.0210112934367975
768,0.0218832110206332
769,0.0221776209873256
770,0.022741261662013
771,0.0229225854506174
772,0.0231846260420535
773,0.0232560787565224
774,0.0230512417244663
775,0.0228067022233823
776,0.0230080338550168
777,0.0225721206024696
778,0.0229382210156833
779,0.0223750623751225
780,0.0227298097360162
