"wavelength","measurement"
380,0.0048221451635775
381,0.0047680782030851
382,0.00469572080456871
383,0.0047538211273203
384,0.00490752895380759
385,0.00526647382803406
386,0.00561142597209787
387,0.00606884187854712
388,0.00623030908048785
389,0.00669997140296012
390,0.00674726253121954
391,0.00686422120260077
392,0.00697084025561409
393,0.00722247639833396
394,0.0073072393717034
395,0.0080242052367384
396,0.00895921291369462
397,0.0101115599195959
398,0.0112639069254972
399,0.0124162539313985
400,0.0131995454548674
401,0.0142997837115199
402,0.0150103281615683
403,0.0154334062628456
404,0.0160019556969107
405,0.0161885509438218
406,0.0167983614730234
407,0.01721661487592
408,0.0176651338633531
409,0.0182380219219915
410,0.0193076087221524
411,0.0197455632730435
412,0.0204030568557645
413,0.0211369302635201
414,0.0213215169618202
415,0.0219904762032127
416,0.0219261570617953
417,0.0219170590452894
418,0.0223702579230034
419,0.0220931705355697
420,0.0227800417235788
421,0.022781316305695
422,0.0229872904675786
423,0.0235369012569878
424,0.0236953092437465
425,0.0231917744467088
426,0.0230800915890588
427,0.0223762364093407
428,0.0219227242643707
429,0.0218636937889945
430,0.0221372465223251
431,0.0228623708597892
432,0.0236717305224742
433,0.0244836367261833
434,0.025512356347583
435,0.026227813668001
436,0.026406207979192
437,0.0269926071242923
438,0.0275790062693927
439,0.0281654054144931
440,0.0281592229712635
441,0.0289057829721702
442,0.029585337972643
443,0.0299937195353928
444,0.0305561816406639
445,0.031118643745935
446,0.0316811058512061
447,0.0322888777665875
448,0.0324713634445334
449,0.0339333995862729
450,0.0338583927752882
451,0.0336800563865647
452,0.0336619014822532
453,0.0336437465779417
454,0.0336255916736302
455,0.0337208985343728
456,0.033598601008509
457,0.0342122228286624
458,0.0344974160798419
459,0.0351026514492552
460,0.0350779963132124
461,0.0348171310393706
462,0.0359426283554747
463,0.0349470709552403
464,0.0345998206268205
465,0.0344456104193194
466,0.0340827862525396
467,0.034145229412914
468,0.0338208687903112
469,0.033607937274683
470,0.0343618831170319
471,0.034351479391513
472,0.0345873174229058
473,0.0350419534130983
474,0.0351848304936377
475,0.0358171475835996
476,0.0350489165638358
477,0.0351113809791714
478,0.035173845394507
479,0.0352363098098427
480,0.0353347872266302
481,0.0344131391056652
482,0.0339890217222507
483,0.0338498714136215
484,0.032860242864226
485,0.032173953270881
486,0.0324263602463925
487,0.0325979679686598
488,0.0330457506207512
489,0.033777213823457
490,0.0340533486846462
491,0.0344399369047653
492,0.0352203630211907
493,0.0349433955710941
494,0.0354824765027105
495,0.0350676761776223
496,0.0352987687611415
497,0.0347797952633177
498,0.035016199677992
499,0.0342935523124198
500,0.034454051000034
501,0.0342343642803313
502,0.0348776954262855
503,0.0350290319971155
504,0.0347570800036174
505,0.0359764837203226
506,0.0358430407857222
507,0.035947084231002
508,0.0362485784212916
509,0.0363966484882453
510,0.035725101721534
511,0.036427431947185
512,0.0363442133774217
513,0.0353075423949439
514,0.0350857961255501
515,0.0345097285525963
516,0.0343632730097651
517,0.0342916462321678
518,0.0341784977710295
519,0.0350356060216439
520,0.0356665943570395
521,0.0361738833536233
522,0.0366811723502071
523,0.0371884613467909
524,0.0370699511856315
525,0.0371377424105194
526,0.0374064952235395
527,0.0371864626399664
528,0.0374621410439774
529,0.0379975123360993
530,0.0380270843356668
531,0.038221961057334
532,0.0380904780335741
533,0.0384443518911863
534,0.0384648669492067
535,0.0381426640322842
536,0.0384960403309914
537,0.0383282828819979
538,0.0380872592969612
539,0.0377344389649861
540,0.0379829929522217
541,0.037691550455931
542,0.0374982975832448
543,0.037628670177367
544,0.037825251478598
545,0.0375205301752106
546,0.0377608095685029
547,0.0377619486522229
548,0.0377630877359429
549,0.0377642268196629
550,0.0372993335478938
551,0.0376547623718678
552,0.0379036406854432
553,0.0375675541300256
554,0.0373977593615205
555,0.0377607695307593
556,0.0371367584253048
557,0.0370274304986323
558,0.0368301702911663
559,0.0365209245389074
560,0.0368491338399907
561,0.0361742245967381
562,0.0367508835544375
563,0.0362116830060384
564,0.0362946404258353
565,0.0357600794707353
566,0.0355272790220126
567,0.0351841823166985
568,0.0353023806797246
569,0.034791260290597
570,0.0347956999977213
571,0.0348296365934051
572,0.0347216833655439
573,0.034628742896155
574,0.0348732527037776
575,0.0343223943758881
576,0.034338261605864
577,0.0343541288358398
578,0.0343699960658157
579,0.0343858632957916
580,0.0344017305257674
581,0.034687163318618
582,0.0343984315953284
583,0.0344861531590248
584,0.0339283700965781
585,0.0337670297058357
586,0.0327587981181152
587,0.0322387392587029
588,0.0318079455263387
589,0.0313771517939745
590,0.0309463580616103
591,0.0310694229361394
592,0.0312608978608934
593,0.0312611196025855
594,0.0316681935310819
595,0.0315059608583088
596,0.0316088476230383
597,0.0317073883055124
598,0.0316645305166524
599,0.0314931488109337
600,0.0317364136990304
601,0.0317395298530455
602,0.0319327326753361
603,0.031668296079394
604,0.0320300493912147
605,0.0316119812129909
606,0.0315783484459776
607,0.0313986438421025
608,0.0308801057536459
609,0.0307917558655769
610,0.0304343939757381
611,0.030247680091986
612,0.0297968108405227
613,0.0297138613778551
614,0.0292860588854505
615,0.0295777339800289
616,0.02912128922504
617,0.0292632252431191
618,0.0290931502034551
619,0.0291174541327059
620,0.0290027656859836
621,0.0290284256324497
622,0.028433680072485
623,0.0283391133791118
624,0.0281184729370475
625,0.0278978324949832
626,0.0276771920529189
627,0.0275720355106759
628,0.0274242931491402
629,0.0271993257781094
630,0.0273951089256514
631,0.0269422332693846
632,0.0269737508902393
633,0.0270864702539741
634,0.0270671601574807
635,0.02698410167706
636,0.0266373681611832
637,0.0268587220886197
638,0.0265906406723109
639,0.0265529212978571
640,0.0263798395975588
641,0.026115923256599
642,0.0258720195256524
643,0.0255983180833531
644,0.0253246166410538
645,0.0250509151987544
646,0.0250758674348447
647,0.0249807897789832
648,0.0242819315560596
649,0.0246567197076725
650,0.024240330637788
651,0.0244859718693339
652,0.024022678662
653,0.0235053552005119
654,0.023040313555321
655,0.0231020864275888
656,0.0229185145049442
657,0.0228509923517448
658,0.0231294287840443
659,0.0234995303282012
660,0.0237014104499923
661,0.0236373597373901
662,0.0235644236782713
663,0.0233613349544534
664,0.0230542319142897
665,0.0230951384588318
666,0.0230843437349251
667,0.0229677416232026
668,0.0229398995158183
669,0.0223552545583738
670,0.0224152415825569
671,0.0222721475527634
672,0.0220558742355801
673,0.0220435639732634
674,0.0220323522370897
675,0.0218803890365375
676,0.0218267709630559
677,0.0219242994351775
678,0.0215797888843865
679,0.0215083007136264
680,0.0219106568628134
681,0.021404810185514
682,0.0209684223979903
683,0.0206788005133572
684,0.0199337835997103
685,0.0193544868250387
686,0.0190635821508391
687,0.0186939037421044
688,0.0185873747592684
689,0.0187357883462629
690,0.018929957150801
691,0.0194974538915934
692,0.0195312715991225
693,0.0198266770541812
694,0.0201728674563951
695,0.0203005953915391
696,0.0207371876093082
697,0.0209497312658039
698,0.02076030658781
699,0.0209704628202616
700,0.0214518164583909
701,0.0214314722289311
702,0.0219451946732611
703,0.0220501843015696
704,0.0226169203438573
705,0.0227045881434199
706,0.0230263499338166
707,0.0234180828724036
708,0.0235725020928499
709,0.0240314910867929
710,0.0238279483685082
711,0.0239288753596061
712,0.0242066228528123
713,0.0233387022158841
714,0.0230662631061819
715,0.0220660383019013
716,0.0212080436644809
717,0.0206331730650277
718,0.0205530777321762
719,0.020722303350652
720,0.0209168819398004
721,0.0206727417178046
722,0.0214324109780057
723,0.0214504966412292
724,0.0213713820889951
725,0.02151843979839
726,0.0213680319491606
727,0.0219147213173013
728,0.0220022900369677
729,0.0224586729399495
730,0.0229511941389694
731,0.0236038823747346
732,0.0242601248601495
733,0.0249816699308685
734,0.0253710265318973
735,0.0254204352547206
736,0.0258589386618434
737,0.0259513949428646
738,0.0260438512238858
739,0.026136307504907
740,0.0265637359977936
741,0.0265965867021791
742,0.0267098028532001
743,0.0268230190042211
744,0.0269362351552421
745,0.0268498721626584
746,0.0268950710270477
747,0.0269562836180565
748,0.0266210638178664
749,0.0265434069039344
750,0.0266033003784685
751,0.0261708892334805
752,0.0265913226920736
753,0.0261370205623881
754,0.025833275755341
755,0.0242919443514621
756,0.0227506129475832
757,0.0212092815437043
758,0.0187272942801353
759,0.0166096973881355
760,0.0149218053499632
761,0.0146412722660409
762,0.0151011124373521
763,0.0161027583888129
764,0.0172818924900449
765,0.0184032928587888
766,0.0201349601884047
767,0.0216727368959739
768,0.0223631941798823
769,0.0230533902599723
770,0.0234166512985387
771,0.0236607995495426
772,0.0237778852268855
773,0.0238707771891341
774,0.0236797263400409
775,0.0236437928531129
776,0.023695929719414
777,0.0232672428799866
778,0.0234960414439241
779,0.0232143129290697
780,0.0233466147613824
