"wavelength","measurement"
380,0.00582966361918717
381,0.00582981711979934
382,0.00587182043276443
383,0.00585002434264187
384,0.0060762043091263
385,0.0063425753030142
386,0.00689140636442752
387,0.00737161972701249
388,0.00791745325720674
389,0.00818032362218641
390,0.00813006930568388
391,0.00826225305507849
392,0.00851901321745122
393,0.00854391703480574
394,0.0090009786066131
395,0.00966062749983506
396,0.0106395648592165
397,0.0120448947344072
398,0.0134502246095979
399,0.0148555544847886
400,0.0155803709592973
401,0.0168283716398572
402,0.0175650070112965
403,0.018111996499814
404,0.018461947750358
405,0.0189017414649084
406,0.0193775171641634
407,0.0199319400409618
408,0.0201294873573392
409,0.0208899829619403
410,0.0222308471621626
411,0.0224257895142172
412,0.0233989025035705
413,0.0241092501928808
414,0.0242541097417
415,0.0248355669834781
416,0.0247906302363606
417,0.0248317239125587
418,0.0254134954423613
419,0.0249374956873767
420,0.025657732272475
421,0.0257446954606057
422,0.0259552592033399
423,0.0264038541804358
424,0.0263609620525666
425,0.0259549074185847
426,0.0257847409375307
427,0.0251317857708403
428,0.0244078138125018
429,0.0245283582982229
430,0.0245822463026018
431,0.025498112353589
432,0.0263679063718297
433,0.0274120732490361
434,0.0284318271477182
435,0.0290985950323252
436,0.0294814969024839
437,0.0300035720764701
438,0.0305256472504563
439,0.0310477224244425
440,0.0312366678850004
441,0.0319453939658503
442,0.0329167554262317
443,0.0330764698091838
444,0.0337839569083371
445,0.0344914440074903
446,0.0351989311066435
447,0.0356808553726528
448,0.0360261963768419
449,0.037451867830278
450,0.0372042121204098
451,0.0371591737228036
452,0.0370885018322988
453,0.037017829941794
454,0.0369471580512892
455,0.0369348201604899
456,0.0371513958308665
457,0.0372763730054975
458,0.0377496705893762
459,0.0382791617359146
460,0.0385220474459637
461,0.0378401952826297
462,0.0391545308619086
463,0.0380524032037114
464,0.0376300442114642
465,0.0374630575266011
466,0.036959517205512
467,0.0369235686517228
468,0.0367597144797526
469,0.0362769112211161
470,0.0371377737750743
471,0.0372243096811292
472,0.0374296967702993
473,0.0379448327461751
474,0.0380349693175877
475,0.0386585682271262
476,0.0378552484047663
477,0.0378814400562046
478,0.0379076317076429
479,0.0379338233590812
480,0.037930725135896
481,0.0368988437765478
482,0.0364491639546768
483,0.0362496705545876
484,0.0352308846903451
485,0.0344493402676811
486,0.0346257393704564
487,0.0349692020003821
488,0.0352568321782661
489,0.036297939701569
490,0.0364415619018492
491,0.0367682191215892
492,0.0376802726662108
493,0.0372503840761528
494,0.0378253857069945
495,0.0375331737816699
496,0.037639639732054
497,0.0370361672930828
498,0.037259182498256
499,0.0363505257472171
500,0.0366350391182787
501,0.0363214397900925
502,0.0369182323808479
503,0.0370740329312848
504,0.036828079589369
505,0.0379582772773036
506,0.0378235149798469
507,0.0379476114661624
508,0.0382038501546831
509,0.0382734956067391
510,0.0376686741286283
511,0.0382038963910415
512,0.038001522479857
513,0.0368369314718693
514,0.0367180412767154
515,0.036029600553933
516,0.0358521637860025
517,0.0357766680714556
518,0.0356527415825204
519,0.0362988539491048
520,0.0370828263694104
521,0.0375387112209478
522,0.0379945960724852
523,0.0384504809240227
524,0.0381964680077329
525,0.0383165901333345
526,0.0384065254176347
527,0.0382714975829399
528,0.0384839041881708
529,0.0388460013396496
530,0.0389553903754695
531,0.0390772348756185
532,0.0389322618746556
533,0.0392114117044318
534,0.0393223821576004
535,0.0388702172483158
536,0.0390984884141916
537,0.0389140179014672
538,0.0385506060238181
539,0.0382851824159325
540,0.0384980076197013
541,0.038092496496505
542,0.0378732501386515
543,0.0379566479521431
544,0.0383002598198463
545,0.037901933748608
546,0.0382866342157105
547,0.0381780065528606
548,0.0380693788900108
549,0.037960751227161
550,0.0376155893543186
551,0.0379134812044054
552,0.0382496144683415
553,0.037864680980424
554,0.0375964494729567
555,0.0378456635523248
556,0.0373465167979159
557,0.0372494044192411
558,0.0369313885995063
559,0.0366256937707239
560,0.0370020381447644
561,0.0362270533296213
562,0.0368676264904721
563,0.0363343061225206
564,0.0364611594851182
565,0.0358990807750941
566,0.0356400018729258
567,0.0351651356921219
568,0.0354269293392307
569,0.0348688895368726
570,0.0347976732540994
571,0.0349308106777864
572,0.0347860399278662
573,0.0347139292493332
574,0.0349368205874063
575,0.034443061527702
576,0.0344610475536887
577,0.0344790335796753
578,0.034497019605662
579,0.0345150056316486
580,0.0345329916576353
581,0.0348523492766565
582,0.0345005695878836
583,0.0345925694786308
584,0.0339860880110692
585,0.0337917838190754
586,0.0327514622254379
587,0.0322955182730138
588,0.0318894111914004
589,0.0314833041097871
590,0.0310771970281737
591,0.0311708142335627
592,0.0313597168810942
593,0.0313296894512675
594,0.031700640152696
595,0.0316362883007246
596,0.0316860666352546
597,0.0316956896636977
598,0.0316365408604105
599,0.0315992875985553
600,0.0317213769387464
601,0.0318465800910452
602,0.0318338673085101
603,0.0316426202145592
604,0.0319654211319356
605,0.0315168801903892
606,0.0315544511092201
607,0.031278642111387
608,0.0308207780594452
609,0.0308156642309936
610,0.0303737560115688
611,0.0301831651389538
612,0.0298105244690874
613,0.0296386592242987
614,0.0291823886512362
615,0.0294753844708339
616,0.0290171206594006
617,0.0290997585183817
618,0.0290072208830451
619,0.029100815051109
620,0.0289021326010804
621,0.0289967568331835
622,0.0282952990059506
623,0.0282554691203851
624,0.0279973848227221
625,0.0277393005250591
626,0.0274812162273961
627,0.0273812746694663
628,0.0272411639532816
629,0.0271030860857946
630,0.0272640491461661
631,0.0267294338768841
632,0.0268678722983227
633,0.0268601238274946
634,0.0267909352086822
635,0.0268185654072307
636,0.0265197867524476
637,0.02663197359989
638,0.0262661008515615
639,0.0263204748092476
640,0.02606535645787
641,0.0258295486694512
642,0.0256396658530854
643,0.0253840173009644
644,0.0251283687488435
645,0.0248727201967225
646,0.0248525888521766
647,0.024683422815854
648,0.0242122066635121
649,0.0244760146111763
650,0.0240921823677332
651,0.0242172527796171
652,0.0238221939185276
653,0.0234144298736328
654,0.022866069661691
655,0.0229558577368116
656,0.0226210354216298
657,0.0227208468775509
658,0.0228103395309716
659,0.0232651889960413
660,0.0233440843596502
661,0.0233351989687162
662,0.0234012654723893
663,0.0230970905064866
664,0.0228794756439799
665,0.0228784958265346
666,0.0228165643609561
667,0.0226195346050419
668,0.0225323955263331
669,0.0221656106740021
670,0.0221212329115222
671,0.0220016485854441
672,0.0218643029850827
673,0.021747947228127
674,0.0217466776066898
675,0.0215496658715771
676,0.0215017137653691
677,0.0215262315371743
678,0.0211242203081511
679,0.0211544298297781
680,0.0214413164746264
681,0.0211967861524299
682,0.0205651535258706
683,0.0202053139505547
684,0.0195479682322382
685,0.0190715947157253
686,0.0186380089362273
687,0.0182591195894236
688,0.0181304347257197
689,0.018190507448195
690,0.0184160049409976
691,0.0188352024819093
692,0.01896493596096
693,0.0190654956668377
694,0.0193603275225684
695,0.0193730653837563
696,0.0198199129445145
697,0.0199763678663182
698,0.0197213000907669
699,0.0198273469237772
700,0.0201852330710707
701,0.0200394381805725
702,0.0204669158372174
703,0.020566815786002
704,0.0208419434419264
705,0.0209367942115826
706,0.0213012822194447
707,0.0214342333305489
708,0.0216238271786392
709,0.0218639097843018
710,0.0218148508101756
711,0.0217730502837306
712,0.0219058946387966
713,0.0211401547325041
714,0.0207019049698404
715,0.0198487554954852
716,0.0190483911357727
717,0.0182635962605806
718,0.0182046570121951
719,0.018323569142677
720,0.0186232792048416
721,0.0183466741536826
722,0.0189188465298078
723,0.018776065972475
724,0.0187282982825859
725,0.018838470604347
726,0.0188332561440794
727,0.0190188277904181
728,0.0192035145863696
729,0.0195039224050078
730,0.0198805398207286
731,0.0205228080653543
732,0.0209677872380019
733,0.0216055995348398
734,0.0217840802547455
735,0.022112414103315
736,0.022235799172137
737,0.0223304658064184
738,0.0224251324406999
739,0.0225197990749813
740,0.0225605762344487
741,0.0227694281233189
742,0.0228474837178315
743,0.0229255393123441
744,0.0230035949068567
745,0.0230317675715899
746,0.0229171285472643
747,0.0229553822156374
748,0.0225819409625587
749,0.0226380192742887
750,0.0225360749447162
751,0.02218971817981
752,0.0224493222169267
753,0.022264751251608
754,0.0219734490273767
755,0.0206385909420393
756,0.0193037328567019
757,0.0179688747713646
758,0.01592871973102
759,0.0139773741621441
760,0.0126252042530363
761,0.0123403911924488
762,0.012691171246323
763,0.0134655084518053
764,0.014553363997433
765,0.0156747472773535
766,0.0169065294345897
767,0.0183180036025044
768,0.0188336309233315
769,0.0193507629669463
770,0.0198366115004087
771,0.0199551237198126
772,0.0200116954111945
773,0.0201402769095527
774,0.0199314725727561
775,0.0199468143648605
776,0.0197660526275815
777,0.0196180996066643
778,0.0197516549252287
779,0.0194948804156128
780,0.0196663241365619
