"wavelength","measurement"
380,0.0330286268242368
381,0.0315385348073865
382,0.032084995808878
383,0.0309084843445617
384,0.0317498368432195
385,0.0331311922539814
386,0.0349429688837242
387,0.0366021171507964
388,0.0390500243161981
389,0.0404442553744552
390,0.0404491863737104
391,0.0408504240498271
392,0.0412212170567626
393,0.0427409607774884
394,0.04340630483634
395,0.0471044367311844
396,0.0525233261278219
397,0.059712423472003
398,0.066901520816184
399,0.0740906181603651
400,0.0775269567590884
401,0.0839862097090897
402,0.0872038234737677
403,0.0899552077858703
404,0.0922481636112433
405,0.0929794740006421
406,0.0963178078197672
407,0.0978695919393042
408,0.100653972695672
409,0.103341479233278
410,0.109103442166837
411,0.110496448620994
412,0.114420912243446
413,0.118441224995092
414,0.119427424046779
415,0.121468112453561
416,0.121628209738117
417,0.12062598475604
418,0.12368701264956
419,0.122434993175191
420,0.125999031348916
421,0.125982142026448
422,0.127380155936745
423,0.128248457298371
424,0.12926884348272
425,0.126686649994882
426,0.125539973799174
427,0.122049605278791
428,0.119336667333068
429,0.118812673493002
430,0.119011662542177
431,0.123006081762567
432,0.127874044292897
433,0.131730486153618
434,0.13741036503172
435,0.139823281439601
436,0.142011657614701
437,0.144076571296593
438,0.146141484978485
439,0.148206398660377
440,0.148961267479113
441,0.152106530299967
442,0.155009021652558
443,0.155672140493573
444,0.157866533292139
445,0.160060926090705
446,0.162255318889271
447,0.164553214442608
448,0.164564841286823
449,0.170740809139863
450,0.170112157336551
451,0.168362879642194
452,0.167784401408344
453,0.167205923174494
454,0.166627444940644
455,0.166169534983624
456,0.16699473141692
457,0.16768407070593
458,0.169485267896975
459,0.171416731407654
460,0.171847474951511
461,0.169705144759693
462,0.175167529160856
463,0.170062786573424
464,0.16846283052029
465,0.167406485462829
466,0.165146226263746
467,0.165297197034305
468,0.164089718552331
469,0.163352523950824
470,0.166260167918646
471,0.167107921408956
472,0.167756833663343
473,0.170525135952483
474,0.171463868530889
475,0.174321732075144
476,0.170357274797713
477,0.170879960514002
478,0.171402646230291
479,0.171925331946579
480,0.17179412129428
481,0.167626842734404
482,0.165401150212832
483,0.164260684783976
484,0.160067881909246
485,0.156162580892244
486,0.157683996068081
487,0.158777337191532
488,0.160231064174821
489,0.164353606181198
490,0.165315558563553
491,0.166912737669496
492,0.170705942518595
493,0.16860291591631
494,0.171585859689922
495,0.169399138371641
496,0.169430023623014
497,0.167178457375318
498,0.168246815713721
499,0.164165988011828
500,0.164962987552124
501,0.163881639371066
502,0.166730098118793
503,0.166965548025535
504,0.165724806957562
505,0.170275632908337
506,0.169873823385848
507,0.170404883078415
508,0.17133547794749
509,0.171713128221988
510,0.168401670100329
511,0.170489585561687
512,0.168992483284812
513,0.16418451554686
514,0.163397039461265
515,0.160658837267575
516,0.159401244375594
517,0.158843312938441
518,0.158234963498555
519,0.16181350877768
520,0.164465647576984
521,0.166354271901265
522,0.168242896225547
523,0.170131520549828
524,0.169337890813325
525,0.169800065024551
526,0.170932064599934
527,0.169255699993482
528,0.170747340150185
529,0.17285989584008
530,0.173014801109283
531,0.173321192026304
532,0.172426348631293
533,0.174459853142205
534,0.17458065268289
535,0.172841250896581
536,0.174297529771063
537,0.173285662178051
538,0.172274870575637
539,0.171004982290016
540,0.171828470969806
541,0.171108373623968
542,0.170033629030944
543,0.170625377682
544,0.171945913790762
545,0.17084355381508
546,0.172329578023878
547,0.172153091497464
548,0.171976604971049
549,0.171800118444635
550,0.170854863888079
551,0.172038388281053
552,0.173649571384997
553,0.17182527213177
554,0.171162526558672
555,0.172797434484747
556,0.170472094619919
557,0.169878282837633
558,0.168867366075948
559,0.16775920570694
560,0.169163150419889
561,0.16618187173013
562,0.169359612149358
563,0.166663227215626
564,0.167611219756435
565,0.16537296244236
566,0.164289491997976
567,0.162520489977231
568,0.163812146390189
569,0.162262436429956
570,0.162333958432033
571,0.162972947637324
572,0.162663635983061
573,0.162821329565374
574,0.16409995047677
575,0.161880374737771
576,0.162374866002659
577,0.162869357267548
578,0.163363848532436
579,0.163858339797325
580,0.164352831062213
581,0.166845099175861
582,0.165747764104407
583,0.16666011991414
584,0.164410172001325
585,0.163913486771164
586,0.159318826584602
587,0.157774588174154
588,0.156246014686686
589,0.154717441199218
590,0.153188867711749
591,0.154272515605651
592,0.156001284017514
593,0.155905292463839
594,0.158673955608383
595,0.158257025210986
596,0.159351103073671
597,0.160385591384677
598,0.160181069490756
599,0.160700587962825
600,0.162083189928051
601,0.16264360187552
602,0.163570401167188
603,0.162980794775146
604,0.165224850336957
605,0.163733166829984
606,0.164201300613982
607,0.163590590130961
608,0.161639600955305
609,0.161768830046205
610,0.16023074707574
611,0.159952956857144
612,0.158385337129924
613,0.157963408282431
614,0.156150404948885
615,0.158508386889934
616,0.156144164562922
617,0.15798035540226
618,0.157647134315796
619,0.158006590727117
620,0.157901832697661
621,0.158829693915676
622,0.15648872405166
623,0.156253865687386
624,0.155555351968244
625,0.154856838249101
626,0.154158324529958
627,0.153919652447925
628,0.153525998548273
629,0.153532248069044
630,0.154454786584602
631,0.152660352798554
632,0.153414081533602
633,0.154213137832328
634,0.154232106850395
635,0.155640247309001
636,0.153714468579625
637,0.155186280752437
638,0.154345096321047
639,0.154800389143239
640,0.154272298838225
641,0.153596943570689
642,0.152536075267703
643,0.151512141040433
644,0.150488206813163
645,0.149464272585893
646,0.150597787948216
647,0.150642444876316
648,0.147617220322721
649,0.150314663809918
650,0.148774219979691
651,0.150008844850084
652,0.148279706703898
653,0.146343795647801
654,0.143718380033463
655,0.14490642370451
656,0.143381917262568
657,0.145005703593063
658,0.146429201803955
659,0.149925067083864
660,0.151593336208017
661,0.15186762875603
662,0.152654315792007
663,0.151842617538845
664,0.151329386221712
665,0.152176090940682
666,0.152269954538519
667,0.151961157064301
668,0.152774190724792
669,0.150029107518986
670,0.150671561810264
671,0.150174333375427
672,0.149838860287301
673,0.150406815048089
674,0.150566028585207
675,0.150496376796518
676,0.150487089701145
677,0.151609061695785
678,0.150238710396762
679,0.150030627981581
680,0.15343238679315
681,0.150848637055075
682,0.148494170128258
683,0.14587903157603
684,0.142065408698759
685,0.138724586095814
686,0.136574909976983
687,0.133660708167654
688,0.13387228993679
689,0.134204166537949
690,0.136436519224323
691,0.139921653835637
692,0.140237410745963
693,0.14304017066435
694,0.144522992548325
695,0.145590506791781
696,0.148446112021408
697,0.150364171606965
698,0.149333802143642
699,0.150146955802557
700,0.153585274834229
701,0.153413419766278
702,0.15727944126892
703,0.158412946983832
704,0.161970623851626
705,0.163028200149285
706,0.165727097762941
707,0.168507183552602
708,0.169281604040695
709,0.172322928022595
710,0.171862440320005
711,0.172596649362151
712,0.174546212818178
713,0.1690395039737
714,0.166837612028025
715,0.159769819919618
716,0.153912528424764
717,0.149860023135134
718,0.14930099500421
719,0.150842960987378
720,0.153462940470605
721,0.152326865556979
722,0.158006976454505
723,0.158106326823191
724,0.158978026743351
725,0.159655430862965
726,0.159696576709091
727,0.163180411931817
728,0.165560521712876
729,0.169820760726615
730,0.173908496629769
731,0.179942723127634
732,0.18512178939011
733,0.19160235869384
734,0.194717599277869
735,0.197588917609675
736,0.20047914973991
737,0.202347827031818
738,0.204216504323725
739,0.206085181615633
740,0.21070328895648
741,0.211906769974623
742,0.214020180142454
743,0.216133590310286
744,0.218247000478118
745,0.219255408571063
746,0.219746661660261
747,0.221278763674678
748,0.219611106651354
749,0.221387260670496
750,0.222058167229706
751,0.220590378178175
752,0.224360750827202
753,0.223357558829101
754,0.221515746381477
755,0.208729820481277
756,0.195943894581076
757,0.183157968680875
758,0.16220540996952
759,0.144123138237009
760,0.131302964869153
761,0.129448000344278
762,0.13356103805933
763,0.142606293378811
764,0.155210034608962
765,0.167898282663648
766,0.183115048971098
767,0.197787142285697
768,0.206321378336295
769,0.212131669136554
770,0.217613637601391
771,0.219452809395924
772,0.221851500734366
773,0.224819238167482
774,0.223548880072497
775,0.223835490625437
776,0.225046276456696
777,0.222935730111874
778,0.226367979338533
779,0.223306330404789
780,0.227082655725126
