"wavelength","measurement"
380,0.0302911606009693
381,0.0286137392200566
382,0.0295813248299749
383,0.0288501211022276
384,0.0291910971010355
385,0.0312628073634999
386,0.0325352514728955
387,0.0339952647013461
388,0.0361350376219554
389,0.0377811389214509
390,0.0380431885987342
391,0.0383977902850561
392,0.0390529724097663
393,0.0402423773257933
394,0.0417663915577827
395,0.0448971472781894
396,0.0506388057909216
397,0.0574202216164867
398,0.0642016374420517
399,0.0709830532676168
400,0.0753453624546625
401,0.0813944423586065
402,0.085390566307749
403,0.0877480915149194
404,0.0905127266592676
405,0.0921434521624918
406,0.094878438105811
407,0.0971161796746097
408,0.0992612700592134
409,0.102886361195742
410,0.108924437581303
411,0.110984909531296
412,0.114920192233969
413,0.118459455957284
414,0.119751952890437
415,0.122312225134512
416,0.122091595599963
417,0.121859906199836
418,0.125083093759196
419,0.12330488449322
420,0.126812014174721
421,0.126418448090417
422,0.128410764466599
423,0.129380313398502
424,0.130188379294118
425,0.128129541287186
426,0.127207960767245
427,0.124206597014678
428,0.120768836345434
429,0.120160766346403
430,0.120304245156692
431,0.124509996613164
432,0.129277301524325
433,0.133025479894764
434,0.138565787674449
435,0.14201159515897
436,0.143692039869567
437,0.145908041464845
438,0.148124043060122
439,0.1503400446554
440,0.150851286651768
441,0.153660379619787
442,0.157167398860606
443,0.157960697574428
444,0.160368103064069
445,0.16277550855371
446,0.16518291404335
447,0.167372025461626
448,0.167689835532684
449,0.174209464500272
450,0.172812750112874
451,0.171338807373365
452,0.170864967839923
453,0.170391128306481
454,0.169917288773039
455,0.169491072353768
456,0.169511134484628
457,0.17115752039767
458,0.172175387704571
459,0.17448370582616
460,0.174782227737484
461,0.173538438733545
462,0.177765981032158
463,0.173500595942968
464,0.172082363028028
465,0.170681432828147
466,0.16867908251627
467,0.168442014050148
468,0.167595408410264
469,0.166644662055635
470,0.170557973038106
471,0.170242866488079
472,0.171834114853717
473,0.173974431244591
474,0.175199824760312
475,0.178345774584296
476,0.175024186806585
477,0.175415763915851
478,0.175807341025117
479,0.176198918134383
480,0.176270359558957
481,0.171676734314239
482,0.169092961817546
483,0.16858833287633
484,0.164336375721416
485,0.160327219191502
486,0.16190522147335
487,0.162903242424467
488,0.164158539617292
489,0.168414546899547
490,0.169697457806233
491,0.171385506629512
492,0.174959044455619
493,0.173021466368931
494,0.175860728712054
495,0.173639542806421
496,0.174452634186966
497,0.171607688459786
498,0.172511025713872
499,0.168578408419696
500,0.169354834020944
501,0.168137996606104
502,0.171051231300876
503,0.172078607769847
504,0.169826246074269
505,0.175330627243568
506,0.174454990688297
507,0.175013138674687
508,0.17603677854858
509,0.175937361500841
510,0.173230021450124
511,0.175079482226173
512,0.174299003838034
513,0.169078070151118
514,0.168116934811875
515,0.164876598746815
516,0.163747706723018
517,0.163377079976009
518,0.163063505108749
519,0.165651497863634
520,0.168574470996992
521,0.17054529776052
522,0.172516124524049
523,0.174486951287577
524,0.173591800941109
525,0.173694027011604
526,0.174593510205706
527,0.173481121357875
528,0.174532923698725
529,0.17718665206264
530,0.177034773312431
531,0.177166065448727
532,0.176599564615689
533,0.178331871691937
534,0.178636649752251
535,0.176851343368394
536,0.178134437844733
537,0.177164828069428
538,0.175947096508622
539,0.174838286389644
540,0.17597650093816
541,0.174728619780863
542,0.17399365127359
543,0.174715596868321
544,0.175672146599461
545,0.174494220149417
546,0.175933763813927
547,0.175892835935473
548,0.175851908057019
549,0.175810980178566
550,0.174244850912522
551,0.175528616596021
552,0.177247570405798
553,0.175400680234158
554,0.175267895310289
555,0.176659483175867
556,0.174113024005373
557,0.173322231484709
558,0.172718358122233
559,0.171146355826198
560,0.172825330020606
561,0.169989773852957
562,0.172894518057118
563,0.170627323800399
564,0.171410964955374
565,0.169192151884114
566,0.168354539606605
567,0.16646974285314
568,0.167203513017054
569,0.165660563763332
570,0.165786679297281
571,0.166143477522307
572,0.166499149331706
573,0.166298275918852
574,0.167801507761383
575,0.165937620434858
576,0.166373334831809
577,0.166809049228759
578,0.16724476362571
579,0.16768047802266
580,0.168116192419611
581,0.170653470658199
582,0.16950699434189
583,0.170981333726154
584,0.168097428271062
585,0.168012456294102
586,0.163668637381892
587,0.161782669151216
588,0.160402090829823
589,0.159021512508429
590,0.157640934187036
591,0.158282922793267
592,0.160484084048368
593,0.160511229977427
594,0.163285423108355
595,0.162649851231747
596,0.163866968365067
597,0.165205562781382
598,0.165037152156246
599,0.165442943102877
600,0.166300769091559
601,0.16773748496501
602,0.168535904803016
603,0.168227783158563
604,0.169790472297223
605,0.168919591170729
606,0.169038460311433
607,0.168652060069301
608,0.166707759673198
609,0.166888856071776
610,0.165441381797515
611,0.164998495873903
612,0.163284042768109
613,0.16308311938607
614,0.161012255586339
615,0.163756167125419
616,0.161274435782128
617,0.162776621043872
618,0.162728740013371
619,0.163653853399284
620,0.163200655626864
621,0.164532098164024
622,0.161563910609995
623,0.161501969299206
624,0.160863219270259
625,0.160224469241312
626,0.159585719212365
627,0.159490953187365
628,0.159089095567702
629,0.158202208408909
630,0.160169877221646
631,0.157764382700912
632,0.158822896061599
633,0.159989924113727
634,0.159799376591679
635,0.160524276568765
636,0.159107772074204
637,0.160697501349334
638,0.159706946364147
639,0.16046155106409
640,0.159604178834059
641,0.159010500705171
642,0.158357819910418
643,0.157484897062248
644,0.156611974214077
645,0.155739051365907
646,0.156127387782442
647,0.155640038219493
648,0.153058603475297
649,0.155863426300637
650,0.154104467435567
651,0.15560783861
652,0.153544510444835
653,0.151533097306339
654,0.148581519020596
655,0.150555672137187
656,0.148631047121661
657,0.150164395299133
658,0.151495526035024
659,0.155640350266503
660,0.157259898446125
661,0.157673486180618
662,0.15841524562441
663,0.157934145833734
664,0.157002576802578
665,0.157127150618095
666,0.157902727942707
667,0.157534158903274
668,0.158190403098351
669,0.155526002503735
670,0.156549440744257
671,0.156033861232584
672,0.155365999918246
673,0.15585035182477
674,0.156204488674675
675,0.156492850226487
676,0.1562845510781
677,0.157294952735745
678,0.155644410943859
679,0.155414183552109
680,0.159545026302801
681,0.156679121365501
682,0.153889560116111
683,0.151390759503549
684,0.147105049732614
685,0.144018573224968
686,0.141634726771823
687,0.139186877111799
688,0.138533630238059
689,0.139147916620923
690,0.141405577032796
691,0.144979677219143
692,0.145466074993627
693,0.147775889006412
694,0.149839902330032
695,0.150698235792545
696,0.153540299130621
697,0.155460508724564
698,0.154552561875512
699,0.155479388102638
700,0.158926945110649
701,0.15852418074309
702,0.162116871787888
703,0.163156689408976
704,0.166660830206224
705,0.168198957891457
706,0.171187509965108
707,0.173679776867038
708,0.174853655020138
709,0.177430031599635
710,0.177398278613415
711,0.177775943338674
712,0.180190297655575
713,0.173796884758428
714,0.171467101432556
715,0.164818168560746
716,0.158941283113772
717,0.154605766867515
718,0.153699300301137
719,0.155596258060417
720,0.157926243594584
721,0.157223136131702
722,0.162677328658964
723,0.162035191169114
724,0.162744242839566
725,0.164588496982265
726,0.164354502462178
727,0.167557656950225
728,0.169956809328784
729,0.174319777782068
730,0.178535739767788
731,0.184285834772023
732,0.190531357838626
733,0.196018292007164
734,0.200277031021544
735,0.202330764462214
736,0.20625975054758
737,0.207893450694519
738,0.209527150841458
739,0.211160850988397
740,0.21548924453301
741,0.21736711019496
742,0.219446994904849
743,0.221526879614737
744,0.223606764324625
745,0.224940893218073
746,0.225322347521233
747,0.226388328783133
748,0.225203067517943
749,0.226592197937875
750,0.226764181513534
751,0.226854287028611
752,0.230306585989072
753,0.229037822164229
754,0.226778906235539
755,0.213975010143901
756,0.201171114052264
757,0.188367217960626
758,0.166679076708184
759,0.148101929436765
760,0.134582602873771
761,0.132797021116603
762,0.137161230959681
763,0.146559382453462
764,0.15951032414772
765,0.172385527470391
766,0.187769508049613
767,0.203060896520215
768,0.211079290262152
769,0.217327973273427
770,0.223433145955886
771,0.224857829840419
772,0.227637666380945
773,0.230477184810051
774,0.229412460507413
775,0.230112024432203
776,0.231421382932035
777,0.229451989257995
778,0.23237843992784
779,0.229391624115086
780,0.23293256069552
