"wavelength","measurement"
380,0.0753617527128301
381,0.0714908336447665
382,0.0697957955536901
383,0.0678551816098422
384,0.0676969395941055
385,0.0703504200284376
386,0.0726436814152094
387,0.0751221674904047
388,0.0778993243750966
389,0.0795549825426694
390,0.0783804800446199
391,0.0774844219028687
392,0.0761505485766988
393,0.0763691433682221
394,0.0762325968784832
395,0.0799357105791712
396,0.0877261118398992
397,0.0959259917065555
398,0.104125871573212
399,0.112325751439868
400,0.117717410025696
401,0.122913643829384
402,0.12538678010288
403,0.125650396217146
404,0.125815981808426
405,0.124808633119586
406,0.125774454030941
407,0.125375620532564
408,0.125921454094013
409,0.127526064148817
410,0.132680720770634
411,0.13341961586645
412,0.136067080034201
413,0.13861936639982
414,0.139169225342214
415,0.141238675496668
416,0.139985121009562
417,0.139703272694543
418,0.142018101921842
419,0.139486349258736
420,0.143044243194709
421,0.142765315192895
422,0.143675010227824
423,0.145738043053648
424,0.145761233615536
425,0.143388448003211
426,0.142643927564175
427,0.13821749587564
428,0.134794823974384
429,0.134269142441092
430,0.134246862547075
431,0.139228862905261
432,0.143049483580887
433,0.147631846602391
434,0.153507590594929
435,0.156640365564095
436,0.15759369307841
437,0.16001558199386
438,0.16243747090931
439,0.16485935982476
440,0.164652395306989
441,0.167350660116571
442,0.16963993241194
443,0.170376408956947
444,0.172238756650964
445,0.174101104344981
446,0.175963452038998
447,0.177075619524115
448,0.178004939281887
449,0.183650020729594
450,0.182193295458207
451,0.180015075338629
452,0.179063112170848
453,0.178111149003066
454,0.177159185835285
455,0.175717715157522
456,0.176575763325078
457,0.177663209879466
458,0.178866799605366
459,0.180138269277395
460,0.180211004715308
461,0.17856149620148
462,0.183654666139888
463,0.177286653991036
464,0.175760738344604
465,0.174446198244608
466,0.171827560544429
467,0.170655194407286
468,0.169364876402554
469,0.168104757848969
470,0.17123391313552
471,0.17078088832788
472,0.17070692617037
473,0.172551782314937
474,0.173035341928794
475,0.175386928523874
476,0.170776598276391
477,0.170678758098587
478,0.170580917920783
479,0.170483077742978
480,0.169364422452589
481,0.165929765188255
482,0.161747612224704
483,0.161608389927092
484,0.156893989741063
485,0.152812619743531
486,0.153517508876252
487,0.154675974059706
488,0.156116206272489
489,0.159379831094454
490,0.159979099659153
491,0.161406534344871
492,0.164737475730365
493,0.162828551637606
494,0.165221171161822
495,0.163275928903857
496,0.163338540250059
497,0.161021065386416
498,0.161120259372063
499,0.157597138133755
500,0.158519063413209
501,0.15714017790523
502,0.159161222765723
503,0.159805525710557
504,0.158083800427345
505,0.162818610640693
506,0.161855470215365
507,0.162456781084157
508,0.163384427713006
509,0.162955353629241
510,0.160259272803364
511,0.162185130926558
512,0.161221639595114
513,0.156365586474053
514,0.154980880192422
515,0.152262138000404
516,0.150959810273408
517,0.150012997790344
518,0.149526739148892
519,0.15234485313885
520,0.154962602861488
521,0.156702361917217
522,0.158442120972946
523,0.160181880028675
524,0.159284118353704
525,0.159191839303193
526,0.159835908398168
527,0.158492632565832
528,0.159526521211696
529,0.161743890781412
530,0.161558910479592
531,0.162112877656137
532,0.161078127972154
533,0.162594449564462
534,0.162375506060907
535,0.161444003388766
536,0.162280805769824
537,0.160912395034627
538,0.160208643000688
539,0.158678991716464
540,0.159468180076471
541,0.158248882047034
542,0.156754735258266
543,0.157722449205043
544,0.159026501831679
545,0.157486950777401
546,0.158910279379649
547,0.158612565071938
548,0.158314850764227
549,0.158017136456516
550,0.156726131625368
551,0.157902422261726
552,0.159459224937682
553,0.157658916763739
554,0.157030630106271
555,0.158686677249927
556,0.156321025249855
557,0.155473426435448
558,0.154639816530963
559,0.153072385143842
560,0.154957447176792
561,0.152621825683127
562,0.154703562068773
563,0.152603868861332
564,0.153384345962737
565,0.151070133908972
566,0.150554192130393
567,0.148363090170904
568,0.149586448858243
569,0.147391651154679
570,0.147740469818796
571,0.147705544414123
572,0.147876748850866
573,0.147420373661175
574,0.148523987620191
575,0.146209114200481
576,0.146499371018567
577,0.146789627836652
578,0.147079884654737
579,0.147370141472822
580,0.147660398290907
581,0.148973292696003
582,0.147874063669794
583,0.148723823932521
584,0.146406762596203
585,0.145251174854513
586,0.141648056702653
587,0.139508613920838
588,0.137890396334349
589,0.136272178747859
590,0.13465396116137
591,0.13544340806795
592,0.136561755473503
593,0.13684110514513
594,0.138431361624899
595,0.138177225261129
596,0.139147177384305
597,0.140180503681428
598,0.13968458488906
599,0.140134010215587
600,0.141269531211656
601,0.141909972031253
602,0.142616845875033
603,0.141903824575763
604,0.143487904439498
605,0.142596148154296
606,0.142626879514558
607,0.141769350394782
608,0.140064070185023
609,0.140446125420012
610,0.139005281741333
611,0.138005844496936
612,0.136356014918608
613,0.135883544084192
614,0.134393986830807
615,0.136407997142652
616,0.134220508215695
617,0.135589553842208
618,0.135382494530709
619,0.135891181495692
620,0.135344238249237
621,0.136013831372361
622,0.133955247833431
623,0.133308884170768
624,0.132593339743497
625,0.131877795316227
626,0.131162250888956
627,0.131124407528174
628,0.130363692349823
629,0.130023045513278
630,0.130715755356349
631,0.129232564632823
632,0.130123285148347
633,0.130588582190593
634,0.130632446032873
635,0.131420641312565
636,0.129945595769371
637,0.131374887618029
638,0.130300285937215
639,0.130650053301732
640,0.129868803895743
641,0.129713644229637
642,0.128983403124427
643,0.127943781500671
644,0.126904159876915
645,0.125864538253159
646,0.1265313974228
647,0.126153935960211
648,0.123709351609741
649,0.126283305777655
650,0.124621564101658
651,0.126129126008391
652,0.124088286133602
653,0.12211329652935
654,0.120269084519862
655,0.121489823997908
656,0.119737679238939
657,0.120762380836342
658,0.122480643141785
659,0.12512817455482
660,0.126630478791634
661,0.126556325190576
662,0.127713359562495
663,0.127032605330834
664,0.125995780213639
665,0.126445968976343
666,0.126818767530379
667,0.126844828694477
668,0.12706516351335
669,0.124200517962319
670,0.125075532311507
671,0.124894946722697
672,0.123808156814036
673,0.124620650919508
674,0.124487696514267
675,0.124681577340458
676,0.124495782510057
677,0.125296385378616
678,0.124298089470831
679,0.123834907711487
680,0.126850124003822
681,0.124260325264866
682,0.121866551655351
683,0.120262962547472
684,0.11661237548335
685,0.113780393067258
686,0.111767520487435
687,0.109423759997502
688,0.108473317453606
689,0.108939915969552
690,0.110466156505967
691,0.112821833556315
692,0.112813826746695
693,0.114461209945737
694,0.115718938178798
695,0.116271561875695
696,0.118455100777982
697,0.119628438995887
698,0.118343412010159
699,0.119063755108459
700,0.121333707617655
701,0.120913870444544
702,0.123413277159429
703,0.124036839714014
704,0.126481572533328
705,0.126962844770295
706,0.129046778864626
707,0.130944975467803
708,0.132159385627453
709,0.134051377922548
710,0.13338989430721
711,0.133312549204571
712,0.134761600090353
713,0.13063985123269
714,0.128152677496736
715,0.122878503900178
716,0.117713391419334
717,0.114417144903244
718,0.114021949033596
719,0.115299084875665
720,0.117135222639176
721,0.116048439104247
722,0.120794164891855
723,0.120605634676613
724,0.120671335850491
725,0.121972686447161
726,0.121625985678427
727,0.12393969278541
728,0.125977020954598
729,0.129811628822603
730,0.13271984479928
731,0.137238630643326
732,0.141815407119289
733,0.146687236983443
734,0.149765732407313
735,0.151420219536768
736,0.153757746897646
737,0.15533825678643
738,0.156918766675215
739,0.158499276563999
740,0.161211036567401
741,0.162356625902538
742,0.16411451292152
743,0.165872399940502
744,0.167630286959484
745,0.167834635359304
746,0.167913264476409
747,0.170042792063597
748,0.167833313375
749,0.169760724811461
750,0.169813696448734
751,0.168694017006388
752,0.171688981262591
753,0.170257071971421
754,0.16948520057848
755,0.159779996289757
756,0.150074792001033
757,0.140369587712309
758,0.124105631814788
759,0.10968838133028
760,0.0989108650839086
761,0.0974347872278073
762,0.100129903189051
763,0.106744978188395
764,0.116479272490442
765,0.125852791390964
766,0.138639497463533
767,0.149777583668701
768,0.156022059279349
769,0.160265818728023
770,0.164897752201251
771,0.165991835197391
772,0.168062954331484
773,0.169884394138701
774,0.169140951458926
775,0.169239167856864
776,0.169683033651133
777,0.169220472052636
778,0.171761628418571
779,0.168839799461099
780,0.171720840721626
