"wavelength","measurement"
380,0.00609762755070355
381,0.00603703651593962
382,0.00624247409462906
383,0.00606894999472163
384,0.0062876468904247
385,0.0065199024146257
386,0.00713539780371252
387,0.00752673428464318
388,0.00817264430354088
389,0.00824746793301916
390,0.00846173766872505
391,0.00859070819752581
392,0.00870140681796591
393,0.00885597275264538
394,0.0090009786066131
395,0.00964462806119342
396,0.0109096620492185
397,0.0122877351029677
398,0.013665808156717
399,0.0150438812104663
400,0.0158790271472745
401,0.017318037792701
402,0.0180755490983512
403,0.0185532343518194
404,0.0189777696521645
405,0.0192209302658091
406,0.0198055021478273
407,0.0201684317433836
408,0.0206529889896936
409,0.021326567643874
410,0.0226902710427573
411,0.0228703739154718
412,0.0238060882170003
413,0.0245498847327207
414,0.0248235430958214
415,0.0252318330800348
416,0.0253053055117311
417,0.0251663788374796
418,0.0256510204418619
419,0.0254414780045884
420,0.0261196893975212
421,0.0260058862964305
422,0.0263593950237786
423,0.0267014437391703
424,0.0268248124445188
425,0.0263644130506174
426,0.0262314452644053
427,0.0254399349590782
428,0.0247960668568723
429,0.0247628167386506
430,0.0248624364718135
431,0.0256973586961395
432,0.026724587190614
433,0.0277727605939135
434,0.0287973643224339
435,0.0294387164321154
436,0.0299676798442067
437,0.0304752221947601
438,0.0309827645453135
439,0.0314903068958668
440,0.03173199717248
441,0.0323530063309772
442,0.0332391441148608
443,0.0336364501616412
444,0.0342764640726118
445,0.0349164779835825
446,0.0355564918945531
447,0.0362299861057813
448,0.036397383353328
449,0.0379936488212805
450,0.0377483263628809
451,0.0375916918807493
452,0.0375661206300599
453,0.0375405493793704
454,0.037514978128681
455,0.0375159331048197
456,0.0374545851931255
457,0.0379750551581123
458,0.0382053346018901
459,0.0388815272679068
460,0.0388794682387851
461,0.0384849726598877
462,0.0396155813520985
463,0.0386440091132171
464,0.0382281398932688
465,0.0379212814492977
466,0.0375059780323172
467,0.0375667460851167
468,0.0372165251187024
469,0.0369302216323163
470,0.0376627420226375
471,0.0376634942718422
472,0.037893647158743
473,0.038307940006147
474,0.0384724873001088
475,0.0391865497023003
476,0.0384366280064069
477,0.0384296541548276
478,0.0384226803032484
479,0.0384157064516691
480,0.0383260046004032
481,0.03745994408971
482,0.0368342171113189
483,0.0368171173117444
484,0.0357675725267134
485,0.0348756986417497
486,0.0351666537251991
487,0.0355080230952359
488,0.0357223758441412
489,0.0367041921144113
490,0.0370535404298919
491,0.0372795478477104
492,0.0381402031956958
493,0.0377716324542319
494,0.038454190311342
495,0.0379853179176826
496,0.0380428255858233
497,0.0374990843844475
498,0.0377268994212133
499,0.0369215390459044
500,0.0371818732653188
501,0.036806942755673
502,0.037500311957929
503,0.0376688120627877
504,0.0373000630292974
505,0.0385265773378546
506,0.0383898617755971
507,0.038595268742376
508,0.0387648304720556
509,0.0388505553599464
510,0.0381996554985477
511,0.0387312112229389
512,0.0384515066916531
513,0.0374291906917862
514,0.0372175437511073
515,0.0365801412375918
516,0.0363849450927691
517,0.036214969359827
518,0.0361683634913438
519,0.0369148323368079
520,0.0374390538707665
521,0.0379256798659384
522,0.0384123058611104
523,0.0388989318562823
524,0.0387148498197219
525,0.0389012096213
526,0.0389825052087337
527,0.0387731466486829
528,0.038974086989554
529,0.0395767756996065
530,0.0395198505707465
531,0.0396359352729845
532,0.0394189647981343
533,0.0397153940216434
534,0.0398839624539219
535,0.0393885990603049
536,0.0398073302103439
537,0.0395179800441071
538,0.0391495050107712
539,0.0388551490846753
540,0.0389636446156351
541,0.0387392471378622
542,0.0383940318664368
543,0.0385670265363217
544,0.0388612268043532
545,0.0385419946246832
546,0.0387565377286154
547,0.0386682960171681
548,0.0385800543057209
549,0.0384918125942736
550,0.0382196348273682
551,0.0385322594938708
552,0.0386348809508322
553,0.0383582303303548
554,0.0381857621295904
555,0.0384328762826368
556,0.0378510324297489
557,0.0377048884380702
558,0.0374791027156717
559,0.0371175431802989
560,0.0374692217531002
561,0.0367972733228094
562,0.0374692853805909
563,0.0368066095512218
564,0.0369872476933863
565,0.0364405017787271
566,0.0362009688574327
567,0.0356979169988885
568,0.0358629140422154
569,0.0353368464514094
570,0.0354629299128187
571,0.0354784714624897
572,0.0353225211048187
573,0.0352519903708515
574,0.0354563690251297
575,0.0348692865731153
576,0.0348734117520921
577,0.0348775369310689
578,0.0348816621100456
579,0.0348857872890224
580,0.0348899124679992
581,0.0352987336147582
582,0.0350114849951733
583,0.0350677528062875
584,0.0343860739771101
585,0.034324565125842
586,0.033298643026982
587,0.0327005707279579
588,0.0323026522479271
589,0.0319047337678963
590,0.0315068152878655
591,0.031603399055836
592,0.0317813687536291
593,0.0317358618669166
594,0.0320836933795079
595,0.0319470773963384
596,0.0321122916806679
597,0.0321595133899188
598,0.031971009125214
599,0.0320343923324146
600,0.0322163995703187
601,0.0322414195709898
602,0.0323671952627636
603,0.0320418595401302
604,0.0323058091890365
605,0.0320008632092987
606,0.0320501670498003
607,0.0316856278318337
608,0.0312607626220903
609,0.0311179202926652
610,0.0307649556192224
611,0.0305072871001024
612,0.0302160302414598
613,0.0299790472813996
614,0.0295391761329448
615,0.02983585182343
616,0.0293148168810593
617,0.0295154939318355
618,0.0293745679942572
619,0.0294020711478655
620,0.0292561201810266
621,0.0293721936605587
622,0.0287322170095227
623,0.0285429923656409
624,0.0283219289912792
625,0.0281008656169176
626,0.0278798022425559
627,0.0277809939781965
628,0.027589445066779
629,0.0274187750094924
630,0.0275705183933467
631,0.0270831014680575
632,0.0271240766424374
633,0.0271656331083567
634,0.0271685219606248
635,0.0271225547414218
636,0.0267421522838353
637,0.0270259597764404
638,0.0266393410893399
639,0.0266673426389983
640,0.0264390233473454
641,0.0262544137625799
642,0.0260232023962729
643,0.0257282385569065
644,0.0254332747175401
645,0.0251383108781738
646,0.0251717776530773
647,0.025023664211434
648,0.0244034799524729
649,0.0247841904651454
650,0.0243489733579315
651,0.0245153223215108
652,0.0240771849718788
653,0.0236104729952387
654,0.0231166742022812
655,0.0231717301626839
656,0.0228446275766468
657,0.0229798377905624
658,0.0231361147674464
659,0.0235540188621195
660,0.0236235412212575
661,0.0236192290032019
662,0.02352446114993
663,0.0234256789775892
664,0.0231657056012788
665,0.02309594153054
666,0.0231536991988665
667,0.0229447231954333
668,0.0228769167717497
669,0.0223476042885508
670,0.0224428749596813
671,0.022254813036217
672,0.0220559495942784
673,0.0220956416955409
674,0.0220067018167803
675,0.021892773833247
676,0.0217747575186542
677,0.0217516102961728
678,0.0214513288311794
679,0.021437419900752
680,0.0217857043913877
681,0.0213293148358449
682,0.0208465836515771
683,0.0203730947304433
684,0.0197933196238077
685,0.0192099098627823
686,0.0188617010877358
687,0.01847309874839
688,0.0183482670828256
689,0.0183739143464903
690,0.018631504046635
691,0.0191370052261527
692,0.0190241338839341
693,0.0192641553633047
694,0.0194690837067349
695,0.0198173031305069
696,0.0200495982190807
697,0.0201929469340638
698,0.0200059567699327
699,0.0200826712987667
700,0.0204589034690359
701,0.0203566670502396
702,0.0207373730145888
703,0.0209159235371625
704,0.02120259745464
705,0.0212706491645715
706,0.0216780689994553
707,0.021815819942152
708,0.0219024307368522
709,0.022269735545447
710,0.0221284731397155
711,0.0220692398915839
712,0.0222994541636498
713,0.0214025588590925
714,0.0211371963638172
715,0.0201013066344435
716,0.0193488205948661
717,0.0187391529084723
718,0.0184683277610094
719,0.0186585573892363
720,0.0187800737035297
721,0.0187251942062127
722,0.0192391552914134
723,0.0191808784358395
724,0.0191754992587016
725,0.0192150973899712
726,0.0191506050095363
727,0.0193557493024799
728,0.0196130735498645
729,0.0199638529344928
730,0.0204012815499173
731,0.0209070479171988
732,0.0215593931475076
733,0.0219701734100206
734,0.022339127446955
735,0.022427869701866
736,0.0225773871871359
737,0.0226971729400848
738,0.0228169586930336
739,0.0229367444459825
740,0.0231795945154937
741,0.0233398081108933
742,0.0233850248575939
743,0.0234302416042946
744,0.0234754583509952
745,0.0233530762981107
746,0.0233476134432159
747,0.0232499718796265
748,0.0230857632853839
749,0.0231143358955158
750,0.0229573934956127
751,0.0227734310329192
752,0.0231692969558005
753,0.0227065490839658
754,0.0224434325374749
755,0.0210591895181969
756,0.019674946498919
757,0.0182907034796411
758,0.0162396688210202
759,0.0143572608333915
760,0.0129634323859205
761,0.0125899291037962
762,0.0130181597735615
763,0.0137127331109824
764,0.0149890553773758
765,0.0160667068583426
766,0.0173616867982133
767,0.0186787909438734
768,0.0194036109249399
769,0.0197131502521795
770,0.0202169714883826
771,0.0203734557088293
772,0.0204380937838597
773,0.0206861777560054
774,0.0204600940254759
775,0.0202890423574052
776,0.020370124766362
777,0.0201157621456125
778,0.0203356344356486
779,0.0199273852406929
780,0.0202110383579821
