"wavelength","measurement"
380,0.00393053260387728
381,0.00407580865590419
382,0.00410630267578104
383,0.0041840619245194
384,0.00409067517982217
385,0.00436614905465069
386,0.0047261402836933
387,0.00493444732305584
388,0.00545387737389558
389,0.0056493524858523
390,0.00561222926031251
391,0.00565738411491843
392,0.00577697913127416
393,0.00592664117325092
394,0.00632681752532447
395,0.00685189609665736
396,0.00751946992554105
397,0.008535292397097
398,0.00955111486865295
399,0.0105669373402089
400,0.0114046281745866
401,0.0121826195147591
402,0.0128659381947534
403,0.0130140896725576
404,0.0136046464826484
405,0.0140064504712117
406,0.0143789128046723
407,0.0148361857318444
408,0.0153356634470796
409,0.0159990548708901
410,0.0169748322163388
411,0.0173603891175672
412,0.0180998110056815
413,0.0186321772029505
414,0.0190024638445106
415,0.0193992862567544
416,0.0194496834409258
417,0.0193886742289084
418,0.0199534670191018
419,0.0196176079384712
420,0.0202730503670362
421,0.0203130048716354
422,0.0206520245152907
423,0.0207860582776532
424,0.0209582572621705
425,0.020629401640296
426,0.0204530055351177
427,0.0200379772238892
428,0.019440437515327
429,0.0195678597921912
430,0.0195385977175917
431,0.020316687361321
432,0.0210360961728811
433,0.0219007731215445
434,0.0228947956384515
435,0.0232186149036733
436,0.0237613903174649
437,0.0241715279372163
438,0.0245816655569678
439,0.0249918031767193
440,0.0251506755602091
441,0.0259286988566506
442,0.0265669135172526
443,0.0269710194382944
444,0.0275451174649822
445,0.0281192154916699
446,0.0286933135183577
447,0.0292117836723178
448,0.02932345102349
449,0.0305607150182352
450,0.0304286714881507
451,0.0303697247425147
452,0.0302777999109235
453,0.0301858750793323
454,0.0300939502477411
455,0.0303095532011814
456,0.030103360697862
457,0.0305049047893461
458,0.0307410581471583
459,0.0310993963694215
460,0.0311104414754097
461,0.0310123827109332
462,0.0318233822378611
463,0.0310427954114079
464,0.0307110160476986
465,0.0304859788536858
466,0.0300716036046753
467,0.0301916767912414
468,0.02984764355083
469,0.0297646455067219
470,0.0303815516179102
471,0.030363836774577
472,0.0304028074687241
473,0.0308052279162543
474,0.0310664637356901
475,0.0314592760504301
476,0.0307894969228284
477,0.030848131366121
478,0.0309067658094137
479,0.0309654002527063
480,0.0309661183910216
481,0.0301314400662085
482,0.0297795461847623
483,0.0295602337751898
484,0.028914477686239
485,0.0281550510932558
486,0.0284284571699801
487,0.0286432558567157
488,0.0289234860456
489,0.0297235237048585
490,0.0298733618888089
491,0.0302046214167018
492,0.0308867535725111
493,0.0306540617417585
494,0.0311241227541402
495,0.0308424612970227
496,0.0307999897156284
497,0.0303561850617552
498,0.0305692349808559
499,0.0300268749432346
500,0.0301485444232278
501,0.0298860987116619
502,0.0304565774998241
503,0.030674536404384
504,0.0303784849060967
505,0.0313552829938264
506,0.0311678856978655
507,0.0314430426214554
508,0.0316319783657587
509,0.0316866254365786
510,0.0312062320150043
511,0.031593378154118
512,0.03153616808233
513,0.0304434533283302
514,0.0303568417307266
515,0.0298636341854134
516,0.0296072989952446
517,0.0295054545315084
518,0.0294884753716141
519,0.030105722516507
520,0.0306712837395034
521,0.0310259536418931
522,0.0313806235442829
523,0.0317352934466726
524,0.0314958188410038
525,0.031577710037926
526,0.0316666302160528
527,0.0314648300132783
528,0.0317774385824852
529,0.0320770666562284
530,0.0320649046910625
531,0.0321659068695755
532,0.031985082077774
533,0.0322892695515626
534,0.032295497832836
535,0.0320734519979134
536,0.0322463332650733
537,0.0320009818100551
538,0.0317869899444218
539,0.0315730039319882
540,0.031639727307028
541,0.031459534014985
542,0.0312511980353634
543,0.0313589180665672
544,0.0314769009296087
545,0.0313512804096705
546,0.0313970065168724
547,0.0313698845585068
548,0.0313427626001413
549,0.0313156406417758
550,0.0309997445830945
551,0.0312248942517183
552,0.0314464210943353
553,0.0310923917704129
554,0.0310731516175883
555,0.0312343457826053
556,0.030853805081148
557,0.030704273369097
558,0.0305163156809059
559,0.0301998426838158
560,0.0304899685646388
561,0.0298905168382113
562,0.0304401107247336
563,0.0299636339392358
564,0.0300921153711071
565,0.029653658715612
566,0.029578875929792
567,0.0290753381931342
568,0.0292651843980813
569,0.0289665705208274
570,0.0288842482703358
571,0.0289034833108602
572,0.0289278804154809
573,0.0288270478481185
574,0.0290153949784516
575,0.028529938204637
576,0.0285819309274776
577,0.0286339236503182
578,0.0286859163731588
579,0.0287379090959995
580,0.0287899018188401
581,0.0290270210696648
582,0.0287318319871223
583,0.0289368576470656
584,0.0283687108137642
585,0.0283215748584177
586,0.0274662702447039
587,0.0270546456475841
588,0.0267711618893588
589,0.0264876781311335
590,0.0262041943729083
591,0.0262971405356399
592,0.0265046310970062
593,0.0264674966094981
594,0.0267323546534933
595,0.0266417278398494
596,0.0268157633462592
597,0.0267780744684767
598,0.0267680126860798
599,0.0266919823169977
600,0.0268510034824229
601,0.0268553085696917
602,0.027001819934286
603,0.0268345868754746
604,0.0270527503701594
605,0.0267500777924397
606,0.0266894424508223
607,0.026517225003641
608,0.0261609228594941
609,0.0261336440391413
610,0.0258494387876366
611,0.0256156075187867
612,0.0253901256417246
613,0.0251431576735908
614,0.0248215228886794
615,0.0250531718804083
616,0.0246857922162896
617,0.0248787034384976
618,0.0246836144946048
619,0.0247053427011272
620,0.0245977328911081
621,0.024680723031411
622,0.0241437221716268
623,0.0241083547612854
624,0.0239266338051395
625,0.0237449128489936
626,0.0235631918928477
627,0.0233864176102099
628,0.0233015263383353
629,0.0231089366847965
630,0.0233153252904329
631,0.022845159137723
632,0.0229163117543292
633,0.0229302295425382
634,0.0229196279003564
635,0.0229317922894824
636,0.0226742645566821
637,0.0228076356522262
638,0.0225914949699461
639,0.0225797852987614
640,0.0223548904108669
641,0.0222455454111701
642,0.0219921498782654
643,0.0218114836599504
644,0.0216308174416353
645,0.0214501512233203
646,0.0214776664462095
647,0.0212401139702103
648,0.0208620739070535
649,0.0210609278723098
650,0.0207567340810157
651,0.0209077748550892
652,0.0205645350925346
653,0.0201323896817567
654,0.019643980096577
655,0.0197979987843066
656,0.0194236467539143
657,0.0196464949959924
658,0.0198011209951037
659,0.0201690910223237
660,0.0202397699036922
661,0.020206341650072
662,0.0201650250611662
663,0.019983091648167
664,0.0197852868418552
665,0.0197313248579626
666,0.0197048175929517
667,0.0196406852405845
668,0.0197396819265223
669,0.0192176848019999
670,0.0192240131312087
671,0.0190811165049247
672,0.0189462453767536
673,0.0189562826061045
674,0.0188789816388667
675,0.0188594374605354
676,0.0187604902979248
677,0.0187053668715102
678,0.0184511476025087
679,0.0184527708373047
680,0.0187043668617329
681,0.0183436303697392
682,0.0178863086365133
683,0.0175706134850838
684,0.0169374881907658
685,0.0165443627878517
686,0.0162045746664857
687,0.0157953241192488
688,0.0156636146137516
689,0.015782109790663
690,0.0159078088009226
691,0.0163058076424792
692,0.0162780855669361
693,0.0164318639745714
694,0.016579035265369
695,0.0167126136624016
696,0.0169029813490502
697,0.0170499668867465
698,0.0167697660524358
699,0.0169055083673292
700,0.0172157701400235
701,0.0169848918989402
702,0.0172048945839838
703,0.017356508563483
704,0.017657249493053
705,0.0175945516259671
706,0.0177851350497593
707,0.0180829246459401
708,0.0180109449541241
709,0.0181553999489976
710,0.018104669492934
711,0.0180067339608032
712,0.0180746619126447
713,0.0173725604088053
714,0.0171421776018931
715,0.0162950009378798
716,0.015667264835398
717,0.0151694453729282
718,0.0149335749544679
719,0.0149965463697838
720,0.0151073963382577
721,0.0149174625190306
722,0.0152929697333077
723,0.0153803734897102
724,0.0151897702844373
725,0.0153184956708209
726,0.015137169470405
727,0.0154224534862273
728,0.0154587561314981
729,0.0158154443119253
730,0.0160894706053502
731,0.0164311266970638
732,0.0168974582651801
733,0.0173202851409217
734,0.0175820352849816
735,0.0175523488787328
736,0.0177455942886782
737,0.017804090896868
738,0.0178625875050579
739,0.0179210841132477
740,0.0180570976041836
741,0.0180763459481271
742,0.0181054978664289
743,0.0181346497847307
744,0.0181638017030325
745,0.0182646341964358
746,0.0180559376346258
747,0.0182569010135696
748,0.0179650400577532
749,0.0178942792166569
750,0.0178750890176874
751,0.0175799570253711
752,0.0178915419742095
753,0.0174830982295055
754,0.0174058388624352
755,0.0163507603326736
756,0.0152956818029121
757,0.0142406032731505
758,0.0126668714732446
759,0.0110637680695508
760,0.0099814804339843
761,0.00983257130749563
762,0.00999168250786067
763,0.0107782159894855
764,0.0114847624304225
765,0.0123686215320376
766,0.0135464178128478
767,0.0143467424413827
768,0.0149897184174127
769,0.0153009675441978
770,0.0156724369828473
771,0.015676005657268
772,0.0158564211267414
773,0.0159739348569192
774,0.0157904100805125
775,0.0158062445705182
776,0.015673713260299
777,0.0154746991704163
778,0.0155287717025811
779,0.0153790692475404
780,0.0156081903210739
