"wavelength","measurement"
380,0.0274606827575439
381,0.0263446285626843
382,0.0269562563786743
383,0.0265686079043201
384,0.0268284799577437
385,0.0280762327775306
386,0.0300155692542006
387,0.0312757551950997
388,0.0341834870283757
389,0.0347944321027097
390,0.0355895808623592
391,0.0356664111957302
392,0.0364921067616181
393,0.0381742135092637
394,0.0386132790428594
395,0.0431236084786146
396,0.0475229175934712
397,0.0545536007093637
398,0.0615842838252562
399,0.0686149669411487
400,0.072868773538438
401,0.0783961140551352
402,0.0829000071252485
403,0.085278432136023
404,0.0880381870287991
405,0.0891699088360974
406,0.0932253838257801
407,0.0950596725934439
408,0.0978658959458693
409,0.101332426992555
410,0.10727268451414
411,0.10928721728812
412,0.113110217846474
413,0.117405208762026
414,0.118336951154724
415,0.12126893639606
416,0.121654422186988
417,0.121260664593127
418,0.123061511286076
419,0.121695948170934
420,0.125232582039959
421,0.125235977804967
422,0.126575845681136
423,0.127411560292248
424,0.129116810330225
425,0.126485897682849
426,0.12530994023495
427,0.121964905726162
428,0.118812240526735
429,0.118381202352737
430,0.118442187795094
431,0.123156134746214
432,0.127226352813532
433,0.131334656810453
434,0.136299067403689
435,0.140154027173493
436,0.140999298611022
437,0.143358179218976
438,0.145717059826931
439,0.148075940434885
440,0.148886975998954
441,0.151395561836317
442,0.15526579820982
443,0.156370279725072
444,0.158474078264393
445,0.160577876803713
446,0.162681675343033
447,0.165032945694331
448,0.165318918860472
449,0.171422293966665
450,0.170064407397531
451,0.168937324620281
452,0.168199900647327
453,0.167462476674373
454,0.166725052701418
455,0.16762088338279
456,0.166530604786688
457,0.168641832260782
458,0.169515942465284
459,0.171996855184407
460,0.17190815889025
461,0.170383278388821
462,0.175309879461161
463,0.170760474654555
464,0.168949693447522
465,0.168260200411062
466,0.166136459202389
467,0.166205757523322
468,0.165045152162728
469,0.163647138601511
470,0.167567621742306
471,0.16839493310729
472,0.169357882304728
473,0.171934825265583
474,0.172372540457642
475,0.176113645884843
476,0.17247650038531
477,0.173026693977909
478,0.173576887570508
479,0.174127081163108
480,0.174212325635509
481,0.169672375319052
482,0.1672546704174
483,0.16653490829459
484,0.16238772310761
485,0.158641629860603
486,0.159687320653758
487,0.161241738058526
488,0.162355324082728
489,0.166169281739023
490,0.168007865838299
491,0.169228167481241
492,0.172995107117292
493,0.170952249893888
494,0.174051731195779
495,0.17166393477898
496,0.172523157882002
497,0.169710937275828
498,0.16972584117085
499,0.166460299587969
500,0.167457803419767
501,0.166261879750134
502,0.168903124582764
503,0.169744543395916
504,0.168132712300203
505,0.172571758182279
506,0.172250492057226
507,0.172947562863301
508,0.17350743746216
509,0.173699084159442
510,0.170609646898077
511,0.172791910082611
512,0.171599616667354
513,0.166470425892218
514,0.165257454533373
515,0.162184677385003
516,0.160814239880221
517,0.160382450970861
518,0.159705559530901
519,0.163108282402945
520,0.165839973122194
521,0.167679549193113
522,0.169519125264031
523,0.17135870133495
524,0.170333349318816
525,0.170697415846312
526,0.171360867755934
527,0.170563765330446
528,0.171270040875888
529,0.173498078711695
530,0.173431149669527
531,0.173768178692279
532,0.173318634877221
533,0.174826879978423
534,0.175009244657112
535,0.172876274462727
536,0.174847294176807
537,0.17381185866684
538,0.172286679336056
539,0.171380991485121
540,0.172292805231276
541,0.170844596433101
542,0.170111208893645
543,0.171156403513224
544,0.172126185321286
545,0.171256505488756
546,0.172149185171904
547,0.172010896233592
548,0.17187260729528
549,0.171734318356969
550,0.171090564949738
551,0.171819148079361
552,0.173242621548165
553,0.171415403507081
554,0.170825516644369
555,0.172783533885762
556,0.170272263355906
557,0.169822816776288
558,0.168130796922103
559,0.167200393469189
560,0.168746887179525
561,0.166205212342556
562,0.168745613316757
563,0.166567420114585
564,0.166843781429228
565,0.164818039068138
566,0.164140830918844
567,0.162403028683121
568,0.163595292963862
569,0.16169935288946
570,0.161847705278722
571,0.162197312517964
572,0.162176687774732
573,0.161990034198459
574,0.163446597180122
575,0.161377526059154
576,0.161908215000258
577,0.162438903941362
578,0.162969592882467
579,0.163500281823571
580,0.164030970764675
581,0.165989809434218
582,0.16524841286263
583,0.166251846865216
584,0.163837726058085
585,0.163549760666359
586,0.159598491016125
587,0.15780568804005
588,0.156361198748076
589,0.154916709456102
590,0.153472220164128
591,0.154451983187412
592,0.15617376556702
593,0.156543696337596
594,0.159014141322441
595,0.158959315081447
596,0.159975167314634
597,0.160916367775774
598,0.160880625378232
599,0.160855191994176
600,0.162227623516413
601,0.163154611041652
602,0.16416575275254
603,0.163707538077198
604,0.165509828394754
605,0.16437061268586
606,0.164920275670789
607,0.163914119290508
608,0.162187519849247
609,0.162412690608414
610,0.16114273732869
611,0.160219096887413
612,0.159065385221771
613,0.158602011897136
614,0.157005229129502
615,0.158899208692559
616,0.157076922115312
617,0.15827258819336
618,0.158222788850727
619,0.159016497812568
620,0.158627658586636
621,0.159447048134885
622,0.156666526665916
623,0.156704195338889
624,0.156028090958609
625,0.155351986578329
626,0.154675882198049
627,0.154741890379375
628,0.154493498008971
629,0.15414492899838
630,0.155178751518282
631,0.153204215226359
632,0.153879807557399
633,0.155373198682357
634,0.155294859277872
635,0.156114000815115
636,0.154413684234704
637,0.156194057340382
638,0.15528086505738
639,0.155529333675733
640,0.155032251171604
641,0.154061112092042
642,0.153295825072223
643,0.152468631468358
644,0.151641437864494
645,0.150814244260629
646,0.151497724837984
647,0.15145135208339
648,0.148631283835141
649,0.150663884025319
650,0.149410614416736
651,0.151079637516322
652,0.148990624697272
653,0.146839130643446
654,0.144087815353865
655,0.145750270651115
656,0.144008758077553
657,0.145697024597091
658,0.146999122353357
659,0.150885633731255
660,0.152318457417134
661,0.152902579052205
662,0.153686975119729
663,0.153144183606306
664,0.152355616095713
665,0.152702135708995
666,0.152751303854083
667,0.153176079885972
668,0.153872701824768
669,0.150694209560152
670,0.15161301618382
671,0.151220935359359
672,0.150840550207854
673,0.151043096042815
674,0.151339857864869
675,0.151200874183417
676,0.151627318865205
677,0.152450087825837
678,0.15095091771177
679,0.150594124938411
680,0.154461811360775
681,0.151468954741365
682,0.149151690371014
683,0.146720184230275
684,0.142569164949037
685,0.139362212257977
686,0.137049923906336
687,0.134756935545585
688,0.134015073455121
689,0.134399925421429
690,0.137136383832374
691,0.140370550368036
692,0.141166444761295
693,0.142960250335866
694,0.145357785829218
695,0.145867818529726
696,0.148791730961577
697,0.150529866753798
698,0.149760647986146
699,0.150964289834814
700,0.154458149275014
701,0.153913914099376
702,0.157008724565732
703,0.15853936980304
704,0.161614911504637
705,0.162865735558864
706,0.1659894436537
707,0.168484434244471
708,0.169571556644154
709,0.172358022582575
710,0.172428795028687
711,0.172958911942719
712,0.174670223062746
713,0.169073850790037
714,0.167098946100949
715,0.160039006727662
716,0.154680235437361
717,0.150377671099945
718,0.149315814855275
719,0.151658820816861
720,0.154051876904347
721,0.153676321342107
722,0.158803134476127
723,0.158893460572308
724,0.159791035896299
725,0.161170628902101
726,0.161073207158218
727,0.164782431092724
728,0.16688382097226
729,0.171976568249084
730,0.175652192852112
731,0.181343633745344
732,0.186982723409873
733,0.192870029708633
734,0.197257629597164
735,0.199387983965189
736,0.203211649213901
737,0.205117910428148
738,0.207024171642395
739,0.208930432856642
740,0.212483386984071
741,0.214998558162475
742,0.217037623038216
743,0.219076687913957
744,0.221115752789698
745,0.222773429326475
746,0.223018782381491
747,0.224845880654221
748,0.223088077172865
749,0.224997125640413
750,0.225910860891905
751,0.22455405828338
752,0.227710447227544
753,0.227907495508492
754,0.225057105172667
755,0.212364905890944
756,0.19967270660922
757,0.186980507327497
758,0.165679749040074
759,0.146796996052771
760,0.134151002717906
761,0.131703221224197
762,0.136107249574506
763,0.145637544691969
764,0.158964371128035
765,0.171536749565939
766,0.18694220687342
767,0.202290527355016
768,0.210098599597645
769,0.215931227743799
770,0.222237601177
771,0.223389331202783
772,0.227002927893582
773,0.229068159164785
774,0.22804586206962
775,0.228562094535976
776,0.229557655488381
777,0.226883053093396
778,0.230615762434301
779,0.227987728800546
780,0.231435120502503
