"wavelength","measurement"
380,0.00553440393651495
381,0.00556490720069928
382,0.00555134218691801
383,0.00551774594273579
384,0.00567127260431614
385,0.00623758492174096
386,0.00635827240580203
387,0.00683375880527035
388,0.00723248690627042
389,0.0076924986933512
390,0.00775678867459988
391,0.00768596329971764
392,0.00790218271489444
393,0.00817758835728674
394,0.00827993009057643
395,0.00883133792637945
396,0.0100006264019313
397,0.0112652872812071
398,0.0125299481604829
399,0.0137946090397587
400,0.0147151864224322
401,0.0158269417671087
402,0.0166263392714853
403,0.0169705336469671
404,0.0172498051016245
405,0.0178379481249412
406,0.0182408286579027
407,0.0187265576222574
408,0.0191749883490114
409,0.0196743802544027
410,0.0208577957761392
411,0.0213687605026727
412,0.0220804992150054
413,0.0228210618989888
414,0.0229714915605646
415,0.0236030906659858
416,0.0234971824449627
417,0.0234131982350854
418,0.024221897962143
419,0.0234698173319028
420,0.0244168516369702
421,0.024323056712882
422,0.0247316640050829
423,0.0248454904871176
424,0.0250369032900787
425,0.0247458546616175
426,0.0245545731800179
427,0.0239480516030668
428,0.0231508173231441
429,0.023092409224956
430,0.0233364072184446
431,0.0241566130853017
432,0.0249934696876513
433,0.0259104992911798
434,0.0270427976379421
435,0.0276540253255644
436,0.0280225332915892
437,0.0285135570637239
438,0.0290045808358587
439,0.0294956046079934
440,0.0297569476810987
441,0.03040508403501
442,0.0313675792017158
443,0.0315281346105542
444,0.0321698244108065
445,0.0328115142110587
446,0.033453204011311
447,0.0340102811589299
448,0.0341749447864206
449,0.0355707520783394
450,0.0356274542803358
451,0.0353664703301612
452,0.0353219954383703
453,0.0352775205465794
454,0.0352330456547886
455,0.0350955277504186
456,0.0352799317503208
457,0.0355169921911679
458,0.0356984981085118
459,0.036342438791559
460,0.036332873109414
461,0.0360349569351108
462,0.0371428137432857
463,0.035993565700501
464,0.035771582820206
465,0.0355327396221207
466,0.0351938132725046
467,0.0350516843894781
468,0.0348603905399878
469,0.03455219188718
470,0.0352114152943408
471,0.0352298517906553
472,0.0354595149348509
473,0.0359207992771896
474,0.0360687358297162
475,0.0365297423184939
476,0.0358122252079668
477,0.0358722858248526
478,0.0359323464417383
479,0.0359924070586241
480,0.0357657209430713
481,0.0350192561305853
482,0.0345457475020284
483,0.0341837939634313
484,0.0333484389260075
485,0.0325885722013376
486,0.0329787619639357
487,0.0330407891327384
488,0.033409209090736
489,0.0342113226125613
490,0.034513558654982
491,0.0348504308330248
492,0.0356226518220002
493,0.0352622845685057
494,0.0358840738909708
495,0.0354218186465821
496,0.0355919825198869
497,0.0350195085653359
498,0.0351678814224482
499,0.0344463181677671
500,0.034652903509413
501,0.0344016258938648
502,0.0349732180643072
503,0.0351406018428796
504,0.0348129750992622
505,0.0360205260979016
506,0.0358513446326286
507,0.0359948934820355
508,0.0361783212879484
509,0.0361918818372487
510,0.0356410717445997
511,0.036241293573647
512,0.035946782777198
513,0.0348676642926626
514,0.0347568271981617
515,0.0341797855874833
516,0.0339598652081111
517,0.033756666037596
518,0.0337458766011152
519,0.0343665922151982
520,0.0349795684992142
521,0.0354285605433241
522,0.0358775525874341
523,0.036326544631544
524,0.0361217445982198
525,0.036179172879292
526,0.036391175332352
527,0.0361627372950701
528,0.0363982125664622
529,0.0368380839193969
530,0.036840033305886
531,0.0368848089947597
532,0.0367757042494194
533,0.0370989150374775
534,0.0370900500833481
535,0.0367389318337199
536,0.0369754754874402
537,0.0367635850939369
538,0.0364316088062237
539,0.0361349396140335
540,0.0363578086852509
541,0.0360334735880099
542,0.0357717337909045
543,0.035965090293094
544,0.0361389970232381
545,0.0358259484996378
546,0.0361189316931037
547,0.0360333223890378
548,0.0359477130849719
549,0.0358621037809059
550,0.0355239591070688
551,0.0356883276013065
552,0.036110651203228
553,0.035616385461883
554,0.0354594359931489
555,0.0357524962889309
556,0.0352913829343739
557,0.0351355681814903
558,0.0348701046529247
559,0.034501732288207
560,0.0349584586184818
561,0.0342431954445664
562,0.0347756401142249
563,0.0343154439635987
564,0.0343572842116988
565,0.0338443214159583
566,0.0336815038584195
567,0.0332340054055916
568,0.0335080195923879
569,0.0329289313303092
570,0.0328918630898445
571,0.0329650937044534
572,0.0328220247777281
573,0.0328066686681385
574,0.0329919548130348
575,0.0324274254550659
576,0.0324382632003797
577,0.0324491009456934
578,0.0324599386910071
579,0.0324707764363209
580,0.0324816141816346
581,0.0328583845553085
582,0.0325358454583393
583,0.0326953819052939
584,0.032087533726913
585,0.0319178482452737
586,0.0309373151533981
587,0.0305141135764333
588,0.0301362083847394
589,0.0297583031930454
590,0.0293803980013515
591,0.0294113342024899
592,0.0295816595769547
593,0.0296178434818576
594,0.0299651729282817
595,0.0297192596371809
596,0.0298547965632848
597,0.0299683181448359
598,0.0298241272300018
599,0.0298316236339334
600,0.0299144519736433
601,0.0299955786332574
602,0.0300769507602327
603,0.0298209728152936
604,0.0300402882402949
605,0.0297568814490353
606,0.0297401373627524
607,0.0295242470431645
608,0.0290711535164662
609,0.0290073339412108
610,0.0286505563642431
611,0.0284411186587216
612,0.0280502214443859
613,0.0279327082229338
614,0.0274924209289281
615,0.0276703365260585
616,0.0272417302218163
617,0.0274732003951796
618,0.0273124948462409
619,0.0273416089733907
620,0.0272393750447005
621,0.0272837857944929
622,0.0267364065214937
623,0.02669715748288
624,0.0264084755327993
625,0.0261197935827186
626,0.025831111632638
627,0.0258209950275288
628,0.0257325680601952
629,0.0255375831708747
630,0.0256604600192231
631,0.0252391457743449
632,0.0251996134798835
633,0.0253173185602429
634,0.025202614543836
635,0.0252650921531248
636,0.0249246182584135
637,0.0250922023829802
638,0.0246876719520852
639,0.0248778775658049
640,0.0245544040017543
641,0.0243850689485895
642,0.0241641605330873
643,0.0239198638300115
644,0.0236755671269357
645,0.0234312704238599
646,0.0235064116498591
647,0.0231921709664536
648,0.0227645350459371
649,0.022963168134936
650,0.0226741698153651
651,0.0227995285304897
652,0.0223943024161943
653,0.0219520853253177
654,0.0214786986077401
655,0.0215594638540245
656,0.0212428732345807
657,0.0213228425322267
658,0.0214744162246149
659,0.0219553359709183
660,0.0220535409386758
661,0.0218875208726099
662,0.021981954989528
663,0.0217446650883176
664,0.0215391489932894
665,0.0215469710965409
666,0.0215020153449591
667,0.0213161962881848
668,0.021317304965267
669,0.0207998127411595
670,0.0209341292008757
671,0.0206765938103406
672,0.0205586478178347
673,0.0205223604744667
674,0.0204271608891334
675,0.0203735837741061
676,0.0202057400763554
677,0.020255087328568
678,0.0199579544285763
679,0.0199126255522532
680,0.0203512666393008
681,0.0198462587899624
682,0.0193308845105484
683,0.0190530147022336
684,0.0184067342698155
685,0.0178951666964334
686,0.0175412977024725
687,0.0172405205539045
688,0.0170782308336896
689,0.0170731972879417
690,0.0174296287529191
691,0.0176793573733075
692,0.0176653347862708
693,0.0179639114909907
694,0.0181762688916964
695,0.0182624483581594
696,0.0185499803073942
697,0.0187147777043297
698,0.0184838464262174
699,0.018621177831189
700,0.0189827588445032
701,0.0188705916928491
702,0.0191852867357904
703,0.0192527643726958
704,0.0197201752544569
705,0.0196045797836377
706,0.0200023586515188
707,0.0202695579071813
708,0.0202943655066846
709,0.0205609316357335
710,0.0204048515075952
711,0.0203724160484316
712,0.020567901299917
713,0.0198145346396228
714,0.019540816199166
715,0.0185920603094718
716,0.0178436974365437
717,0.0172549226614134
718,0.0171073325268874
719,0.0171387659134982
720,0.0173899298189474
721,0.0171662543625284
722,0.0178065375428318
723,0.0176265315523324
724,0.0176142381084713
725,0.0175916522465803
726,0.0174948262394525
727,0.0178170672034908
728,0.0179032586862928
729,0.0183248310276257
730,0.0187274618481773
731,0.0191962147873353
732,0.0197518920233345
733,0.0202297869260083
734,0.0205556689338542
735,0.0206052807686067
736,0.0208695304450114
737,0.0209722270096165
738,0.0210749235742216
739,0.0211776201388266
740,0.0212926730954338
741,0.0213652894654783
742,0.0214321249738187
743,0.0214989604821591
744,0.0215657959904996
745,0.0215899845427481
746,0.0214809170217582
747,0.0214484865006134
748,0.0212767775012621
749,0.0212725002680958
750,0.0211925504551422
751,0.0209614785564753
752,0.0210865491136663
753,0.0208895596533252
754,0.0205599147932652
755,0.0193124590341476
756,0.01806500327503
757,0.0168175475159125
758,0.0149538380814108
759,0.0131632723534208
760,0.0118426346257549
761,0.0116332023806986
762,0.011942551510362
763,0.0127562086243315
764,0.0135904756091018
765,0.0148555029483503
766,0.0159479039110406
767,0.0171171909421384
768,0.017816978034512
769,0.0182659679780202
770,0.0185239341395519
771,0.0186874540013455
772,0.0187663343213318
773,0.0188874932150546
774,0.0187314707839342
775,0.0187007386372443
776,0.0186024806076825
777,0.0185237358326764
778,0.0186798465840177
779,0.0182647216220334
780,0.0184670308899661
