"wavelength","measurement"
380,0.0059309248448755
381,0.00574951859424195
382,0.00612870146586695
383,0.00588936813073685
384,0.00599076608421504
385,0.0063233830535799
386,0.00689556788319603
387,0.00736544503941633
388,0.00768144920697436
389,0.00791957573267106
390,0.0079930112961683
391,0.00811806316367086
392,0.00824661230397148
393,0.00855678555342519
394,0.00885766408486481
395,0.00943499584716223
396,0.01050937583814
397,0.0119131520551847
398,0.0133169282722294
399,0.0147207044892741
400,0.015483906113355
401,0.0165031428797584
402,0.0174289043288958
403,0.0178054252077638
404,0.0183323793370732
405,0.0187778097624038
406,0.0191837658947545
407,0.0196580143608016
408,0.0200083318317865
409,0.0207708569250019
410,0.0219691498422757
411,0.0223761646434958
412,0.0230791139205839
413,0.0239872949545167
414,0.0240786084877586
415,0.0245956654243946
416,0.0245187593401497
417,0.0244405281780081
418,0.0249196098296736
419,0.0246531169869469
420,0.0253940449058461
421,0.0254492620395588
422,0.0257266750716589
423,0.0260546430084235
424,0.0261463346538442
425,0.0258317103063534
426,0.0255905265347072
427,0.0250372992160844
428,0.0242267434317396
429,0.0242317990065705
430,0.0243485774614591
431,0.0251445401406154
432,0.026018945554422
433,0.027036638968821
434,0.0281182504015551
435,0.0288103315925391
436,0.0292096900676494
437,0.0297388852295927
438,0.030268080391536
439,0.0307972755534793
440,0.0310327001544135
441,0.0317117346889113
442,0.0325317827688078
443,0.0329023720246343
444,0.033531232325415
445,0.0341600926261956
446,0.0347889529269763
447,0.0354503455968064
448,0.0356720999508238
449,0.0370531635729937
450,0.0370062287937912
451,0.0368025304247426
452,0.0367442179020151
453,0.0366859053792876
454,0.03662759285656
455,0.0366468844040007
456,0.0366073689610635
457,0.0371331762821444
458,0.0373601355613036
459,0.0380055293757201
460,0.0378957529222192
461,0.0376384280992709
462,0.0386583208277215
463,0.0376652580760427
464,0.0372600567717614
465,0.0370779225847418
466,0.0365235902277779
467,0.0365894699995425
468,0.0363893726382826
469,0.0360096072756733
470,0.0368273363528941
471,0.0367397086806135
472,0.0368747022959392
473,0.0374909019794775
474,0.0376241248114996
475,0.0383861836395727
476,0.0372644506717479
477,0.0373407600651503
478,0.0374170694585528
479,0.0374933788519552
480,0.0374828344215839
481,0.0365877802633773
482,0.0359129753059128
483,0.0357335670990011
484,0.0348662313905685
485,0.0341486326703256
486,0.0343055004522723
487,0.0345993197659721
488,0.0348714726750269
489,0.0357902049882727
490,0.0361076013748128
491,0.0364075816073012
492,0.0372324069981409
493,0.0368718619886171
494,0.0374818946638682
495,0.0370685996878904
496,0.0372458418767634
497,0.0366644009599471
498,0.0368157059685217
499,0.0359612688667193
500,0.0361514632615222
501,0.0359089867444217
502,0.0366369511198408
503,0.0366733673854149
504,0.0364105650093153
505,0.0375609327588308
506,0.0374135707489607
507,0.037541829168837
508,0.037759712305853
509,0.0378891796448096
510,0.0373358922237872
511,0.0378328351820066
512,0.0374541853494459
513,0.036437240961336
514,0.0362681991799858
515,0.0356345627132825
516,0.0353470905766486
517,0.0352473659289042
518,0.0352459221737591
519,0.0358827472878272
520,0.0366488035683607
521,0.0370641577903046
522,0.0374795120122485
523,0.0378948662341924
524,0.0376328901116268
525,0.0377375209084621
526,0.0379676748582929
527,0.0376471537036648
528,0.0378366948067555
529,0.0384972650364359
530,0.0383167874089573
531,0.0385138528292626
532,0.0383608928064433
533,0.0386966342727488
534,0.0387102414392446
535,0.0383014029956839
536,0.0385910816115633
537,0.0383704858247672
538,0.0381030753183905
539,0.0377757448602237
540,0.0379009429770414
541,0.0376183422176499
542,0.0374011981709104
543,0.0375712967464702
544,0.0377196118052541
545,0.0374343141400026
546,0.0375890008495241
547,0.0375377586669312
548,0.0374865164843382
549,0.0374352743017453
550,0.0368865777653067
551,0.0373902658024598
552,0.0375968074259651
553,0.0371936200197171
554,0.0370421636627025
555,0.0373343061856081
556,0.0368308505354623
557,0.0366756911219945
558,0.0363091545013739
559,0.0359832710499164
560,0.0362941813971254
561,0.0357477925848996
562,0.0363434071885396
563,0.0357713084002426
564,0.0357827511627939
565,0.0353670831469496
566,0.0350706304267476
567,0.0346676057164612
568,0.0348526453456986
569,0.0343770864541411
570,0.0344726251732316
571,0.0343790630483892
572,0.0342639602174476
573,0.0342014958698103
574,0.0344603708196195
575,0.0339306362282901
576,0.0339333894363645
577,0.033936142644439
578,0.0339388958525135
579,0.0339416490605879
580,0.0339444022686624
581,0.0343053974362063
582,0.0339933079030595
583,0.0342344009657477
584,0.0334856399327653
585,0.0333804482998454
586,0.0322836222384239
587,0.0318562109805529
588,0.0314436117417121
589,0.0310310125028714
590,0.0306184132640306
591,0.0306453555523455
592,0.0309822176631034
593,0.0308328179837416
594,0.0312233666881405
595,0.0311291873374943
596,0.0312144624916686
597,0.0311479856959222
598,0.0311181379553704
599,0.0311328518504689
600,0.0312334285460084
601,0.0313306961874667
602,0.0313296790999083
603,0.0311736772644976
604,0.0313950968656323
605,0.030996247364838
606,0.0310638579353752
607,0.0308616422950807
608,0.0303009334972026
609,0.0303090577671787
610,0.029910716290267
611,0.0296878634329972
612,0.0293729327503437
613,0.029081732627862
614,0.0287313970430052
615,0.0289153704292574
616,0.0284807401752415
617,0.0286800891819864
618,0.0285630954460042
619,0.0286241393201532
620,0.0284697860619567
621,0.028519135515561
622,0.0279377554396302
623,0.0277790146574254
624,0.0275477408174746
625,0.0273164669775238
626,0.027085193137573
627,0.0269894089832464
628,0.0268058582764139
629,0.0266014311683695
630,0.0267782523923707
631,0.0262526498248943
632,0.0263823931499433
633,0.0264226813617872
634,0.0263586733092099
635,0.0264578693019667
636,0.0259810523903135
637,0.0261511838553528
638,0.0258969744247318
639,0.0259378884477642
640,0.0256785329047277
641,0.025431703683447
642,0.0252360020313707
643,0.0249853456127496
644,0.0247346891941284
645,0.0244840327755073
646,0.0243727521195585
647,0.0242931083853195
648,0.0237166366236016
649,0.0241040283696463
650,0.0237648266968057
651,0.0238399955208857
652,0.0234211020908387
653,0.0229432240780557
654,0.0224467410384231
655,0.0225729500704631
656,0.0222330082683763
657,0.0224535525216293
658,0.0224287800671814
659,0.0229861429689225
660,0.0229870528038557
661,0.0229603235353409
662,0.0229688653447314
663,0.0227530559204737
664,0.0224953499178538
665,0.0224479090376347
666,0.0223619929997762
667,0.0223563529848929
668,0.0223238298704987
669,0.0217739613829233
670,0.0218293577387803
671,0.0216088624530976
672,0.0215227543073308
673,0.0214310614021241
674,0.0213654549534183
675,0.0213084789989476
676,0.0212860612237781
677,0.0212383185085042
678,0.0209641372379454
679,0.0207505458106492
680,0.0210685444040276
681,0.0207866593431677
682,0.0202180964683732
683,0.01987899098499
684,0.0192476280678913
685,0.0187429158990475
686,0.018366461198834
687,0.0179385936356895
688,0.0178318587142483
689,0.0178271016122476
690,0.0180873618666629
691,0.0184936368026117
692,0.0185026532326965
693,0.0187829463800634
694,0.0190442619511307
695,0.0190179005935486
696,0.0194006210875204
697,0.0195805656063347
698,0.0193588232866287
699,0.0193877763068045
700,0.0198390746944131
701,0.0197043344093533
702,0.0200053029597582
703,0.020086572377915
704,0.0205556036109096
705,0.0205315726861488
706,0.0208716849812413
707,0.0210851558467988
708,0.0210334157812038
709,0.0214132822230304
710,0.0212403879886513
711,0.0212657551628199
712,0.0213493105241954
713,0.0205483136130857
714,0.0202781051024958
715,0.0193736855467114
716,0.0185202882754467
717,0.0179045994312355
718,0.0177088500531489
719,0.0177759147261217
720,0.0180738776562483
721,0.0177788049346341
722,0.0184618032283291
723,0.0182650538509929
724,0.0183215262405179
725,0.0184218149223685
726,0.0182421024396368
727,0.0185282322706455
728,0.0186633891589517
729,0.0190059885161318
730,0.0194753455822409
731,0.0199212347356267
732,0.0204863636842378
733,0.0209705376237232
734,0.0213147511001926
735,0.0212497451946259
736,0.0215893491544504
737,0.0216369829711212
738,0.0216846167877919
739,0.0217322506044627
740,0.0220813581179867
741,0.0220348433910535
742,0.0221113683687375
743,0.0221878933464214
744,0.0222644183241054
745,0.0223083637291819
746,0.0221575654235109
747,0.0221451364847031
748,0.021963255959199
749,0.0219790289352552
750,0.0218907360447676
751,0.0217481689644104
752,0.0220080231929623
753,0.0215937015813316
754,0.0212614488935718
755,0.0199960695035425
756,0.0187306901135133
757,0.017465310723484
758,0.0154942076726597
759,0.0136270726394151
760,0.012251054727397
761,0.0119754914770449
762,0.0123740738937909
763,0.013096582037665
764,0.0142086364130502
765,0.0152564656391834
766,0.0165041291884464
767,0.0176725983116861
768,0.0182803988643217
769,0.0186423684690728
770,0.0191803709116757
771,0.0192602180281308
772,0.0194756059110996
773,0.0196740547081074
774,0.0194201442609462
775,0.0193268666440962
776,0.0192545054276536
777,0.0189783621200906
778,0.0192938785171375
779,0.0189120305752493
780,0.0191323292381015
