"wavelength","measurement"
380,0.0307917739492451
381,0.0294980101381648
382,0.029089455819921
383,0.0288733327085978
384,0.0297543862501856
385,0.0311809889548586
386,0.032455078180385
387,0.0349635259088308
388,0.0364523674411624
389,0.0385138580723286
390,0.0387651742028961
391,0.0386241142683367
392,0.0394420514760944
393,0.0410895670185869
394,0.0423525370944232
395,0.0459991298812368
396,0.0517296703453952
397,0.0588476109344134
398,0.0659655515234315
399,0.0730834921124497
400,0.0774241946572621
401,0.0836605687262377
402,0.0878328389673174
403,0.0903712135708392
404,0.0928791993873239
405,0.0943371687314994
406,0.0984143537664875
407,0.100385979187792
408,0.103089046886624
409,0.1070671950015
410,0.113611458145937
411,0.115791422348608
412,0.120602624353103
413,0.124895770660063
414,0.126106586138465
415,0.129057825671829
416,0.129519971924439
417,0.130750456765114
418,0.132783830340848
419,0.131545191292163
420,0.136458180639203
421,0.136425542929114
422,0.138248419802787
423,0.139380658155981
424,0.141102487977741
425,0.138633555238243
426,0.138129655791876
427,0.134701708123788
428,0.131422602562222
429,0.131026042770735
430,0.131518606767836
431,0.136804093201286
432,0.141087220764433
433,0.146575088659652
434,0.15244662628315
435,0.155098896812966
436,0.156932349104134
437,0.159452081106043
438,0.161971813107952
439,0.16449154510986
440,0.1656723766763
441,0.168118384489798
442,0.171967864036472
443,0.173243204570594
444,0.175288089840721
445,0.177332975110849
446,0.179377860380976
447,0.182054099001005
448,0.181540958507052
449,0.188091608103715
450,0.18663615793864
451,0.185526028920055
452,0.184757434922761
453,0.183988840925467
454,0.183220246928173
455,0.183332718589593
456,0.182776744588761
457,0.184749858335707
458,0.18534364016147
459,0.187667195711112
460,0.188348702492471
461,0.186333444062211
462,0.191736465109601
463,0.186554241196674
464,0.184938346133653
465,0.183689123861144
466,0.181513125648038
467,0.181112854887464
468,0.180089552049865
469,0.178805261327848
470,0.183062102054534
471,0.18251214965934
472,0.184105146592517
473,0.186545871968631
474,0.188235014664059
475,0.190698962203517
476,0.186979682661332
477,0.187333024119888
478,0.187686365578443
479,0.188039707036999
480,0.188105089409191
481,0.183477243924793
482,0.180421402187531
483,0.179904475927982
484,0.175116833182596
485,0.170959616154594
486,0.172272787220084
487,0.173791479946217
488,0.175121310754805
489,0.179306067439789
490,0.180694075919577
491,0.1820174392904
492,0.185925790188413
493,0.183917175784031
494,0.186714779981057
495,0.184441086739154
496,0.184990691413726
497,0.181642579064986
498,0.183077375458953
499,0.178885713492226
500,0.179478996507061
501,0.178152360270665
502,0.180788000847981
503,0.181805886349946
504,0.179867643383926
505,0.185387764666424
506,0.184124770225607
507,0.184493740316002
508,0.185594895222257
509,0.185622142868188
510,0.181975416921204
511,0.184396566430073
512,0.183194664886009
513,0.177721077953056
514,0.176096655161081
515,0.17295718548754
516,0.171466782198553
517,0.170683426732151
518,0.170015569258393
519,0.173234687408063
520,0.176117647888192
521,0.177935357972849
522,0.179753068057505
523,0.181570778142162
524,0.180620172666202
525,0.181057443288158
526,0.181110402166453
527,0.179781744094113
528,0.18104686185976
529,0.183421086667241
530,0.183214194235026
531,0.183421319201927
532,0.182713596200815
533,0.184274129023106
534,0.184512266156943
535,0.181982162673619
536,0.18405677351596
537,0.182719440248624
538,0.181578956075433
539,0.180409696497042
540,0.180863869296123
541,0.179610968127234
542,0.178526112113873
543,0.179503460587802
544,0.180715352858661
545,0.179468137206975
546,0.180592729875218
547,0.180625554372009
548,0.1806583788688
549,0.180691203365591
550,0.178693061284184
551,0.180230351518905
552,0.181645755114577
553,0.179803147770425
554,0.179130434623193
555,0.180934330622771
556,0.177833336504376
557,0.177812291336784
558,0.176650563278842
559,0.175007445983904
560,0.176829859471281
561,0.173832695042921
562,0.176802112594254
563,0.174235377166322
564,0.175369539692356
565,0.172982074708835
566,0.172022556027289
567,0.169836886393122
568,0.171295242896295
569,0.169425320909929
570,0.169538465774146
571,0.170129245154816
572,0.170376658521331
573,0.170030126771731
574,0.171359086540498
575,0.169325311297017
576,0.169843554451208
577,0.170361797605399
578,0.17088004075959
579,0.171398283913781
580,0.171916527067972
581,0.174382273283327
582,0.173195232428144
583,0.174566171910134
584,0.171739136708542
585,0.171822048039641
586,0.16702908349623
587,0.165174314032912
588,0.163829119666058
589,0.162483925299203
590,0.161138730932349
591,0.161969007224911
592,0.163703086795301
593,0.164363021460273
594,0.166914517087581
595,0.166836619264719
596,0.168482352508432
597,0.168750377315514
598,0.168767196257873
599,0.169325740317272
600,0.170618670185805
601,0.171581715808787
602,0.172825069289104
603,0.171918525301946
604,0.173759437162178
605,0.173044224376639
606,0.173461510364491
607,0.172612275415794
608,0.170839492912227
609,0.170488170003904
610,0.169455710254651
611,0.168697813858487
612,0.167610413562642
613,0.16715846698104
614,0.164974300358014
615,0.167374516520845
616,0.165314672365746
617,0.167093884081199
618,0.166595853470584
619,0.167935687233169
620,0.166960651635995
621,0.168722468121528
622,0.165228102660576
623,0.165394147406949
624,0.16462105488051
625,0.163847962354071
626,0.163074869827631
627,0.163332249418557
628,0.16321508790498
629,0.162677193591741
630,0.16401904154565
631,0.161751303957195
632,0.162936969177977
633,0.163851839645781
634,0.163410523612388
635,0.165030877451049
636,0.16294711230352
637,0.164941020224129
638,0.164305284347457
639,0.164549100745964
640,0.163865634088725
641,0.162928341248226
642,0.162712915985323
643,0.161752172568717
644,0.16079142915211
645,0.159830685735504
646,0.160515912956192
647,0.160422746558366
648,0.157116744408764
649,0.160334955900307
650,0.15863665043261
651,0.159892523240875
652,0.158246733541491
653,0.155762990144802
654,0.153351122105702
655,0.154793865100058
656,0.152887291981227
657,0.154250491556214
658,0.156420132748911
659,0.160027994411227
660,0.161938399298068
661,0.162579606131054
662,0.163014868279704
663,0.162767084285216
664,0.16192897256298
665,0.162110826689359
666,0.163066046270392
667,0.162813197352093
668,0.163415851215308
669,0.160959835068614
670,0.161463517098632
671,0.161074404849847
672,0.160349965622014
673,0.161019392120846
674,0.161462110242485
675,0.161270878689785
676,0.161346173277077
677,0.162867091007885
678,0.160705026987981
679,0.160648430238177
680,0.164004141557108
681,0.161184527014719
682,0.158543417427602
683,0.156767790931806
684,0.151811959452094
685,0.148320380040241
686,0.145732488676013
687,0.143115285921906
688,0.142291129935649
689,0.143301834579978
690,0.145165995316158
691,0.148539692314403
692,0.149244917492134
693,0.151219670338473
694,0.153499417029064
695,0.154028973853852
696,0.156527512832344
697,0.158496462480382
698,0.156956296936239
699,0.158004506731843
700,0.161259772415288
701,0.160741644669485
702,0.163513741083811
703,0.16500214290456
704,0.168112803378672
705,0.169476759354035
706,0.172198955517925
707,0.174333449749076
708,0.175480731139963
709,0.178618954551322
710,0.177901235224695
711,0.178388865628438
712,0.180386603712024
713,0.174183576300414
714,0.171924897688526
715,0.164882821642696
716,0.158881303692714
717,0.154069169778112
718,0.153197858109563
719,0.154837906363057
720,0.157776534731147
721,0.156843492277209
722,0.161855387092229
723,0.162734746981219
724,0.162467047808096
725,0.163652780826173
726,0.163808581130844
727,0.167458645087095
728,0.169595858926007
729,0.174262289184141
730,0.178519967641028
731,0.183520252058982
732,0.190235342701368
733,0.196001400400528
734,0.199860138516157
735,0.202014222322394
736,0.205429039274378
737,0.207348486622217
738,0.209267933970056
739,0.211187381317896
740,0.215496246198097
741,0.217345035863902
742,0.219510234714869
743,0.221675433565835
744,0.223840632416802
745,0.22446687472093
746,0.225599899123999
747,0.22744614492512
748,0.225369636221015
749,0.226267477169647
750,0.228844428756439
751,0.226341221373312
752,0.231783126979143
753,0.229746512181942
754,0.227553275603875
755,0.214693528198301
756,0.201833780792728
757,0.188974033387154
758,0.167244330742665
759,0.148283971804299
760,0.134737680977138
761,0.132547648839694
762,0.137626409062405
763,0.146403954809488
764,0.160264089481769
765,0.173491243823709
766,0.189272481590204
767,0.204297754789068
768,0.211992766569467
769,0.21877419791454
770,0.224362182062471
771,0.226761208998924
772,0.229412845102711
773,0.232167572579295
774,0.230748723042805
775,0.231576194764511
776,0.232418418235724
777,0.229950111293109
778,0.233231345976632
779,0.230605996819936
780,0.234006723545075
