"wavelength","measurement"
380,0.00471272110715898
381,0.00459934099727487
382,0.0046417062485569
383,0.00469787519977127
384,0.00487262658408429
385,0.00518840297331359
386,0.00546410109932086
387,0.00576520323383166
388,0.00623922796090145
389,0.00643966957072189
390,0.00664713862565908
391,0.00649852564373526
392,0.00670829161006341
393,0.00689944179073139
394,0.00709179962855742
395,0.00768637918260308
396,0.00855496693503686
397,0.00975838885670707
398,0.0109618107783773
399,0.0121652327000475
400,0.0128766580055878
401,0.0137523372032138
402,0.0146535596964188
403,0.0151611982648261
404,0.0155247062153644
405,0.0160108889241381
406,0.016432501528395
407,0.0169021296838506
408,0.0172934154893063
409,0.0180426968155198
410,0.0191643098602205
411,0.0195341065289093
412,0.0202913629293851
413,0.0210821037583686
414,0.0213400193956942
415,0.0217500074638457
416,0.0218892556289577
417,0.0217756865703624
418,0.0224460710115316
419,0.022063434141798
420,0.0227208831819668
421,0.0227308592094084
422,0.0231268817034284
423,0.0233470820102778
424,0.0234278000027906
425,0.0231848757577751
426,0.0229377220308645
427,0.0224664417483511
428,0.0217889971365422
429,0.0218452974650733
430,0.0219204229829529
431,0.0227365122513871
432,0.0235327750285292
433,0.0245737569189975
434,0.0254619680900046
435,0.0260795428066365
436,0.0265214366106005
437,0.0269471686560926
438,0.0273729007015847
439,0.0277986327470769
440,0.0281640094179848
441,0.0287417862966567
442,0.029540402900796
443,0.029703845173353
444,0.030368062785514
445,0.0310322803976751
446,0.0316964980098361
447,0.0322502982254837
448,0.0325124375766567
449,0.0338257692150823
450,0.0336342964341465
451,0.0334916781737927
452,0.0334506437220013
453,0.03340960927021
454,0.0333685748184186
455,0.0334327581371623
456,0.0333242730263273
457,0.033870643827351
458,0.0339625664605821
459,0.0345001642439187
460,0.0345793188220461
461,0.0341382676433061
462,0.0351856991702089
463,0.0343552607651809
464,0.0340302465547695
465,0.033733556225919
466,0.0333611454422251
467,0.0333286439924732
468,0.0331082647570467
469,0.0328108609757757
470,0.0334950885780134
471,0.0334853684988224
472,0.0336504882793739
473,0.0341773150066165
474,0.0344203585891891
475,0.0348609842708996
476,0.0341394070068181
477,0.0341816987806116
478,0.0342239905544051
479,0.0342662823281986
480,0.0342403615637628
481,0.0333349928923582
482,0.0328914958200735
483,0.032651679884325
484,0.0318779166517837
485,0.0311029133196625
486,0.0314106352888816
487,0.031678377185294
488,0.0318165585101457
489,0.0327061006777435
490,0.0329595309775554
491,0.0332482918967577
492,0.0340433656972692
493,0.0336615479372202
494,0.0342850935161968
495,0.0338914311709857
496,0.0340350731120254
497,0.0335887644367786
498,0.0336388924365212
499,0.0330765118909205
500,0.0331558954860119
501,0.0329341607891421
502,0.0334772948680079
503,0.0336089891135615
504,0.0333437486950157
505,0.034446897656631
506,0.0343770730967371
507,0.0345023896564081
508,0.0347066340474073
509,0.0347221093030927
510,0.0342365025360006
511,0.0347179041328305
512,0.0344989034482249
513,0.0335886769565615
514,0.0332847598774276
515,0.0327572314252699
516,0.0324885505150353
517,0.0324495747332124
518,0.0324309847097112
519,0.0330190040567492
520,0.0336303707190706
521,0.034055201935513
522,0.0344800331519553
523,0.0349048643683976
524,0.0345841123036589
525,0.0347427328722293
526,0.0348422283132985
527,0.0347105531414343
528,0.0348426309416339
529,0.0353211835385218
530,0.0353057241172103
531,0.0353696284488297
532,0.0352240068890529
533,0.0355819155900485
534,0.0355425916545513
535,0.0351910895658517
536,0.0355205611437671
537,0.0353056572600978
538,0.0349417278145546
539,0.0347844876131868
540,0.0348884911127774
541,0.0346091570389612
542,0.0343814558839243
543,0.0344907037241614
544,0.0346953471256169
545,0.0344327395022892
546,0.0346568774112403
547,0.0345987624150586
548,0.0345406474188769
549,0.0344825324226952
550,0.0341309203192219
551,0.0343998082523599
552,0.034631540429873
553,0.0342999527520881
554,0.0340637615479702
555,0.0344471354918357
556,0.0338640869653034
557,0.0336920698845794
558,0.0334936015811294
559,0.0331741153302038
560,0.0335635530487332
561,0.0328817166879357
562,0.0334737063334995
563,0.0329373456097806
564,0.0330993720615942
565,0.032514337666545
566,0.0324220165356583
567,0.0319474937165779
568,0.0322080452019605
569,0.0318291251008638
570,0.0317704415798086
571,0.0317702773604401
572,0.0317990554796737
573,0.0316864629680615
574,0.0318235627922083
575,0.0313987122242719
576,0.0314140898671174
577,0.031429467509963
578,0.0314448451528085
579,0.0314602227956541
580,0.0314756004384996
581,0.0316985391432528
582,0.0314526560764906
583,0.0316027643572218
584,0.0310270486727935
585,0.0309343334743317
586,0.029964919360873
587,0.0294885185391865
588,0.0291270121262377
589,0.028765505713289
590,0.0284039993003402
591,0.0285275974761637
592,0.028638897518871
593,0.0286763307476533
594,0.0290692090399066
595,0.0288578466345951
596,0.0290082491565451
597,0.0290759464663631
598,0.0290143799023974
599,0.0288955737136671
600,0.0290888183091673
601,0.0291005301812502
602,0.0292204794581855
603,0.029031666222569
604,0.0292057513434697
605,0.0288548671477906
606,0.0289650631585713
607,0.0287146529880731
608,0.0281961067938844
609,0.0282131018994446
610,0.0277777423784337
611,0.027658170612084
612,0.0274124260039805
613,0.0272059731804103
614,0.0267046715702203
615,0.026966529764051
616,0.0264796490410083
617,0.0267963938022011
618,0.026619983098686
619,0.0266317788761401
620,0.0264844874776782
621,0.0264938786312697
622,0.0260161676637254
623,0.0259473980704196
624,0.0256982005529432
625,0.0254490030354669
626,0.0251998055179906
627,0.0251921230112339
628,0.0250157034864355
629,0.0249328229048331
630,0.0250381240958205
631,0.0244803223830863
632,0.0246655616158072
633,0.0246713955433546
634,0.0245800016317221
635,0.024587243144125
636,0.0242667686707237
637,0.0245196033191072
638,0.0241664157936587
639,0.0241835824156379
640,0.0239872694028961
641,0.023858078599929
642,0.0236134646689055
643,0.0233770407699407
644,0.0231406168709758
645,0.0229041929720109
646,0.022946792974059
647,0.0228171296312613
648,0.0222385168292551
649,0.0225145428620788
650,0.0222154084681283
651,0.0223717160193656
652,0.0219656362768592
653,0.0215753164287968
654,0.0209655207603484
655,0.0211251232480286
656,0.0208074119739968
657,0.0209333683746934
658,0.0210314978874319
659,0.021511879933981
660,0.0215841305067301
661,0.0215464129863456
662,0.0215632167014738
663,0.0213140211445025
664,0.0210852900379188
665,0.0210945137730836
666,0.0211477774511612
667,0.0209495162386854
668,0.0209275719455065
669,0.0204096165283965
670,0.0203948055335054
671,0.0203762849059804
672,0.0201566249866052
673,0.0202449288261534
674,0.020085415356567
675,0.0200201433309496
676,0.0198990920683114
677,0.0198867640784089
678,0.019723829806147
679,0.0194640702534259
680,0.019977236229225
681,0.0194862963735537
682,0.0191934314218338
683,0.01868973839497
684,0.0181240774839188
685,0.0176272216017009
686,0.0172323815118785
687,0.0168951054747884
688,0.0166792852600524
689,0.0168243694201683
690,0.016985729327521
691,0.017481272004061
692,0.0173749095040077
693,0.0175004063828354
694,0.017806579527638
695,0.0178427293974313
696,0.018216379657918
697,0.0182232843352292
698,0.0181195288098722
699,0.0181415873224818
700,0.0184870222930427
701,0.0182691605835087
702,0.0187790558545841
703,0.018729271171784
704,0.019138926430083
705,0.0191301047555361
706,0.0193862851337687
707,0.0195572532789461
708,0.0196255800760337
709,0.0197856901186361
710,0.0196462948068266
711,0.0196800603436144
712,0.0197328626667682
713,0.0190908802390056
714,0.0187871281120094
715,0.0178644671027027
716,0.0170815963078312
717,0.0165183781422535
718,0.0164548828066137
719,0.0165038105464448
720,0.016663819058516
721,0.0165542112309997
722,0.0169977452641546
723,0.016825917852211
724,0.0169247058577266
725,0.0170602431613733
726,0.0168130148339306
727,0.0170581001745221
728,0.0171244407367741
729,0.0175095953406805
730,0.0178843314837408
731,0.0182540325830284
732,0.0187681291120515
733,0.0192615145652419
734,0.0194538792612207
735,0.0195291510579659
736,0.019685791568254
737,0.0197813473683745
738,0.019876903168495
739,0.0199724589686155
740,0.020338813051707
741,0.0201350590355711
742,0.0201923934485574
743,0.0202497278615438
744,0.0203070622745301
745,0.0204187015817653
746,0.0202842298519652
747,0.0202804715672804
748,0.0200007302007692
749,0.0200516517935122
750,0.0200476768557902
751,0.0195532906535091
752,0.0200638634853922
753,0.0197739133668875
754,0.0195519738724682
755,0.0183402112485599
756,0.0171284486246515
757,0.0159166860007432
758,0.014059052994635
759,0.0123730095935001
760,0.011235878903422
761,0.0110156964811186
762,0.01122998362819
763,0.0119696057631457
764,0.0128944273647902
765,0.0138579752971729
766,0.0149545434520998
767,0.0160769130135712
768,0.0167167726821827
769,0.0171598665485702
770,0.0174967095355311
771,0.0175268467261367
772,0.0176992719724882
773,0.0178974451903935
774,0.0176692952765569
775,0.0176102471886626
776,0.0175828004283965
777,0.0174699879122966
778,0.0175236662328976
779,0.017308048050642
780,0.0174042842558467
