"wavelength","measurement"
380,0.0317091695648511
381,0.0302419197879932
382,0.0306780295513496
383,0.0299366485357353
384,0.029867186413705
385,0.0322433904949565
386,0.0339502117763592
387,0.0355255838664687
388,0.0373273401381277
389,0.0394076650823111
390,0.0398760329560966
391,0.0399601162050561
392,0.0403079955885429
393,0.0421863457513764
394,0.0427584805400371
395,0.0465910393107199
396,0.0523116140461459
397,0.0595799548531899
398,0.066848295660234
399,0.074116636467278
400,0.0779361953994779
401,0.0848641133280848
402,0.0888730233323513
403,0.091661638298631
404,0.0938868808480974
405,0.0962827715519196
406,0.0992703550073795
407,0.101768209762955
408,0.104644797713329
409,0.107946510561904
410,0.114375619253694
411,0.116377708912797
412,0.121300682507892
413,0.124659370317368
414,0.126658175509498
415,0.129288500291938
416,0.129681892159165
417,0.129144054436412
418,0.132900173366647
419,0.131055590582419
420,0.135782705374294
421,0.135438570069789
422,0.137670647536655
423,0.138587057005546
424,0.139512085672233
425,0.137051381516092
426,0.136624830753281
427,0.133513774973143
428,0.130280200906153
429,0.129722086594756
430,0.129703975565849
431,0.134990330571986
432,0.139080040711891
433,0.144155085151522
434,0.150425480496077
435,0.153671649029687
436,0.154971203404039
437,0.157465030606491
438,0.159958857808942
439,0.162452685011394
440,0.16339699052067
441,0.16602256430876
442,0.170033461232288
443,0.170774629563482
444,0.173023187509813
445,0.175271745456145
446,0.177520303402476
447,0.179297352147577
448,0.180057070641666
449,0.185968633597598
450,0.184893755412787
451,0.183814392153087
452,0.182845950247038
453,0.181877508340989
454,0.18090906643494
455,0.18125362986138
456,0.18139068543662
457,0.18292302140174
458,0.183936552407416
459,0.186387239569924
460,0.186532699859924
461,0.184659567349982
462,0.189822862335569
463,0.185168913474164
464,0.182846571672766
465,0.181872526942021
466,0.179835317501537
467,0.179867710225312
468,0.178426555353407
469,0.177285259124395
470,0.181342145275505
471,0.181383736594978
472,0.182552687199155
473,0.185956888257675
474,0.186205388864693
475,0.189190388588059
476,0.18542928041381
477,0.185963574515634
478,0.186497868617457
479,0.187032162719281
480,0.186806664669803
481,0.182409722377273
482,0.179518086592336
483,0.177958873107562
484,0.173535665176189
485,0.169620368498884
486,0.171441357443383
487,0.17237671218103
488,0.173959297641735
489,0.178419666154828
490,0.179521502791198
491,0.180965232050795
492,0.184769399940637
493,0.183125403207676
494,0.185929681700091
495,0.183315599393319
496,0.184299490411734
497,0.181189092693309
498,0.182133648376604
499,0.177724340380084
500,0.178625875270343
501,0.177084838723145
502,0.179763085076509
503,0.180846890674035
504,0.178896670547795
505,0.184066254179284
506,0.183361911976882
507,0.183848025094235
508,0.184620379523847
509,0.184700907247016
510,0.181584559211745
511,0.183879994252659
512,0.182063234674416
513,0.176730996517796
514,0.175811214747296
515,0.172338121732979
516,0.171040541580658
517,0.170342454809293
518,0.169485602775848
519,0.172832401110608
520,0.175797281709491
521,0.177572980304675
522,0.179348678899859
523,0.181124377495042
524,0.180284446465235
525,0.180622974086906
526,0.181357259667164
527,0.179732601165731
528,0.180388346619437
529,0.183248286416743
530,0.182947588134257
531,0.183263330401472
532,0.18235812139979
533,0.183879157021968
534,0.184216037156089
535,0.182426506174899
536,0.183898053285873
537,0.18309144078789
538,0.181370635773444
539,0.179953375835542
540,0.181023138098434
541,0.180087677389718
542,0.178278111754362
543,0.179752603806113
544,0.180715352858661
545,0.179417965705673
546,0.180824364496718
547,0.180671603962573
548,0.180518843428429
549,0.180366082894284
550,0.179248719232544
551,0.179977779724195
552,0.181645755114577
553,0.180169376872753
554,0.179352697802538
555,0.181010787876463
556,0.178316080061322
557,0.177787948444352
558,0.176601694636571
559,0.1749082458401
560,0.177080145548391
561,0.173941312343234
562,0.177160878828621
563,0.174363743066692
564,0.175379505421089
565,0.17308081770912
566,0.172042487484754
567,0.170626830395398
568,0.171046099677984
569,0.169584772569647
570,0.169785323274857
571,0.170209885271715
572,0.170301915555837
573,0.170258332816833
574,0.171570858276062
575,0.169483300097473
576,0.169964158054611
577,0.17044501601175
578,0.170925873968889
579,0.171406731926028
580,0.171887589883166
581,0.174481016283611
582,0.173470798541901
583,0.174813029410845
584,0.172386086217813
585,0.171772676539499
586,0.167325312497083
587,0.165452074435564
588,0.16404728379184
589,0.162642493148117
590,0.161237702504394
591,0.162227659028434
592,0.164029944411984
593,0.164261535598869
594,0.167015545805465
595,0.167090333918228
596,0.167995220373695
597,0.169043863455249
598,0.168868682119277
599,0.169122768594465
600,0.170830830493361
601,0.171581715808787
602,0.173269595647792
603,0.172089908407533
604,0.174165380607792
605,0.172843081227912
606,0.173642539198346
607,0.172989418819658
608,0.170507606716826
609,0.170866456266568
610,0.169708099191952
611,0.168975642832667
612,0.167701750837905
613,0.166803266466128
614,0.165076243362937
615,0.167498493843424
616,0.165916638952665
617,0.167095426940579
618,0.166903053915914
619,0.167858087120677
620,0.167289794970276
621,0.168917382689797
622,0.165775669168635
623,0.165549804775453
624,0.164881184781414
625,0.164212564787374
626,0.163543944793335
627,0.163530592563226
628,0.163107750606523
629,0.162914793936175
630,0.163922081405093
631,0.1615601265372
632,0.162980854955882
633,0.163807953867877
634,0.164057838836475
635,0.164537162449627
636,0.163382678649219
637,0.164774757125965
638,0.163996621042864
639,0.164593535096092
640,0.163843051198845
641,0.163028729965182
642,0.162288801084796
643,0.161412514933479
644,0.160536228782162
645,0.159659942630845
646,0.160515912956192
647,0.160226220559188
648,0.157415899128144
649,0.159986612538193
650,0.158209038384156
651,0.160194512250078
652,0.158060218985398
653,0.155339046673095
654,0.152886664289549
655,0.154617636273161
656,0.153182149551521
657,0.154368891727851
658,0.156314349738421
659,0.160302417666184
660,0.161495244369939
661,0.162315102890477
662,0.163045039752014
663,0.162427883793498
664,0.161444766146771
665,0.162037592297481
666,0.162401999593479
667,0.162317653776592
668,0.163229336659215
669,0.160335834164038
670,0.161062327945624
671,0.160860461682564
672,0.160260639778238
673,0.160600968657141
674,0.161016623882405
675,0.161142787075527
676,0.160922812663357
677,0.16204258695551
678,0.160511655279091
679,0.160519058622063
680,0.164069741652204
681,0.161574013293619
682,0.158360742877075
683,0.155839515300428
684,0.151299730138118
685,0.148017202457886
686,0.145299002333329
687,0.142822256925691
688,0.142144661151894
689,0.142659456505905
690,0.145166178173566
691,0.148389794954249
692,0.14931257473307
693,0.150879098416196
694,0.153030113491601
695,0.153740927722004
696,0.156568884320889
697,0.157978153157592
698,0.156802925285335
699,0.158250107087875
700,0.161188686597954
701,0.16091115348664
702,0.163816941523342
703,0.165300840480421
704,0.168759890030999
705,0.16940521639318
706,0.17262958471361
707,0.175496422863538
708,0.17597225185249
709,0.179659870345988
710,0.178522036124631
711,0.179065895181314
712,0.180802055742851
713,0.17469973704866
714,0.173059710762166
715,0.165180422074109
716,0.159105258303082
717,0.154823182299729
718,0.153950682058029
719,0.155833336377498
720,0.157622934508482
721,0.157454236019709
722,0.162333742071385
723,0.162688575485716
724,0.162837391202103
725,0.164251273122341
726,0.164296718981324
727,0.167856702806992
728,0.170283539922896
729,0.174889855808172
730,0.179292357332142
731,0.184902425491205
732,0.190316942819659
733,0.196823801592712
734,0.200439339355788
735,0.202263822684224
736,0.206851212764587
737,0.208602918916881
738,0.210354625069175
739,0.212106331221469
740,0.216333915983843
741,0.218117014125848
742,0.220204711912085
743,0.222292409698323
744,0.22438010748456
745,0.225988202640591
746,0.226370985956082
747,0.228048751512967
748,0.226331466186749
749,0.227954976758768
750,0.228663857066104
751,0.228160652582257
752,0.231508840867241
753,0.230501164704487
754,0.22881243171491
755,0.2155708170891
756,0.202329202463291
757,0.189087587837481
758,0.167663165635538
759,0.14867048665032
760,0.135201224506252
761,0.132702711921622
762,0.137764237833635
763,0.147076127212466
764,0.160243518023376
765,0.173370557934473
766,0.189171087157504
767,0.20471009824396
768,0.21312419678106
769,0.219291912950754
770,0.224026090146688
771,0.226467357144373
772,0.22945499373524
773,0.232899916498071
774,0.230788403100326
775,0.231902458094618
776,0.232485481190084
777,0.230344260435911
778,0.23369776950992
779,0.230694865520192
780,0.234187935236338
