"wavelength","measurement"
380,0.0113706666265059
381,0.0109251327416764
382,0.0108113771349354
383,0.0106664152546716
384,0.0104961896536633
385,0.0110584270228477
386,0.0114410030880771
387,0.0118578293538489
388,0.012308196383153
389,0.0126294783195576
390,0.0125848139187816
391,0.0123370411351259
392,0.0125368361363433
393,0.0124158291501735
394,0.0126929667896608
395,0.0134432791236585
396,0.0148381087141656
397,0.0163843534375849
398,0.0179305981610041
399,0.0194768428844234
400,0.0204716738648227
401,0.021422683578786
402,0.022173095671993
403,0.0223613045259916
404,0.0224873342217535
405,0.022435019744131
406,0.0228516826075662
407,0.0229714759223768
408,0.0230812739293847
409,0.0235403467562259
410,0.0245567208563978
411,0.0245027556464095
412,0.0252236378649009
413,0.0256224685578137
414,0.0256307301495948
415,0.0258523621812865
416,0.0255296963086082
417,0.0253696448127753
418,0.0257262923867104
419,0.0251946050211631
420,0.0257611424983035
421,0.0256120847992917
422,0.0257267751733398
423,0.0257780906639957
424,0.0258251344746353
425,0.0251110124695231
426,0.0248937367055693
427,0.0241229374536528
428,0.0233895893379656
429,0.0232304252298114
430,0.0231898246981442
431,0.0239944523003187
432,0.0246761245325137
433,0.0253958319913779
434,0.0262559938920693
435,0.0266602482893524
436,0.0268836704013012
437,0.0271490538295115
438,0.0274144372577218
439,0.027679820685932
440,0.0276208032916248
441,0.0279418694731926
442,0.0283607734862131
443,0.0283987472108772
444,0.0286544456730006
445,0.0289101441351241
446,0.0291658425972475
447,0.0293937403273103
448,0.0293798540409535
449,0.0301106616800028
450,0.0297816245699153
451,0.0294035877959991
452,0.0291724203440237
453,0.0289412528920483
454,0.0287100854400729
455,0.0284721592974425
456,0.0283484389184167
457,0.0284792601567007
458,0.0284388247674559
459,0.0287409207470468
460,0.0286804924200631
461,0.0281635059185293
462,0.0287688061166705
463,0.0279225776283155
464,0.0274410215811132
465,0.0271048851200996
466,0.0267074475524002
467,0.0265098710794851
468,0.0261516838696707
469,0.0257850845622951
470,0.0263232417978035
471,0.0261351333047923
472,0.0261509327075718
473,0.0263799926250179
474,0.0262488147016738
475,0.0263951326457021
476,0.0257161502860219
477,0.0256428091494189
478,0.0255694680128158
479,0.0254961268762128
480,0.025249582896873
481,0.0245414736221651
482,0.0239562803923826
483,0.0238418505299606
484,0.0232167603363221
485,0.0226368801400855
486,0.0228090820458713
487,0.0228173726427282
488,0.0230326208603352
489,0.023377084294549
490,0.0235419194371623
491,0.0235831483008341
492,0.0240840552197894
493,0.0236008714849939
494,0.0238301433779688
495,0.0234133519219911
496,0.0234030250241396
497,0.0228493002612002
498,0.0228718735392667
499,0.0223779440487447
500,0.0224095706281683
501,0.0221111508085274
502,0.0224268024951189
503,0.0224199206719053
504,0.0221113073101804
505,0.0226715700000867
506,0.0225502420793845
507,0.0225285008290018
508,0.022606169163286
509,0.0225270674343223
510,0.0221294592327475
511,0.0223234117145635
512,0.0220764582055514
513,0.0213609772640738
514,0.0211929238023175
515,0.0207664312252111
516,0.0206549589912351
517,0.0205962633376755
518,0.0204779317219533
519,0.0208968391716098
520,0.0212725971612719
521,0.0214482029725796
522,0.0216238087838874
523,0.0217994145951951
524,0.0215748196814445
525,0.0216024245770642
526,0.0216292203314882
527,0.0215016020803055
528,0.0215704469833092
529,0.0217917401805539
530,0.0217215265317614
531,0.0217569766317716
532,0.0215983665304446
533,0.0218147980242401
534,0.0218558036119651
535,0.021571544115011
536,0.0217276338602966
537,0.0214979619852523
538,0.0213759514218464
539,0.0211837382412594
540,0.0212056420176631
541,0.0210685440820435
542,0.0208155185859899
543,0.0209267792190226
544,0.021006048727844
545,0.0207937758457578
546,0.0208982805629209
547,0.0208240933271365
548,0.0207499060913521
549,0.0206757188555677
550,0.0205523654948057
551,0.0205834295814389
552,0.0207434220054329
553,0.0204601335102095
554,0.0203531842981134
555,0.0204396071791032
556,0.020101203889738
557,0.0200028583255671
558,0.0198005834387649
559,0.0196076924704253
560,0.0197455311149402
561,0.0192845134765503
562,0.0195384391060087
563,0.0191401327164128
564,0.0191164033641138
565,0.0187247183871576
566,0.0185753313260609
567,0.018157770850328
568,0.0181799959733511
569,0.0179416374450051
570,0.0178051968247695
571,0.0177662173611441
572,0.0176712948269169
573,0.0175591223028333
574,0.0175775782556999
575,0.0172773804979595
576,0.0173083194355606
577,0.0173392583731616
578,0.0173701973107627
579,0.0174011362483638
580,0.0174320751859648
581,0.01765042272449
582,0.0175185443839502
583,0.0175944439866072
584,0.0172394725902635
585,0.0172177443413699
586,0.0166069266759766
587,0.0163331069046166
588,0.0161483992886959
589,0.0159636916727752
590,0.0157789840568545
591,0.0157749300848712
592,0.0158889132134379
593,0.0158453707249423
594,0.0161082592426418
595,0.0160063347751951
596,0.0161206108821596
597,0.016171717790883
598,0.0161339465630553
599,0.016139308577395
600,0.0162342076691192
601,0.0163159168964553
602,0.0163616228816078
603,0.0163098719595588
604,0.0163337565738806
605,0.0162101088265516
606,0.0162106426742668
607,0.0161230900650005
608,0.0158395340474183
609,0.0158239789585662
610,0.0156944554764833
611,0.015554590116535
612,0.0153824706444373
613,0.0152957576062936
614,0.0151125338846433
615,0.0152965945032629
616,0.0150441380799793
617,0.0151660243405543
618,0.0150926346877044
619,0.0151117764947001
620,0.0149958357163217
621,0.0150959075321342
622,0.0147532157029812
623,0.0147044708924534
624,0.0145515333115961
625,0.0143985957307387
626,0.0142456581498813
627,0.0141425904056653
628,0.0140999245570221
629,0.0140368890890502
630,0.0142340457117947
631,0.0140375320050644
632,0.0141628397428656
633,0.0142601678794988
634,0.0143034563159278
635,0.0143995116131504
636,0.0142205266984052
637,0.0143943135048357
638,0.0142414492935246
639,0.0143006723814196
640,0.0142398201206248
641,0.0141180754482237
642,0.0140367190036567
643,0.0138910438322852
644,0.0137453686609136
645,0.0135996934895421
646,0.0136098371204139
647,0.0136244664267737
648,0.0133821183276625
649,0.0135432188404551
650,0.0134274434192944
651,0.013465505795555
652,0.0133022028466745
653,0.0130956400263045
654,0.0129108578420011
655,0.0130169133112128
656,0.0128814339439235
657,0.0130014068170193
658,0.0131170400634768
659,0.0133807621794025
660,0.0134781430899464
661,0.013488424866783
662,0.0134737712229521
663,0.0133708435645944
664,0.0133011621615982
665,0.0132802290585811
666,0.0132896688516276
667,0.0133389114567844
668,0.0132895987411398
669,0.0130359039202839
670,0.0130618149014214
671,0.0130226391613313
672,0.0129873761505944
673,0.0130277573912868
674,0.0130348287125697
675,0.0130333975782482
676,0.0130297606272925
677,0.0131458848582163
678,0.0129655591546343
679,0.0129911689589866
680,0.0132871437306462
681,0.0130893428117379
682,0.0127247483701595
683,0.0125074522572651
684,0.0120199483276731
685,0.0116258895243395
686,0.0113335075764817
687,0.0112020374595456
688,0.0113065396536868
689,0.011601449927455
690,0.0120330206914501
691,0.0124818266234886
692,0.0128622571772739
693,0.0132112898806338
694,0.013836251805545
695,0.0140663429249941
696,0.0146185672245119
697,0.0150659727623447
698,0.0151152500895568
699,0.0155923600058281
700,0.016178037602953
701,0.0164094946164366
702,0.0170405334777866
703,0.0174389322764197
704,0.018058276653751
705,0.0183940435367664
706,0.0190562441250832
707,0.019640204116287
708,0.0199717665740534
709,0.0205219583523907
710,0.0206766517709941
711,0.0210135688482233
712,0.0212921006268705
713,0.020744447480381
714,0.0204734182727855
715,0.0197126240381042
716,0.0192073158346743
717,0.0189399639747772
718,0.0190600202815487
719,0.0195674354289283
720,0.0201369039717855
721,0.0201857005664555
722,0.0209773006555378
723,0.0211998059543025
724,0.0214196419339082
725,0.0217527464292609
726,0.02195982823076
727,0.0226609293293371
728,0.0233249742889943
729,0.0242305798029451
730,0.0250849980491866
731,0.026089660891412
732,0.027154426431327
733,0.0281668345241374
734,0.0289177777720684
735,0.0293778329745684
736,0.0300546802518179
737,0.0305133644953129
738,0.0309720487388078
739,0.0314307329823028
740,0.0320839102224087
741,0.0324967769206529
742,0.0328577294415108
743,0.0332186819623688
744,0.0335796344832267
745,0.0337513154494377
746,0.0337948474575364
747,0.0341075178288456
748,0.033868334426081
749,0.0341856837980204
750,0.0341755345453592
751,0.0341719104706122
752,0.0347873234744212
753,0.0344211482306655
754,0.033735273364378
755,0.0310273164440173
756,0.0283193595236566
757,0.0256114026032959
758,0.0215592150445903
759,0.018069597291052
760,0.0161242100102666
761,0.0157653734884201
762,0.0164775414104028
763,0.0184490217800683
764,0.0209704224081607
765,0.023663009429489
766,0.0265457461133952
767,0.0293708525145972
768,0.0310045336593833
769,0.03229958985076
770,0.033294888094018
771,0.0337984019907636
772,0.0343051959380012
773,0.034811268556913
774,0.0346650863098517
775,0.0347699220498043
776,0.0349320547981934
777,0.0346698939192037
778,0.035170130921133
779,0.0347199942543552
780,0.0352003635845692
