"wavelength","measurement"
380,0.0210488367637877
381,0.0203175164467808
382,0.0196678845348336
383,0.0192868121093481
384,0.0191644590446848
385,0.0200871220502824
386,0.0209792789203512
387,0.0216256282017798
388,0.0223506239619126
389,0.022905327490043
390,0.0222163922494492
391,0.0219539522148769
392,0.0217083041457334
393,0.0217483716739939
394,0.0218354714474575
395,0.0228261891318234
396,0.0249295542648323
397,0.0273391885911582
398,0.0297488229174841
399,0.03215845724381
400,0.033295865948135
401,0.0345999438992698
402,0.0355428088222066
403,0.0352657784571777
404,0.0349876393204969
405,0.0346058789338615
406,0.0348841724199526
407,0.0348204797062389
408,0.0346970629815152
409,0.034801015891482
410,0.036106591221255
411,0.0358556216186249
412,0.0366946848756458
413,0.0368784390104836
414,0.0362913080250473
415,0.0365365111627491
416,0.0360178345792114
417,0.0354803096342789
418,0.0357650036142401
419,0.0346524072900641
420,0.0354531346573486
421,0.0349757573239887
422,0.0352232352965323
423,0.0350622136196623
424,0.0353573610347863
425,0.0340290050636944
426,0.0336738060305659
427,0.032582500834489
428,0.0315523883357054
429,0.0313304933211919
430,0.0312463955528354
431,0.0323210455225626
432,0.0333615695928028
433,0.0341859460979391
434,0.0355039322255653
435,0.0360445545584313
436,0.0363105406775664
437,0.0367258595938501
438,0.0371411785101337
439,0.0375564974264174
440,0.0375723480391574
441,0.0381732431433289
442,0.0386807711117041
443,0.0390223697706182
444,0.0394807903407042
445,0.0399392109107903
446,0.0403976314808763
447,0.0410167131344939
448,0.0410806306919262
449,0.0424417725861256
450,0.0419954595983558
451,0.0417688482563094
452,0.0415837702346501
453,0.0413986922129907
454,0.0412136141913313
455,0.040936589830302
456,0.0411020303786114
457,0.0412370609976562
458,0.0416257579682054
459,0.0418811528099749
460,0.0419586167278523
461,0.04128096871423
462,0.0422821220994875
463,0.0412150383096623
464,0.0405170684501007
465,0.0401798293011283
466,0.0395593500058514
467,0.0393676213581321
468,0.0388575668506154
469,0.0383570040269645
470,0.0391152401004497
471,0.0390284912636971
472,0.0392079950482464
473,0.039507164706503
474,0.0394791048503451
475,0.0397996257247242
476,0.0390051468488776
477,0.0389317372878804
478,0.0388583277268831
479,0.0387849181658858
480,0.0386106763513053
481,0.0376643281774968
482,0.0369728573657814
483,0.0366322943662561
484,0.0359275102958714
485,0.03493638700521
486,0.0351440507153339
487,0.0353460607043234
488,0.0357380659643197
489,0.0364482141599061
490,0.036750828382395
491,0.0368201101818303
492,0.0376076603647613
493,0.0372612026603868
494,0.0377608336383303
495,0.0371492597381992
496,0.0371708250077834
497,0.0365032148285335
498,0.0365499313776686
499,0.0356624420961811
500,0.0357313265993241
501,0.0352776570328574
502,0.0357649313367289
503,0.0359607463437491
504,0.0353509301427424
505,0.0365617238425548
506,0.036351819229269
507,0.036576448860643
508,0.0368748039567457
509,0.0369291533299629
510,0.0364514649947898
511,0.0369595876335957
512,0.0368291444713034
513,0.0358668988072788
514,0.0357133335099663
515,0.0351214781877962
516,0.0352086666151323
517,0.0351262225722164
518,0.0351744578833987
519,0.0360209741750219
520,0.0367376666145971
521,0.0372628284701057
522,0.0377879903256142
523,0.0383131521811228
524,0.0382141762527543
525,0.0383714069170881
526,0.038603221612035
527,0.0385977178349476
528,0.0388773806321454
529,0.0395444557658806
530,0.0396038922492235
531,0.0397329463781348
532,0.039699904285778
533,0.0401522225505304
534,0.0402409111331163
535,0.0398474161736348
536,0.0403229383724327
537,0.0399848376140277
538,0.0397370649085636
539,0.0394457495450145
540,0.0396180113019523
541,0.0393556599296951
542,0.038918234414664
543,0.0391274576570962
544,0.0394190886255387
545,0.0391620185225853
546,0.0394722313811831
547,0.039491132748435
548,0.0395100341156868
549,0.0395289354829387
550,0.0392871686470116
551,0.0395261816467167
552,0.0398553492924773
553,0.039412534266554
554,0.0392720979212353
555,0.03953227566705
556,0.0389362338197518
557,0.0387198214266294
558,0.0384263015764458
559,0.0380643850329347
560,0.0383096196438783
561,0.0374523948510032
562,0.0379100035073771
563,0.0372101937716061
564,0.0372230381994881
565,0.0364666556419271
566,0.0359476213794835
567,0.0351566993021838
568,0.0352413974590837
569,0.0345936283081627
570,0.0343434248661736
571,0.0343091397740203
572,0.0340590218709448
573,0.0339729873235687
574,0.0340050298505542
575,0.0333560719534389
576,0.0334456934742456
577,0.0335353149950524
578,0.0336249365158592
579,0.033714558036666
580,0.0338041795574728
581,0.0341254842715396
582,0.0337566264583569
583,0.0338763346108555
584,0.033046349826492
585,0.0326495560949039
586,0.0313215603013018
587,0.0305737168813681
588,0.0299843178962362
589,0.0293949189111044
590,0.0288055199259725
591,0.0289347629505173
592,0.0291856598797168
593,0.029331571963966
594,0.0297686513581252
595,0.0297218884416156
596,0.0300155355905302
597,0.0302986179263362
598,0.0305460725288955
599,0.0307923802086835
600,0.0311248297255438
601,0.0313053714140399
602,0.0315743632863383
603,0.0312654009353225
604,0.0316680235772118
605,0.0314062819384999
606,0.0314785315950689
607,0.03130495671689
608,0.0308637169200757
609,0.0307885233628952
610,0.030526370689185
611,0.0302622144785272
612,0.02993097548805
613,0.0298325176319565
614,0.029378691170391
615,0.0297356778111383
616,0.0293875275622281
617,0.0294927886484378
618,0.0295022657828131
619,0.0295572591301998
620,0.0293437612154681
621,0.0295757320270756
622,0.0288293692427068
623,0.0287397332359262
624,0.0284538632879262
625,0.0281679933399262
626,0.0278821233919262
627,0.0277508099319172
628,0.0275668266109069
629,0.027520241695163
630,0.027852987261788
631,0.0275281089373418
632,0.0277937173662062
633,0.0279246669189924
634,0.028040090588389
635,0.0282454880734176
636,0.0280295492694582
637,0.0283094340407888
638,0.0280656419764469
639,0.0282247694935043
640,0.0280942706612855
641,0.0278062390871764
642,0.0276607371365253
643,0.0272802940744336
644,0.0268998510123418
645,0.0265194079502501
646,0.0263282859752905
647,0.0259604379836894
648,0.025532543237353
649,0.0259742937737342
650,0.0256981752408492
651,0.0260032899415723
652,0.0257364898785505
653,0.0254129087181779
654,0.0249897138694509
655,0.0252420926004866
656,0.0250832241295692
657,0.0254439451572049
658,0.0258185205595569
659,0.0265735552441859
660,0.0268286895750492
661,0.026897727331013
662,0.0269978676010144
663,0.0268670406073477
664,0.0266882880682221
665,0.0268380912803286
666,0.0267703269932632
667,0.026779750614577
668,0.0268613813276831
669,0.0263926711297079
670,0.0264695266438579
671,0.0264064056624063
672,0.0262600348388709
673,0.0265065978872544
674,0.0264732114327119
675,0.0264453117738191
676,0.0265411230191742
677,0.0266525725081503
678,0.0263837651785089
679,0.0263712675558268
680,0.0270873865911286
681,0.0266233868339918
682,0.025919822181564
683,0.0254948499388336
684,0.0244135889561076
685,0.023700473432249
686,0.0231302719137127
687,0.0226890965341386
688,0.0227817471653639
689,0.022840969972081
690,0.0232730408974307
691,0.0240688252798871
692,0.024405613196589
693,0.0252138740411188
694,0.0260435522021063
695,0.0265107552955277
696,0.0276268554873022
697,0.0282562438085548
698,0.0284118480013746
699,0.0291633861370584
700,0.0303534663071824
701,0.030904569897559
702,0.0323964968335316
703,0.0333732121211901
704,0.034931116737925
705,0.0357700859548556
706,0.0373457200818796
707,0.0385008793261561
708,0.0396485121232082
709,0.0409008939986652
710,0.0414344390099911
711,0.0422898705685082
712,0.0427029931013748
713,0.0413054762380021
714,0.0404528508536867
715,0.0381039616752007
716,0.0364678950088652
717,0.035479658440851
718,0.035773300417395
719,0.0369755178126447
720,0.0383426110055993
721,0.0387467843129365
722,0.0405574810102392
723,0.0409028564865129
724,0.0414629635228738
725,0.0424968659426888
726,0.0431849377159975
727,0.0448440397934068
728,0.0468931787367101
729,0.0493620800041338
730,0.0522206090284996
731,0.0558921244449243
732,0.059037247616911
733,0.062482786821093
734,0.0654156196983763
735,0.0672721099955957
736,0.0696146255781032
737,0.0716714156950257
738,0.0737282058119482
739,0.0757849959288707
740,0.0785339162598017
741,0.0804215687340171
742,0.0820782492646335
743,0.08373492979525
744,0.0853916103258665
745,0.0865273215024044
746,0.0873227175759603
747,0.088351702347431
748,0.0881527525420196
749,0.0893269302902696
750,0.0899797322701702
751,0.0898201539575805
752,0.091722734450288
753,0.0911865747946762
754,0.0900461422784693
755,0.0835086935305078
756,0.0769712447825464
757,0.0704337960345849
758,0.0599035062076159
759,0.0507109066187649
760,0.0447429591192288
761,0.0436045615120953
762,0.045382541255842
763,0.0502456903214556
764,0.0568269771313453
765,0.0637188278757317
766,0.0714592928853525
767,0.0789646700450536
768,0.0833982534187389
769,0.086625173253157
770,0.0894255557300436
771,0.09074914185281
772,0.0920771600538513
773,0.0933949829914935
774,0.0928794520859555
775,0.0932980311227081
776,0.0936160036774119
777,0.0929307182555116
778,0.0939502082832814
779,0.0929758834509536
780,0.0942309437085107
