"wavelength","measurement"
380,0.0225285838275217
381,0.0216378372234515
382,0.0213808830003943
383,0.0210599149202427
384,0.021143244244059
385,0.0222691216469674
386,0.0233088087508362
387,0.024268215550401
388,0.0253282667777362
389,0.0259421302851519
390,0.0257292960810266
391,0.0255713096862368
392,0.0256101727138389
393,0.0257483812547248
394,0.0264435799584912
395,0.027923413425203
396,0.0309639310584312
397,0.0342696735536721
398,0.037575416048913
399,0.040881158544154
400,0.0426806864626798
401,0.0449879237632702
402,0.0464318696871459
403,0.0466206782785286
404,0.0467213527640435
405,0.0464755703867127
406,0.047298511859436
407,0.0473546943545158
408,0.0474664491956499
409,0.0482984495146808
410,0.050118302786675
411,0.050153108711434
412,0.051313035416913
413,0.0521379022015319
414,0.0518835896583546
415,0.0523005872300235
416,0.0516573167696048
417,0.0510782406979271
418,0.0518962695522137
419,0.0506235005881941
420,0.0517310162087298
421,0.0515025405429802
422,0.0519766908658703
423,0.0521904443117895
424,0.0523411312078731
425,0.05122761506681
426,0.0506842025516371
427,0.049193727254377
428,0.047754346971212
429,0.047761493435151
430,0.0478544634890372
431,0.0497583263677589
432,0.0515368780406377
433,0.0533344584761733
434,0.0556790665310192
435,0.0566787322093516
436,0.0572250099626541
437,0.0581416772442319
438,0.0590583445258096
439,0.0599750118073873
440,0.0603518727715155
441,0.0613707212362105
442,0.0628894315504974
443,0.0633664324114864
444,0.0644526052486319
445,0.0655387780857774
446,0.0666249509229228
447,0.067840218619389
448,0.0680896563782867
449,0.0705804255857152
450,0.070390038030904
451,0.0699123919210873
452,0.0698152914415123
453,0.0697181909619373
454,0.0696210904823623
455,0.0698575158604987
456,0.0700262807654075
457,0.070643709554026
458,0.0712675181786735
459,0.0722385182295167
460,0.0723953275802704
461,0.0716066932843548
462,0.0737909629927398
463,0.0718068765926913
464,0.0710118368768676
465,0.0704980264840143
466,0.0697601879375696
467,0.0696136871769425
468,0.0691681451667099
469,0.0687595175706957
470,0.0700933613930977
471,0.0701096277525607
472,0.0706481073498734
473,0.0714441785224684
474,0.0716701022769299
475,0.072771927695242
476,0.0713002904914276
477,0.071370268813541
478,0.0714402471356543
479,0.0715102254577677
480,0.0713843821002294
481,0.0696432678730697
482,0.0685366277838806
483,0.0682069429109335
484,0.0666401641865858
485,0.0653073092683787
486,0.0660632427677142
487,0.066684467494994
488,0.0673495316066484
489,0.0691264943406853
490,0.069668884187298
491,0.0702072449581195
492,0.0717638532228108
493,0.0710324437739266
494,0.0721665882286656
495,0.0711453464297573
496,0.0715210382813728
497,0.070268808140996
498,0.070629573690169
499,0.0690255229578452
500,0.0693278157263354
501,0.0687979239060793
502,0.0698796562901585
503,0.0700986723322847
504,0.0693253261394116
505,0.0714648133221891
506,0.071294027440513
507,0.0715910192989506
508,0.0720287780957637
509,0.0721854636059403
510,0.0710628771889438
511,0.0721197704276941
512,0.0717002976784947
513,0.0696835785498436
514,0.0693911952916345
515,0.0682462032448759
516,0.0679279087812444
517,0.0677608629525053
518,0.0676688232199905
519,0.069024826772216
520,0.0702082057430758
521,0.0709067273521754
522,0.071605248961275
523,0.0723037705703746
524,0.0719006376761318
525,0.0721293754888294
526,0.0722545329843641
527,0.0719820997942653
528,0.0723508267484531
529,0.0732527756691465
530,0.0732840116003511
531,0.0734268894476101
532,0.073272263846435
533,0.0739103229573198
534,0.0742310684620359
535,0.0734467803511004
536,0.0741797163679604
537,0.0737100869490824
538,0.0732565370863896
539,0.0727464787337899
540,0.0732082442994334
541,0.072747997256653
542,0.072228203259562
543,0.0726430842814323
544,0.0731263547873657
545,0.0727327846188218
546,0.0734012026460031
547,0.0734154315187559
548,0.0734296603915088
549,0.0734438892642616
550,0.0731387630588504
551,0.0736030453881205
552,0.0743737410229399
553,0.0737010322972089
554,0.0734716935502931
555,0.0742587022674908
556,0.0732771846875067
557,0.0732065168167748
558,0.0726450569746215
559,0.072125580888715
560,0.0729992044150889
561,0.071843131903534
562,0.073025231659814
563,0.0719092962629053
564,0.072360655379403
565,0.071371446515572
566,0.0708104079727178
567,0.070119593552489
568,0.0703759946666515
569,0.0696568926285126
570,0.0695836848483268
571,0.0698441678774072
572,0.0698876017294911
573,0.0698350250383581
574,0.0704223651239094
575,0.0695366270797038
576,0.0698852059287445
577,0.0702337847777852
578,0.0705823636268259
579,0.0709309424758666
580,0.0712795213249073
581,0.0722156055917334
582,0.0718538182762054
583,0.0722951151983354
584,0.0709043376489334
585,0.0703909454246818
586,0.0682022596191752
587,0.0668408490130185
588,0.0658834681412108
589,0.0649260872694032
590,0.0639687063975956
591,0.0641936813194954
592,0.0649216506952641
593,0.0651004836775983
594,0.0663444896590407
595,0.0664921129425177
596,0.0672033285498778
597,0.0677703908536898
598,0.0681957432061535
599,0.0685350649551533
600,0.0693071358359469
601,0.0698829729733735
602,0.0704435505642627
603,0.0702455594608651
604,0.0711522677581493
605,0.0707548301435937
606,0.0709149583656486
607,0.0706926822255466
608,0.0699461766062167
609,0.0700097932675271
610,0.069540988873316
611,0.0693183487274344
612,0.0688415171367029
613,0.0686640620276063
614,0.0680300842718819
615,0.0690476101572444
616,0.06826938454893
617,0.0689264123244693
618,0.068846152808351
619,0.0691440290296508
620,0.0689809698225152
621,0.069401740502632
622,0.0681082335016429
623,0.0679645842565489
624,0.0674817894660929
625,0.0669989946756368
626,0.0665161998851808
627,0.0662740471757256
628,0.0661045921910967
629,0.0659716986777451
630,0.0666685963409551
631,0.0659776614318838
632,0.0666188203422806
633,0.0671485805746631
634,0.0674523869036334
635,0.06804211491088
636,0.0674733133360212
637,0.0682547297847982
638,0.0680373715357294
639,0.0684002904418925
640,0.0681599003500355
641,0.0679977013358831
642,0.0675995757452534
643,0.0669042716875195
644,0.0662089676297857
645,0.0655136635720519
646,0.0656558743960417
647,0.0653303366694831
648,0.0641833675029211
649,0.0653189448695399
650,0.0649299612649225
651,0.0655112243205784
652,0.0648812214894274
653,0.0641153342737644
654,0.0630691845194853
655,0.0639060137668108
656,0.0635899190228849
657,0.0646288788930357
658,0.0655602751113256
659,0.0674011704633986
660,0.0681022278353489
661,0.0685442432412647
662,0.0689837298309643
663,0.0688750737816168
664,0.0684943611447363
665,0.0688347593936341
666,0.0690881755841146
667,0.0693157480955676
668,0.0693695773925639
669,0.0683951512723917
670,0.0686389663773917
671,0.0686933619618714
672,0.0684255595552837
673,0.0686401756060449
674,0.068855320711025
675,0.0688471391080431
676,0.0688148429918605
677,0.0693903922730752
678,0.0685678606198214
679,0.0685251781370694
680,0.0699788595630378
681,0.0687254630644984
682,0.0670640055993466
683,0.0655406534443099
684,0.062924036244761
685,0.0608332755400049
686,0.059097696393484
687,0.0575560896955981
688,0.0570704204602235
689,0.0570817586671612
690,0.0576953732219712
691,0.0586620774190113
692,0.0587544704697406
693,0.0592208595924822
694,0.0600918389220271
695,0.0602814407738595
696,0.0613750760916386
697,0.0616077506547706
698,0.0607585183596404
699,0.0609380099141724
700,0.061932811065711
701,0.061634636306984
702,0.0629438329451772
703,0.0633065175154016
704,0.064609072527708
705,0.0648873267075639
706,0.0661121783232393
707,0.0670906910573209
708,0.0673600532974229
709,0.0683588052540769
710,0.0677296494380221
711,0.0676188229909526
712,0.067344845487791
713,0.0638191667962903
714,0.0614864242039159
715,0.0571617253173665
716,0.0534366567626758
717,0.0510169578166947
718,0.0502943865904955
719,0.0505614473337558
720,0.0514464266197475
721,0.0511559198236101
722,0.0524739043965645
723,0.0521144549492389
724,0.0517764361401385
725,0.0519900409690444
726,0.0518441005310937
727,0.0529756700867125
728,0.0541104562690183
729,0.056180770850443
730,0.0584149308293155
731,0.0611774954692091
732,0.0638963356442628
733,0.066718129322263
734,0.0684866813614763
735,0.0696566192143744
736,0.0712416899089775
737,0.0724027263669287
738,0.07356376282488
739,0.0747247992828312
740,0.0766020886657349
741,0.0774793376997484
742,0.0783309356771954
743,0.0791825336546423
744,0.0800341316320892
745,0.08058395040415
746,0.0806380577719923
747,0.0812141809518278
748,0.0803870042718338
749,0.0809871239991434
750,0.081267173950984
751,0.0807846135935034
752,0.0820927968027617
753,0.0813688743286235
754,0.0800561369975394
755,0.0741534984005522
756,0.068250859803565
757,0.0623482212065777
758,0.0530924618988956
759,0.044851309019189
760,0.0394543958073616
761,0.0384946076129922
762,0.0400904285237087
763,0.0440591152366168
764,0.049816792460142
765,0.055636917085487
766,0.0622180964468424
767,0.0686610689038873
768,0.0723047429179025
769,0.0751005595731265
770,0.0774393519599504
771,0.0784160571745537
772,0.0794584072969615
773,0.0806144798616428
774,0.0801094710708019
775,0.080304720868907
776,0.0806488653999672
777,0.0798640537627553
778,0.0808700803888596
779,0.0800745031075828
780,0.0810393865849796
