"wavelength","measurement"
380,0.0258318923727985
381,0.0245314470282661
382,0.02500246427341
383,0.0238347675684065
384,0.0241823902664046
385,0.0261113422298995
386,0.0274063903559386
387,0.0289371322909158
388,0.0301142925082585
389,0.030836310292845
390,0.030715059773775
391,0.0312011880286942
392,0.0311444045346826
393,0.0318752080291013
394,0.0328182057181275
395,0.0353968591812122
396,0.039342403303416
397,0.0439822075206896
398,0.0486220117379632
399,0.0532618159552368
400,0.0560857747117971
401,0.0588911219909385
402,0.0618504171797807
403,0.0624065004586628
404,0.0630359788041339
405,0.0631746691910062
406,0.0644945271414835
407,0.0651416433821746
408,0.0655476125152519
409,0.0671333306140186
410,0.0697969244794416
411,0.0694383268653456
412,0.0715326415120616
413,0.0730346769908298
414,0.0727327077748889
415,0.0735216650772759
416,0.0731537523492936
417,0.0723393060530841
418,0.0733886688092576
419,0.0718608428278513
420,0.0733743988758125
421,0.0734358618637834
422,0.0739907971124131
423,0.0748030048794093
424,0.0753493497682117
425,0.0735417440757331
426,0.0727928202378205
427,0.0708969064031641
428,0.0689856424659466
429,0.0689914490736136
430,0.0693868732809248
431,0.0720919805073331
432,0.0749535093730795
433,0.0776518185981072
434,0.0808070058852571
435,0.0825222919111686
436,0.0835313997108951
437,0.0851775402096794
438,0.0868236807084636
439,0.0884698212072478
440,0.0887288070042211
441,0.0906211923957833
442,0.0929965516680153
443,0.0936462894341951
444,0.0954811315806401
445,0.0973159737270851
446,0.0991508158735302
447,0.10100748537776
448,0.101676259480957
449,0.105634433036192
450,0.105125260964619
451,0.104527047801603
452,0.104621723167931
453,0.104716398534258
454,0.104811073900586
455,0.104997919212281
456,0.105618229161315
457,0.106488318542842
458,0.107895364063766
459,0.109275728422656
460,0.109617331728278
461,0.108423765421187
462,0.11175826440495
463,0.109194869126406
464,0.107951591900009
465,0.107497850461586
466,0.106164942695535
467,0.106136202387583
468,0.105462536906709
469,0.105058459766914
470,0.107418236404751
471,0.10737049895813
472,0.108190832817661
473,0.109771021745456
474,0.110029643021627
475,0.112089693815874
476,0.109821129559959
477,0.110071305162845
478,0.110321480765732
479,0.110571656368618
480,0.110416064085813
481,0.108237560991663
482,0.106567988436025
483,0.105892457184255
484,0.103852697728905
485,0.10180430929282
486,0.102933074831637
487,0.104027703953831
488,0.105263178041426
489,0.108181046644086
490,0.10900355285757
491,0.110707858867174
492,0.112908938047983
493,0.112130839137126
494,0.113885483946055
495,0.11277419858572
496,0.113123774975745
497,0.111574815550769
498,0.112169440843877
499,0.109909998672579
500,0.110750005175637
501,0.109713033172947
502,0.111627574967582
503,0.112411315922508
504,0.111139802120679
505,0.114884494508567
506,0.114971749058648
507,0.115677680389513
508,0.116663526476243
509,0.116999032680314
510,0.115250103321822
511,0.117485745989088
512,0.116778215514734
513,0.113524715139766
514,0.113370745711147
515,0.111494043512223
516,0.110926446739418
517,0.110931881184305
518,0.110857847040082
519,0.113581649945026
520,0.115554877996782
521,0.11696204054468
522,0.118369203092579
523,0.119776365640478
524,0.119576639335033
525,0.119651375007231
526,0.120399963491835
527,0.119750956993604
528,0.120637561970541
529,0.12250889749
530,0.122654136896646
531,0.123112763531685
532,0.122942573721912
533,0.124154847927006
534,0.124725943696945
535,0.12358758988489
536,0.125001907632084
537,0.124338622911938
538,0.123634542907895
539,0.122907928647804
540,0.123591727845539
541,0.122791395181426
542,0.122404725216806
543,0.123205638682188
544,0.12392995310752
545,0.123297247303296
546,0.124499528841607
547,0.124762216824456
548,0.125024904807306
549,0.125287592790156
550,0.124371117161956
551,0.125543862564296
552,0.126999485194963
553,0.125927270828446
554,0.125480837818709
555,0.126991890290768
556,0.125376874027566
557,0.125312263370889
558,0.124676467180926
559,0.123820639839263
560,0.125432647509719
561,0.123280565860831
562,0.125423127556899
563,0.123687960552452
564,0.124374417799922
565,0.122746441
566,0.121703564762788
567,0.120261795008927
568,0.121394563652049
569,0.119651293337158
570,0.119656476093403
571,0.12025140525106
572,0.120523675764223
573,0.120282327502032
574,0.121405893201305
575,0.119786037699563
576,0.120528576874895
577,0.121271116050227
578,0.12201365522556
579,0.122756194400892
580,0.123498733576224
581,0.125177073303964
582,0.124667385627984
583,0.125484229029144
584,0.123003931210584
585,0.121856054473624
586,0.118193930155427
587,0.115445623043032
588,0.113682797529656
589,0.111919972016281
590,0.110157146502906
591,0.110642328202438
592,0.111930164418773
593,0.112466178570833
594,0.114900016325465
595,0.114746904258069
596,0.116315144650411
597,0.117510540708422
598,0.118121547784461
599,0.118861690946473
600,0.120374236787849
601,0.121567512129386
602,0.122653873728796
603,0.12225823402662
604,0.123928492848808
605,0.123246212254064
606,0.123584860153593
607,0.123100561569414
608,0.1219158365637
609,0.121973200750067
610,0.121444098105139
611,0.1208423450129
612,0.119832517443904
613,0.119761617375875
614,0.118457891431073
615,0.120766536970945
616,0.119046752182905
617,0.12021791138214
618,0.12019285964538
619,0.120755038327845
620,0.120424599221555
621,0.121059544820732
622,0.118834614449728
623,0.118559752994847
624,0.11765616099974
625,0.116752569004632
626,0.115848977009525
627,0.11526564234649
628,0.115025807087154
629,0.114956518407883
630,0.116279251001343
631,0.115227311101246
632,0.116190700108684
633,0.116981662541909
634,0.117616094355178
635,0.118233761649271
636,0.117648677163807
637,0.119263764530158
638,0.118725252681048
639,0.119345786357063
640,0.118785878806234
641,0.118657259379706
642,0.118069154161241
643,0.116759832328719
644,0.115450510496197
645,0.114141188663675
646,0.114124615496592
647,0.11390538874681
648,0.11171264142808
649,0.113876865721956
650,0.113138510767421
651,0.114026986129258
652,0.113091401948468
653,0.111669312568037
654,0.109893993012108
655,0.111433809562596
656,0.110720143031261
657,0.112656058947207
658,0.114107216115351
659,0.1175702882145
660,0.118988076903475
661,0.119847973526267
662,0.120528625850849
663,0.120413076851482
664,0.119955382946171
665,0.120509846963744
666,0.120555196831937
667,0.120979361932148
668,0.121337410953132
669,0.119353433070087
670,0.120168524089143
671,0.119913661396145
672,0.11969256136089
673,0.120000776949223
674,0.120349874171018
675,0.120438597618207
676,0.120432677709827
677,0.121325217798592
678,0.119948977022426
679,0.119894166791516
680,0.122423034751682
681,0.120086112946102
682,0.117482280605132
683,0.11466988209964
684,0.109818792835675
685,0.106394645733824
686,0.103090266577405
687,0.100402231631964
688,0.0997294377920454
689,0.0994738418978483
690,0.101034509975312
691,0.102389427943484
692,0.102730836284558
693,0.103299833391748
694,0.105208921230259
695,0.105312145517137
696,0.107163799546165
697,0.1078928468027
698,0.106262877499701
699,0.10642880535174
700,0.108214846924603
701,0.107878967853154
702,0.109850789641436
703,0.110864355870872
704,0.113009721636442
705,0.113263289226791
706,0.115409294952163
707,0.117059415185901
708,0.117578349818403
709,0.119415209079644
710,0.118233007717825
711,0.117492792493363
712,0.117183152933257
713,0.110930098955575
714,0.106902004262701
715,0.0989711412801718
716,0.0921568459184843
717,0.0875568242153811
718,0.0865184761450115
719,0.0871880163120039
720,0.0882742322964408
721,0.0876458464970019
722,0.0900233621746659
723,0.0887277484127096
724,0.0885399074441508
725,0.0885485069259208
726,0.0883519119458552
727,0.090207528569419
728,0.0918548253056246
729,0.0953154963009058
730,0.0987646101860657
731,0.103629315466687
732,0.108207465996705
733,0.112804025188068
734,0.11579917943229
735,0.11798483574901
736,0.120704460343694
737,0.122465963069143
738,0.124227465794592
739,0.125988968520041
740,0.129264908588391
741,0.130365104396553
742,0.131899977616304
743,0.133434850836055
744,0.134969724055807
745,0.135372338923807
746,0.13511932986766
747,0.136352592729575
748,0.135120171098307
749,0.135861615297199
750,0.136154714039126
751,0.135468454304587
752,0.137195536898853
753,0.136145715164321
754,0.133900570038
755,0.124092257021914
756,0.114283944005829
757,0.104475630989743
758,0.0886238173142124
759,0.0747152710764759
760,0.0660418677280309
761,0.0642870751846692
762,0.0668326070170066
763,0.0736962723299378
764,0.0830382459930883
765,0.0928649231855075
766,0.103979147220225
767,0.114589638015563
768,0.120550264609758
769,0.125160939769622
770,0.129231330192482
771,0.130860660987715
772,0.132617196398599
773,0.134759909765831
774,0.133744943600908
775,0.134210080194292
776,0.134552361286276
777,0.133302941964836
778,0.135201388487392
779,0.133743318715724
780,0.135040809426984
