"wavelength","measurement"
380,0.0173666645244608
381,0.0165852737854893
382,0.0163147410215626
383,0.0159830058360082
384,0.0162723933567066
385,0.0168604584022698
386,0.0176219830325735
387,0.018285181113073
388,0.0190259093768304
389,0.0194443102725636
390,0.0191951576840899
391,0.0190879105269143
392,0.0189567360882073
393,0.019172467025378
394,0.0194526568378477
395,0.0203685032940466
396,0.022490960716234
397,0.0248467830318123
398,0.0272026053473905
399,0.0295584276629688
400,0.0307621155432941
401,0.0323683993359504
402,0.0334250596030155
403,0.0333838907148895
404,0.0335217256510035
405,0.0334442950268592
406,0.0340035926272494
407,0.0341406376312697
408,0.0342307609328929
409,0.0347656561396772
410,0.0360046532617018
411,0.0359695010158823
412,0.0371545419674269
413,0.0373805783233645
414,0.0372608606214291
415,0.0374773499594955
416,0.0371245690797786
417,0.0365668525849283
418,0.0372554776190268
419,0.0362022356086517
420,0.0370053633840354
421,0.0367795720142606
422,0.0370362270674807
423,0.0370412655012715
424,0.037066792165065
425,0.0361934794402792
426,0.035773371323402
427,0.0346417131350139
428,0.0335700219797584
429,0.033498675118963
430,0.0334887267731557
431,0.0346859408125451
432,0.0356550283880911
433,0.0368325858349662
434,0.0383325662463316
435,0.0388951062468345
436,0.039136921176288
437,0.039619531620936
438,0.040102142065584
439,0.040584752510232
440,0.0406703892874813
441,0.0412560843520486
442,0.0421430760760085
443,0.0424837976574774
444,0.0430150513421248
445,0.0435463050267722
446,0.0440775587114197
447,0.0446806343091158
448,0.0449729743506876
449,0.0464506964353756
450,0.045888151980202
451,0.0455802842776229
452,0.0454164633112813
453,0.0452526423449397
454,0.0450888213785981
455,0.0447586993212954
456,0.04495626706032
457,0.0453309486621224
458,0.0454890840589449
459,0.0462284975522438
460,0.045996874262221
461,0.0456825566047244
462,0.0464976543446147
463,0.0453737692457001
464,0.0448531759827333
465,0.0444785072791869
466,0.0437516739797595
467,0.0436931296255847
468,0.0431794705588206
469,0.0429490461098986
470,0.043713954772883
471,0.0436962457563846
472,0.0438755791235994
473,0.0442809254589336
474,0.0442650310056369
475,0.0448142652513369
476,0.0439752568035475
477,0.04394508844009
478,0.0439149200766324
479,0.0438847517131749
480,0.043728700174186
481,0.0426755135841187
482,0.0418669885092087
483,0.0414778339165596
484,0.0406454077923902
485,0.039637542530609
486,0.0400716446526386
487,0.0403240082317263
488,0.0406631224130616
489,0.0417303064691667
490,0.0418460934989659
491,0.0421278767295692
492,0.0430183403100154
493,0.0424660094582258
494,0.043195147110821
495,0.0424771013810109
496,0.042593972493082
497,0.041861102677296
498,0.0417484934215329
499,0.0408017550308933
500,0.0409300362304497
501,0.0403657835627325
502,0.0410041737139089
503,0.0411260026890238
504,0.0404768363876197
505,0.0417092593835462
506,0.0415148394008465
507,0.0417273554135571
508,0.0419946093228813
509,0.0420004184821593
510,0.0411819702031179
511,0.0419414401043511
512,0.0415101580753142
513,0.0402416791652543
514,0.0400448242633494
515,0.0393337253593371
516,0.0390901100519203
517,0.0389793529794913
518,0.038820632913821
519,0.0395766107485891
520,0.0402412486029514
521,0.0406229530811186
522,0.0410046575592858
523,0.041386362037453
524,0.0411731598326629
525,0.0411697007830624
526,0.0413069017754828
527,0.0409942505686179
528,0.0412716400515863
529,0.0416716557284217
530,0.0416439078729732
531,0.0417245251284554
532,0.0415391319242417
533,0.0419738462246759
534,0.0420097777052099
535,0.0415202339877324
536,0.0418454056837123
537,0.0416170635456293
538,0.0411768075351264
539,0.0407690272793262
540,0.0409620079891261
541,0.0405522984478372
542,0.0401331326216663
543,0.0405144434149826
544,0.0406303650628446
545,0.0402612035798221
546,0.0406317358373742
547,0.0405941932232184
548,0.0405566506090626
549,0.0405191079949068
550,0.0401167770608798
551,0.0404999006005037
552,0.0407943656480525
553,0.0404676926420236
554,0.0401834744433647
555,0.0405775307813994
556,0.0398443876201764
557,0.0398482844356209
558,0.0393993141798376
559,0.0389300300729252
560,0.0394521944191369
561,0.038668826121414
562,0.0392495371409545
563,0.0385112982209184
564,0.038656294379993
565,0.0379785736743683
566,0.0376898464121414
567,0.0370203779601651
568,0.0371394534811525
569,0.0366399799349622
570,0.036471811342869
571,0.0365049961036355
572,0.036508582878366
573,0.036412139833493
574,0.0366082186269785
575,0.0361176083364428
576,0.0362875685926761
577,0.0364575288489094
578,0.0366274891051427
579,0.0367974493613759
580,0.0369674096176092
581,0.0373981080838573
582,0.0371795282761136
583,0.0372863562130357
584,0.0364776385403527
585,0.0362586319815644
586,0.0349213330559954
587,0.0340236821827159
588,0.0334642011166943
589,0.0329047200506728
590,0.0323452389846512
591,0.0323829666764653
592,0.0327961303520601
593,0.0328115069856974
594,0.0334830017682553
595,0.0334634048853704
596,0.0339439446878633
597,0.0342491648628215
598,0.0344360424916807
599,0.0347227645370817
600,0.035152230401239
601,0.0354149663825669
602,0.0357817947316817
603,0.0355263783977934
604,0.0360627211191044
605,0.0357513059134869
606,0.0359491267912135
607,0.03572775083335
608,0.0352310285267921
609,0.0353217508451487
610,0.0350140737557001
611,0.0348109129189787
612,0.0345416723886088
613,0.0345402422791756
614,0.034047319345185
615,0.0345576793938115
616,0.0341339199197362
617,0.0342916745285905
618,0.034352273287387
619,0.0344851030625243
620,0.0343260817634014
621,0.0344413649708617
622,0.033813389864651
623,0.0336922890041404
624,0.0333812566544163
625,0.0330702243046923
626,0.0327591919549682
627,0.0326685303881376
628,0.0324247362394706
629,0.0324791983332455
630,0.0328440448663003
631,0.032431622039778
632,0.0327397278508685
633,0.0330148229009624
634,0.0332298324871239
635,0.033229850158724
636,0.0331496685301211
637,0.0335343215512155
638,0.0333714556497888
639,0.0335962512523963
640,0.033368855355036
641,0.0333229130495339
642,0.0330649466420396
643,0.0326543248888441
644,0.0322437031356487
645,0.0318330813824533
646,0.0318085097236802
647,0.0315815196698305
648,0.0310995246653816
649,0.0316542018523239
650,0.0314256763318155
651,0.0315992329940305
652,0.031316404298909
653,0.0310219277512146
654,0.0304287848841803
655,0.0309009493198465
656,0.0307256982392173
657,0.031302707876115
658,0.0316640636284109
659,0.0325935971552818
660,0.0328554424293329
661,0.0331782722920191
662,0.033326927709001
663,0.0331825479748519
664,0.0330938622403163
665,0.0332098821546232
666,0.0334350890739214
667,0.0334437753154842
668,0.0333470479384927
669,0.0329401550796509
670,0.0330602805173563
671,0.0330654058383019
672,0.0328418550675261
673,0.0330089077311725
674,0.0331171812923234
675,0.033145705040648
676,0.0330507239242238
677,0.0333357926677826
678,0.0330280287108515
679,0.0329367695896964
680,0.0336325181816256
681,0.0329693689756098
682,0.0321563938801278
683,0.0313861954605566
684,0.0302378984992512
685,0.0291621808379383
686,0.0281055341199897
687,0.0274961353972684
688,0.0272298717741741
689,0.0272793176878644
690,0.0276770415686285
691,0.0281650205439173
692,0.0282956931107006
693,0.0285415769249337
694,0.0290447275447627
695,0.0292618739812797
696,0.0298879859179489
697,0.030070903115156
698,0.0297155986940439
699,0.029928152384799
700,0.0306449664492546
701,0.030483312926378
702,0.031416665111028
703,0.0317785282430095
704,0.0326310115918253
705,0.0329302086600465
706,0.0335761495039676
707,0.0342758354260639
708,0.0346999148763067
709,0.0352611058326169
710,0.0350337719780636
711,0.0352276083897811
712,0.0351483527898918
713,0.0334228610735098
714,0.0323065938933489
715,0.0300944889402646
716,0.0282272950395718
717,0.0270822616799573
718,0.0269019682902379
719,0.0272108389462635
720,0.0278310248292775
721,0.0278432228477417
722,0.028729797800871
723,0.0285402387669729
724,0.0286512701061503
725,0.0287759716745219
726,0.0289528061327041
727,0.0297614876560191
728,0.0305683540412952
729,0.0320392316883707
730,0.0334555699936344
731,0.0354208656496987
732,0.0372197388436065
733,0.0389033957339807
734,0.0402655020186101
735,0.0413633543470224
736,0.042361416103025
737,0.0433437867121072
738,0.0443261573211894
739,0.0453085279302716
740,0.0464914586996693
741,0.047360913053875
742,0.048016040776541
743,0.0486711684992069
744,0.0493262962218729
745,0.0500163611699579
746,0.0499603762997543
747,0.0504683792815339
748,0.0501095232381384
749,0.0507059521520863
750,0.0507989225723286
751,0.0505505146663766
752,0.0515569894922127
753,0.0511301801979328
754,0.0503481960424124
755,0.0465914344301214
756,0.0428346728178303
757,0.0390779112055393
758,0.0332584167320897
759,0.0279962697167664
760,0.0245603000138641
761,0.0238854172029999
762,0.0247316217656525
763,0.0272435988102866
764,0.0307298214534786
765,0.034665485252234
766,0.0389651770732574
767,0.0428380831432456
768,0.0457161561933729
769,0.0474584321523081
770,0.0490504987197628
771,0.0496416420327099
772,0.0503806430001644
773,0.0511530413222358
774,0.050955515751699
775,0.050975409249423
776,0.0511467788054693
777,0.0508686170519633
778,0.0515205503296992
779,0.0508176560379981
780,0.0514942723944785
