"wavelength","measurement"
380,0.0138647673166257
381,0.0133522149947738
382,0.0130669863936497
383,0.0129291945950987
384,0.0128613400071755
385,0.0135227809347938
386,0.0142282066323524
387,0.0147361417987759
388,0.0154579428235515
389,0.0157519849132117
390,0.0156030134849938
391,0.0154444563471131
392,0.0152986198653941
393,0.0154093591093477
394,0.0154809170124665
395,0.0163947831541388
396,0.0180910862337178
397,0.0199317272172852
398,0.0217723682008526
399,0.02361300918442
400,0.0246550907515433
401,0.0259017434370611
402,0.0265335594702007
403,0.0265082529867858
404,0.0265208242960034
405,0.0263121727376704
406,0.0266164813431126
407,0.0268655648803371
408,0.0268511401765862
409,0.0272662352668382
410,0.0282628764007133
411,0.0284120709052456
412,0.0291139750179869
413,0.0297301688131409
414,0.0295926613675528
415,0.0299007354054934
416,0.0295444141919827
417,0.0294425778046415
418,0.0298883377231531
419,0.0292170918569316
420,0.0299115831562474
421,0.0299026467235171
422,0.0302034559588084
423,0.0303362660930668
424,0.0306083018736311
425,0.0299566282804398
426,0.0296189322355138
427,0.0289846406628914
428,0.0280838311159429
429,0.0281490060133871
430,0.0280415242403448
431,0.0291096989970962
432,0.0303401830698302
433,0.0312934651821326
434,0.0326617298288062
435,0.0332763566561122
436,0.0336625751244128
437,0.0341965216615645
438,0.0347304681987161
439,0.0352644147358677
440,0.0354858535677303
441,0.0359990759991975
442,0.0371044474438055
443,0.0373768759839196
444,0.0379684540264841
445,0.0385600320690486
446,0.0391516101116131
447,0.039699077714862
448,0.040112581887137
449,0.0414543539407399
450,0.0413275199657336
451,0.0411033860649159
452,0.0410872529468556
453,0.0410711198287953
454,0.041054986710735
455,0.0410877423357753
456,0.0410973073243769
457,0.0416431130517494
458,0.0419566054366511
459,0.0426332852837768
460,0.042718358934414
461,0.0422634284393193
462,0.0435591302815358
463,0.0423838865061945
464,0.0420117880477835
465,0.0417442436941174
466,0.0412418179952478
467,0.041194148859173
468,0.0409031205991732
469,0.0406770248211102
470,0.0414387483130915
471,0.0415866319025255
472,0.0418165413647137
473,0.0424123811743623
474,0.0424945644642356
475,0.0430686823866839
476,0.0423803494564363
477,0.0424332158916014
478,0.0424860823267666
479,0.0425389487619317
480,0.0423988210635189
481,0.0414578325997887
482,0.0408758395815812
483,0.0407091684070726
484,0.0397035686710034
485,0.0389063584519201
486,0.0392760979153401
487,0.0396369278859114
488,0.0400582317682835
489,0.0412895927416243
490,0.0414726881780726
491,0.0419468590452509
492,0.0429294733532404
493,0.0425390893386506
494,0.0431957053360679
495,0.0427515311579966
496,0.0430499152104588
497,0.0423409530263874
498,0.0425674722768251
499,0.0416148444883613
500,0.0418895441229369
501,0.0415315089381429
502,0.0422281737810996
503,0.0424478237731287
504,0.0420841355975205
505,0.0435332577143262
506,0.0434692158014765
507,0.0438090576113845
508,0.0442021401166569
509,0.0443944452351636
510,0.04384505386345
511,0.0446864945045976
512,0.0445473749870916
513,0.0434278413257133
514,0.043308398523383
515,0.0426909056831776
516,0.0425861631012431
517,0.0427347273935383
518,0.0427849767187695
519,0.0438457898140147
520,0.0448606338372719
521,0.0455344354193558
522,0.0462082370014398
523,0.0468820385835238
524,0.0467964276655077
525,0.0470855654265007
526,0.0473623071422004
527,0.0472310115171999
528,0.0476505504841417
529,0.0484691680253289
530,0.0486362886762816
531,0.0488555921552378
532,0.0488067447622697
533,0.0493243388813358
534,0.0495143474548293
535,0.0491476424112956
536,0.0496862251274964
537,0.0495005717690431
538,0.0491943239729858
539,0.0488524159323605
540,0.0492322667692207
541,0.0488416399218137
542,0.0485879380724837
543,0.0489529018398337
544,0.0493300181499579
545,0.0489818168790436
546,0.0494899817349558
547,0.049521845425852
548,0.0495537091167482
549,0.0495855728076445
550,0.049313513327819
551,0.0497854279760711
552,0.0502379496819094
553,0.0497812161337714
554,0.0496298824112713
555,0.0501850284613863
556,0.0495033963067967
557,0.0493767446369216
558,0.0489912863235774
559,0.0485955364721709
560,0.0491980361025157
561,0.0482884515342138
562,0.0491126243861163
563,0.048261002613838
564,0.04842097566935
565,0.047591708021858
566,0.0472703053465676
567,0.046538869687903
568,0.0466814499976631
569,0.046025065139354
570,0.0458613354896303
571,0.0459308318697491
572,0.0458339054745277
573,0.0457330704515689
574,0.0460305943690521
575,0.0454156129146396
576,0.0455875947587029
577,0.0457595766027661
578,0.0459315584468294
579,0.0461035402908927
580,0.046275522134956
581,0.0467853357011167
582,0.0465476201241234
583,0.0468046034748459
584,0.0458550265984875
585,0.0455193512336964
586,0.0439174576327922
587,0.0429381553500528
588,0.0422072514621503
589,0.0414763475742478
590,0.0407454436863453
591,0.0409516149156494
592,0.0413830401271911
593,0.0416158216867248
594,0.0423504988505701
595,0.0422612070497129
596,0.0428378078921022
597,0.0432903723718824
598,0.0435548622326772
599,0.0437916300264702
600,0.0442785238241345
601,0.0446801667218839
602,0.0451471877561932
603,0.0449625172534431
604,0.045413309133986
605,0.0452287287521922
606,0.0453989377370535
607,0.0451259805519109
608,0.0445869376910362
609,0.0446775384102472
610,0.0443183938918299
611,0.0441099791088369
612,0.0437185997558502
613,0.0435930716716786
614,0.0431302912720663
615,0.0436753737442911
616,0.0431023188154063
617,0.0435376736910494
618,0.0434450141142174
619,0.0436817565818159
620,0.0435293748318042
621,0.0438150826419679
622,0.0429877583820628
623,0.0428845195937866
624,0.0425438118617478
625,0.0422031041297089
626,0.04186239639767
627,0.0417449621583785
628,0.0416433845665192
629,0.0414839294993122
630,0.0419649784357829
631,0.041524365263635
632,0.0418726010301749
633,0.0422113684793615
634,0.0424282205382061
635,0.0426162433844867
636,0.0423907209773515
637,0.0428094606963964
638,0.0425064028846389
639,0.0427580899351133
640,0.0425346943078571
641,0.0424176714897295
642,0.0420909241265841
643,0.04162151777451
644,0.0411521114224359
645,0.0406827050703618
646,0.0405758003998872
647,0.0403230267272553
648,0.03948226075426
649,0.0402290737558212
650,0.0398376343836636
651,0.0403337647367831
652,0.039914735045105
653,0.0393876679997222
654,0.0387637508231612
655,0.0392146922282122
656,0.0388887561357702
657,0.0395196718431994
658,0.0400845261273188
659,0.0412399590990151
660,0.0416141211564296
661,0.0419428432162571
662,0.0421006193872642
663,0.0419574864312127
664,0.0416885284916191
665,0.0419684622664406
666,0.0418584849938755
667,0.0421087499379694
668,0.0421936983699529
669,0.0414020465134142
670,0.0416925918052995
671,0.0415906290606595
672,0.0415454722661307
673,0.0415894539742823
674,0.0417559853230091
675,0.0416629391822147
676,0.0417626577391438
677,0.0420780664110034
678,0.0415872071153627
679,0.0416766027398466
680,0.0425377342246474
681,0.0419000955932308
682,0.0409932228810248
683,0.0401781072205115
684,0.0387039225861118
685,0.0375107533213517
686,0.0365545522361396
687,0.0356563072389561
688,0.0355848390138591
689,0.0358084581387218
690,0.0364535070356586
691,0.0374779839790599
692,0.0377668899376536
693,0.0384572363573022
694,0.0394407182887106
695,0.0400124675197376
696,0.0411498279504804
697,0.0420415616105261
698,0.0418926925828749
699,0.0425197841936785
700,0.0437425624992558
701,0.0440799714687942
702,0.0456141043338809
703,0.046362660113759
704,0.0479961229567597
705,0.0488086168768239
706,0.0502822417057747
707,0.0515717713096259
708,0.0525047087667931
709,0.0538283874777015
710,0.0539993558372235
711,0.0547396617054864
712,0.0551555388566567
713,0.0530985611919818
714,0.0516466600617163
715,0.0485965314019564
716,0.0460040633183434
717,0.0442439777882986
718,0.0441755031356522
719,0.0450223631944479
720,0.0463903730287347
721,0.046709476233081
722,0.0487674532335223
723,0.0488660484989237
724,0.0491359744460291
725,0.0499489144421351
726,0.0504303698675525
727,0.0519850738042617
728,0.0536956030434527
729,0.0562707932813167
730,0.0591406981036907
731,0.0626927554760197
732,0.0660255241169251
733,0.0695660800722883
734,0.072308447938909
735,0.0740991723828223
736,0.0764020831349833
737,0.0782736054737607
738,0.080145127812538
739,0.0820166501513154
740,0.0846701421594468
741,0.0862091028454593
742,0.0877152645778289
743,0.0892214263101984
744,0.0907275880425679
745,0.0916624467557988
746,0.0922156049302433
747,0.0932642477462933
748,0.0926648851424584
749,0.0936875228260551
750,0.0938778990683356
751,0.0939917151444222
752,0.0954273692469478
753,0.0948226730995645
754,0.0941358672339536
755,0.0875502490650724
756,0.0809646308961912
757,0.0743790127273101
758,0.0637330848582075
759,0.0537584694370027
760,0.0467843807839018
761,0.045239467728316
762,0.0470690405344246
763,0.0517294324892204
764,0.0585714293364758
765,0.0654191037903039
766,0.0734444779861836
767,0.0813481886140312
768,0.0860351941971152
769,0.0895973409157197
770,0.0922453727720497
771,0.093682765233874
772,0.0949813467813989
773,0.0963273490728099
774,0.096014100481496
775,0.096251432964265
776,0.0966009758837071
777,0.0955558393882791
778,0.0970569430886054
779,0.0959791961822946
780,0.097164364728053
