"wavelength","measurement"
380,0.00232568837462619
381,0.00223239241844201
382,0.0021589033278452
383,0.00213662756621685
384,0.00222473722795074
385,0.00231524781368454
386,0.00241430971044936
387,0.00250514689361268
388,0.00254878310969849
389,0.0026662935783658
390,0.00267004837625582
391,0.00270983502949169
392,0.00270094044325949
393,0.00271939458835164
394,0.00283883696016697
395,0.00299429643786798
396,0.00328233594689964
397,0.00362175395802073
398,0.00396117196914183
399,0.00430058998026292
400,0.00457077116943682
401,0.00479003664620902
402,0.00494384761136154
403,0.00500438847098879
404,0.00504229022167352
405,0.00506776177865206
406,0.00515504353956819
407,0.00526235866516474
408,0.00528166418658357
409,0.00535492526543828
410,0.00568031588613885
411,0.00563049096004839
412,0.00588878872814323
413,0.00610507286053104
414,0.00609899284304009
415,0.00628810691960431
416,0.006326620238009
417,0.00635994021007494
418,0.00655683047169409
419,0.00645968331438923
420,0.00667566644045883
421,0.00670019050556
422,0.00683690346976715
423,0.00694791783772857
424,0.00706631254034239
425,0.00692011901195607
426,0.00686590777291931
427,0.00676896837470671
428,0.0065457910901676
429,0.00663850086691803
430,0.00666994439538475
431,0.00696788395470197
432,0.0072281589349484
433,0.00747778648828664
434,0.00781204965446993
435,0.0079912243363434
436,0.00805996750110309
437,0.00824699998638837
438,0.00843403247167365
439,0.00862106495695892
440,0.00867217133038184
441,0.00884671749574039
442,0.00903934903957021
443,0.00916120961908504
444,0.00934097388803006
445,0.00952073815697508
446,0.00970050242592009
447,0.00983777888152833
448,0.00990342612611973
449,0.0102225468081409
450,0.010176402420091
451,0.0100009138033184
452,0.0099446629562833
453,0.00988841210924824
454,0.00983216126221318
455,0.0098076667421676
456,0.00979082594030471
457,0.00985509648314935
458,0.00987658182669408
459,0.0099719283727138
460,0.00996147710084454
461,0.00987552032200113
462,0.0101777409429273
463,0.00988927368767559
464,0.00975904471168446
465,0.00970945249271286
466,0.00953688523674787
467,0.0094876327105888
468,0.00943285289572267
469,0.00938059247769383
470,0.00949692243384969
471,0.00950457768378804
472,0.00954872010496185
473,0.00962350139550406
474,0.00968413972547358
475,0.0097924801166534
476,0.00961016921628834
477,0.00960298449666413
478,0.00959579977703992
479,0.00958861505741571
480,0.00951611504320959
481,0.0093396215157987
482,0.00919201840516736
483,0.00912145793065681
484,0.00890648914150045
485,0.00871451903866414
486,0.0087788999235261
487,0.00887399132806882
488,0.00893312453167788
489,0.00917316921496868
490,0.00922759534992029
491,0.00932382625345828
492,0.00948208437643625
493,0.00945415966391927
494,0.0095769907976157
495,0.00944697781746457
496,0.00948195813741369
497,0.00932000785467563
498,0.00939580145694354
499,0.00919443599132946
500,0.00925109240564002
501,0.00918190031414963
502,0.00929639386860243
503,0.00939932400282748
504,0.0092788449384761
505,0.00963097343483561
506,0.00957086911487347
507,0.0096860664290537
508,0.00977598858138775
509,0.00981417662815952
510,0.00967554130754418
511,0.0098462432568607
512,0.00985100037525578
513,0.00959416959250924
514,0.00957657863330286
515,0.00942282076935197
516,0.00943225729567614
517,0.00944025533650592
518,0.00946104574960897
519,0.00966834384820274
520,0.00988414125031607
521,0.0100285804494391
522,0.0101730196485622
523,0.0103174588476852
524,0.0102915567901246
525,0.0103711236550519
526,0.0104332170248788
527,0.0103421203552243
528,0.0104851227860819
529,0.0106537914821774
530,0.010678383594362
531,0.0107179980155764
532,0.0107178737694096
533,0.0108401133475864
534,0.0108750522867544
535,0.0107870742202822
536,0.0109036063732704
537,0.0109023793634992
538,0.010780859221863
539,0.0107592067291877
540,0.0108161401208536
541,0.0107398353053614
542,0.0106704713394547
543,0.0107278902274977
544,0.0107906195311497
545,0.0107538179113004
546,0.0108300739910592
547,0.0108399355355308
548,0.0108497970800025
549,0.0108596586244742
550,0.0108321119855767
551,0.0108673239082889
552,0.0110304925071625
553,0.0109256493356253
554,0.0108554019482497
555,0.0109406098197269
556,0.0108048448747091
557,0.0107894045627897
558,0.0107225117390453
559,0.0106190647584307
560,0.0107064319791603
561,0.0105123044272282
562,0.010703775510534
563,0.0105106387442622
564,0.0105248315019857
565,0.0103340242811524
566,0.0102614419494366
567,0.0100969071084188
568,0.0101212456893009
569,0.009947561348171
570,0.00993341915988962
571,0.00993687469099928
572,0.00991735681208526
573,0.0099047135665807
574,0.00995285307189813
575,0.00977096433224216
576,0.00981935204712225
577,0.00986773976200233
578,0.00991612747688242
579,0.00996451519176251
580,0.0100129029066426
581,0.0101509265489472
582,0.0100928678116964
583,0.0101470562429194
584,0.00997870717694379
585,0.00986273354292516
586,0.00949868139403631
587,0.0093019503661719
588,0.00914565142076087
589,0.00898935247534983
590,0.0088330535299388
591,0.00890310868628841
592,0.00897932646155857
593,0.00900067492178659
594,0.00915740760144014
595,0.00914229044539815
596,0.00927809746455469
597,0.00936102621104826
598,0.00942681847491566
599,0.00950252990249624
600,0.00960105850342817
601,0.00968376283944415
602,0.00974813252302779
603,0.00973907767902944
604,0.00983627035888358
605,0.00975895374340533
606,0.00979540480795847
607,0.00976990622938209
608,0.00962752180255074
609,0.00967544464372849
610,0.00955328702299168
611,0.00947573100009986
612,0.00943244769305283
613,0.00942400088617847
614,0.00927019733312803
615,0.00939082633504182
616,0.00927368149698616
617,0.0093893647864639
618,0.00937988418247398
619,0.00938826706441244
620,0.00938266285509421
621,0.00942449465326617
622,0.00923541187741004
623,0.00923046008229829
624,0.00914225730596543
625,0.00905405452963257
626,0.00896585175329971
627,0.00896349678410002
628,0.00893876774108843
629,0.00888379613877743
630,0.00903267685716429
631,0.00892171785797152
632,0.00900024095475825
633,0.00906323511482843
634,0.00910925537385858
635,0.00919576524546647
636,0.00911722776290011
637,0.00922552579923208
638,0.00915152495083713
639,0.00922257395933694
640,0.00916330061690011
641,0.00914980003952491
642,0.00903392148066609
643,0.00893048654357992
644,0.00882705160649374
645,0.00872361666940757
646,0.00872629574478146
647,0.00867550242058035
648,0.00850927186482553
649,0.00869410431311618
650,0.00860271380920255
651,0.00867765705727237
652,0.00864121478533665
653,0.00849163849110632
654,0.00835626751457898
655,0.00847674100115734
656,0.00841074104268593
657,0.00855695778270648
658,0.00868825092166818
659,0.00890444434735912
660,0.00904034782736979
661,0.0090709000247848
662,0.00910230252312061
663,0.00905806547515002
664,0.00904518126766263
665,0.00911801007221879
666,0.00907955785331011
667,0.00913758491702735
668,0.00914840967666227
669,0.00900358681400119
670,0.00904722919043617
671,0.00898745641112648
672,0.0090087096448114
673,0.00903366899035922
674,0.00902615065666476
675,0.009061154140181
676,0.00904364591484241
677,0.00913243283644376
678,0.00902046412311191
679,0.00905059834097547
680,0.00923656089685427
681,0.00911050412600233
682,0.00889875499032694
683,0.00869229786481512
684,0.00838312724274732
685,0.00813248553492781
686,0.00792835448027494
687,0.0077393939208214
688,0.00771016315717357
689,0.00774639500052405
690,0.00790940100284848
691,0.00807607061509003
692,0.00819913018599467
693,0.00835270075519294
694,0.00850587350472909
695,0.00864071055668317
696,0.00891205339944101
697,0.00905981278814319
698,0.00898097593710829
699,0.00915269934368484
700,0.00941974792556386
701,0.00950745491483954
702,0.00985320569174684
703,0.0100478958236434
704,0.0104104286182986
705,0.0106072146005819
706,0.0109408348726189
707,0.0112354873168798
708,0.011452805709142
709,0.0117775779367285
710,0.0118298838517371
711,0.0119744258840007
712,0.0120825049352358
713,0.01162091260917
714,0.0113495077700789
715,0.0106753937527305
716,0.0101625923527635
717,0.00979377682683456
718,0.00979985072963497
719,0.0100287668813421
720,0.010370588583948
721,0.0104107652446381
722,0.0109279855459034
723,0.0109340951410461
724,0.0110749392407422
725,0.0112959842428439
726,0.011447696049012
727,0.0118513025732771
728,0.0123191712527759
729,0.0129450825723614
730,0.0136681684001226
731,0.014570965884766
732,0.0153688704253522
733,0.0162256713213814
734,0.0169334864842295
735,0.0174744753754967
736,0.0180114194926613
737,0.0185126205770539
738,0.0190138216614465
739,0.019515022745839
740,0.0202162601191758
741,0.0206252833291697
742,0.0210173719586101
743,0.0214094605880504
744,0.0218015492174908
745,0.0220584046176694
746,0.0222386604543165
747,0.022502808915326
748,0.0224463105541268
749,0.022726302746294
750,0.0228271987949404
751,0.0228183617293927
752,0.0232547122965082
753,0.0230993592218159
754,0.0228091732771196
755,0.021164840149447
756,0.0195205070217743
757,0.0178761738941016
758,0.0152185836915045
759,0.0128522675443516
760,0.0113000974029874
761,0.011024413030981
762,0.0114409138051588
763,0.0127398081404903
764,0.014415184637507
765,0.0161228364357469
766,0.0180907780610337
767,0.0200505059297966
768,0.021170725640006
769,0.0220749188532743
770,0.0226727853897801
771,0.0230060068552951
772,0.0234006422520532
773,0.0237075924788526
774,0.0236820353872936
775,0.0236931315268611
776,0.0238487821012885
777,0.0235434439987512
778,0.023928796257157
779,0.0236736324521044
780,0.0238858002720006
