"wavelength","measurement"
380,0.00897098965840113
381,0.00858552162313285
382,0.00833343309075444
383,0.00820192625048587
384,0.00818147831749235
385,0.008559950173082
386,0.00888654098730749
387,0.00923720476761605
388,0.00955483266746342
389,0.00962889160395282
390,0.00946739823414105
391,0.00942120995123619
392,0.00925949822668751
393,0.00923945682420321
394,0.00922097763750413
395,0.00971683701657469
396,0.0106959535748802
397,0.0116459576750261
398,0.012595961775172
399,0.013545965875318
400,0.0141555682318633
401,0.0146852523602908
402,0.0151112908445904
403,0.0150412068332603
404,0.01490269141013
405,0.0147771129871549
406,0.0147529086687279
407,0.0148171080712487
408,0.014648329628861
409,0.0148217450350503
410,0.0152795037895044
411,0.0151694864064987
412,0.0154188850754659
413,0.015609741378359
414,0.0155073005697733
415,0.0154808799181601
416,0.0152767460856685
417,0.0149621371286301
418,0.0151292706305606
419,0.0146859467596267
420,0.0149740449192169
421,0.0147714703997295
422,0.0148538610319192
423,0.0148570593626791
424,0.0148216743718203
425,0.0144365165229678
426,0.0142078427415895
427,0.0137450302885654
428,0.0132337875491634
429,0.0132167829530911
430,0.0131253051630175
431,0.0135555843610687
432,0.0139142539512578
433,0.0143712673568842
434,0.0148772221539237
435,0.0151154161419234
436,0.0151962538585137
437,0.0153510962500087
438,0.0155059386415037
439,0.0156607810329987
440,0.0157415227215035
441,0.0158577545019046
442,0.0162669705609366
443,0.0162277967706598
444,0.0164333285755443
445,0.0166388603804287
446,0.0168443921853132
447,0.0170393546405117
448,0.0171363560071692
449,0.0176849373374635
450,0.0174592705314584
451,0.0173925223793135
452,0.0173099363886063
453,0.0172273503978991
454,0.0171447644071918
455,0.0170190507942542
456,0.0170250188296482
457,0.0170782681845592
458,0.0172282870227818
459,0.0174446774209875
460,0.0173720245428226
461,0.0171173613609249
462,0.0175450044232988
463,0.0170098330173293
464,0.0168005025135693
465,0.0166489288381996
466,0.0163383648877566
467,0.0162756419511743
468,0.0161099224687064
469,0.0158583619621142
470,0.0162210329203044
471,0.0160570339748567
472,0.0161380377682128
473,0.016243339222114
474,0.0162678590067545
475,0.0164710950607428
476,0.0160382810556892
477,0.0160209586345171
478,0.016003636213345
479,0.0159863137921729
480,0.0159219945736379
481,0.0154322656453672
482,0.015154666046855
483,0.0150440431728963
484,0.0146422395615272
485,0.014342652072563
486,0.0144089454580527
487,0.0144940917930553
488,0.0145600198648966
489,0.0149505585176825
490,0.015026023262592
491,0.0150646231211049
492,0.0153858284887789
493,0.0151883476730605
494,0.0154151206726194
495,0.0151608607818008
496,0.0152064856762498
497,0.0149030717874942
498,0.014922316938749
499,0.0145681526035693
500,0.0145727214210711
501,0.0143793355917262
502,0.0145558543887901
503,0.0145516586127954
504,0.0143550088118896
505,0.0148525809398243
506,0.0148445312401966
507,0.0148652719620428
508,0.0149038114896526
509,0.0149805825934784
510,0.014745249206239
511,0.0149731192190479
512,0.0149169080346858
513,0.0144565017539384
514,0.0144184036333314
515,0.0141382910240565
516,0.0141027619328859
517,0.0141051604206657
518,0.0141133357412208
519,0.0143393666583821
520,0.0146389899342509
521,0.0148214822277103
522,0.0150039745211698
523,0.0151864668146293
524,0.0151184817044516
525,0.015215323422501
526,0.0152380275938362
527,0.0151238846503563
528,0.0152464183830873
529,0.0154574420248309
530,0.015469092664945
531,0.0154824415338977
532,0.0154607769004188
533,0.0155870579720467
534,0.0156542809815606
535,0.0154868529135646
536,0.0156003200474209
537,0.0154898040458276
538,0.0153445498153575
539,0.0152646943541899
540,0.0152636424327828
541,0.0151685991900913
542,0.0150778082088946
543,0.0151307905122556
544,0.0151738888992084
545,0.0150632052048188
546,0.0151563318858315
547,0.0151515202298589
548,0.0151467085738863
549,0.0151418969179137
550,0.0150179812312702
551,0.0150834204934877
552,0.0152516955529258
553,0.0150631275384666
554,0.0149675281635067
555,0.0151011161476672
556,0.0148845385144582
557,0.0148516935808898
558,0.0146460080406733
559,0.0145167970046223
560,0.0146570848455544
561,0.01432659217353
562,0.0145226623577082
563,0.0142702663019327
564,0.0142520514324787
565,0.0139612976666602
566,0.0137491555534641
567,0.0135274968547465
568,0.0135461921531185
569,0.013322652296069
570,0.0132207878550228
571,0.0132081207612406
572,0.01311834121827
573,0.0131081196547049
574,0.0130975398498306
575,0.012942581414748
576,0.0129741124583513
577,0.0130056435019546
578,0.0130371745455579
579,0.0130687055891612
580,0.0131002366327645
581,0.0132317717177399
582,0.013135183094911
583,0.0131385480516113
584,0.0128364476387582
585,0.0126701524946515
586,0.0121488004707146
587,0.011883023208856
588,0.0116405696438774
589,0.0113981160788988
590,0.0111556625139201
591,0.0111643143425636
592,0.0112851671654261
593,0.0113065992646912
594,0.0115070807620144
595,0.0114900603309632
596,0.0116729651822267
597,0.0117640414998941
598,0.0118477009825232
599,0.0119660878821875
600,0.0120868086527137
601,0.0121626773698008
602,0.0122770645195543
603,0.0122116738216821
604,0.0123161395562526
605,0.0122714015435973
606,0.012196347837869
607,0.0122011551960905
608,0.0120419378443356
609,0.0120360779588497
610,0.0119187491267896
611,0.0118285409634355
612,0.0117112559015705
613,0.0116606165650647
614,0.011467108115761
615,0.0116240870698517
616,0.0114374986453219
617,0.0115216396983134
618,0.0115235605074179
619,0.0115268555005266
620,0.0114371543015773
621,0.0114976394942853
622,0.011232265513712
623,0.0111843242603133
624,0.0110606461033669
625,0.0109369679464204
626,0.010813289789474
627,0.0108081576959296
628,0.0107252506094741
629,0.010715814753638
630,0.0108620275890357
631,0.0106810379767586
632,0.0108098647196779
633,0.0108671509906664
634,0.0108741795438489
635,0.0109549966351423
636,0.0109277282857166
637,0.0110042905254728
638,0.0109317856346906
639,0.0109853712260713
640,0.0109093982879023
641,0.0108497597589768
642,0.0107228851086126
643,0.0105546827685875
644,0.0103864804285624
645,0.0102182780885373
646,0.0102088174196633
647,0.0100318122450155
648,0.00990583592385967
649,0.0100558950387235
650,0.00996660638091309
651,0.0100942444532133
652,0.00994448025149092
653,0.00986911065713744
654,0.00961704328483004
655,0.00975838937490488
656,0.00973639302554512
657,0.00989894728562919
658,0.0100368023227811
659,0.010227947575672
660,0.0104038046927737
661,0.0104053145672837
662,0.0104449059149067
663,0.010390792449261
664,0.0103251147120795
665,0.0104181995846735
666,0.0103606909924819
667,0.0104054486499438
668,0.0103875612333576
669,0.0101782724123031
670,0.0102359709060213
671,0.0102467646195132
672,0.010195174852269
673,0.0102034568093795
674,0.01021689576703
675,0.010177065488226
676,0.0101679890797868
677,0.0102821520908538
678,0.0101360893549408
679,0.0102116658740738
680,0.0103935114183996
681,0.0102409981185098
682,0.0100109633290895
683,0.00974572266338096
684,0.0094124886991193
685,0.00909291692602354
686,0.00886984504772792
687,0.0086620079089068
688,0.00863705683128164
689,0.00867701249455398
690,0.00885707507024164
691,0.0091167047151817
692,0.00923505133109889
693,0.00954765472801902
694,0.00980559659852102
695,0.00996792099341082
696,0.0103107601715486
697,0.0105051548862976
698,0.010603280518885
699,0.010805098026963
700,0.0112914076851255
701,0.0114635075838279
702,0.01197718258516
703,0.0122685081913283
704,0.0127965854152404
705,0.0131023499619551
706,0.0136494325779848
707,0.0140782941898027
708,0.01455348033284
709,0.0149717517705295
710,0.0151720596471581
711,0.0155220850699381
712,0.0156881584480512
713,0.0151671171396667
714,0.0148922016384597
715,0.0141045841582541
716,0.0134729062314384
717,0.0131191239174174
718,0.0133201636059261
719,0.0137165947782796
720,0.0142510800664789
721,0.0145407288756837
722,0.0152695148555445
723,0.0155322666193254
724,0.0158263367902125
725,0.0161988358551621
726,0.016545948826645
727,0.0172878916943723
728,0.0181321950680461
729,0.0192407136248816
730,0.0204242226019065
731,0.0219190904904228
732,0.0233794838707298
733,0.0248474522630477
734,0.0260573455709894
735,0.0269725003096429
736,0.0280625081838071
737,0.029046881674639
738,0.0300312551654709
739,0.0310156286563028
740,0.0323098498333029
741,0.0331443541621966
742,0.0339478973760229
743,0.0347514405898492
744,0.0355549838036755
745,0.0361253703650878
746,0.036607952847979
747,0.0370673345827515
748,0.0369601911494567
749,0.0376049578866381
750,0.0379891274454021
751,0.0380366639877354
752,0.0388093699083505
753,0.0386916264149672
754,0.0383716217995586
755,0.0356702566716968
756,0.0329688915438349
757,0.0302675264159731
758,0.0258362405195384
759,0.0218477635849759
760,0.0191451659043297
761,0.0185177401008078
762,0.0193886632690054
763,0.0214487870009276
764,0.0243311606821186
765,0.027240311178241
766,0.0306963592669446
767,0.033838127111585
768,0.0358964971096657
769,0.037365749653618
770,0.0386352236235448
771,0.0392368613061928
772,0.0397742962560714
773,0.0404988398268448
774,0.0402897820857327
775,0.040442000129251
776,0.040578703145719
777,0.0401750513247754
778,0.0407931299105744
779,0.0404035210294806
780,0.0410210134192454
