"wavelength","measurement"
380,0.017557495870355
381,0.0168282285689319
382,0.0164782093046174
383,0.0162414168645697
384,0.0164650431611472
385,0.0171270779426759
386,0.0179247038157063
387,0.0187184561868975
388,0.0193188881309316
389,0.0195923670335834
390,0.0194991971255941
391,0.0193598009308571
392,0.0195267780281453
393,0.0194881254471183
394,0.0201744858082146
395,0.0214150456429189
396,0.0237040201544915
397,0.0260861526669147
398,0.0284682851793379
399,0.030850417691761
400,0.0320886799460516
401,0.0336785308609791
402,0.0348623345406977
403,0.035231727286361
404,0.0351548412248017
405,0.0350810026332351
406,0.035822745128627
407,0.035861322923795
408,0.0361010794021209
409,0.0365388620451352
410,0.0383320646917575
411,0.0380883885047938
412,0.0392356145107002
413,0.0396462804944317
414,0.0394235379133416
415,0.0396439114835615
416,0.0392617570887344
417,0.0386338006760784
418,0.0391659410030189
419,0.0385667224578689
420,0.0393837592684224
421,0.0391457705909959
422,0.0392149053211109
423,0.0394583761864704
424,0.0394241069466518
425,0.0384034312295852
426,0.0381717335030226
427,0.036712841716474
428,0.0359582169916616
429,0.0357854401609334
430,0.0357984300785315
431,0.0370992858932642
432,0.0386964963867897
433,0.0396656595875552
434,0.0413551843212737
435,0.0418665086780287
436,0.0425422504658081
437,0.0430776594192846
438,0.0436130683727611
439,0.0441484773262376
440,0.0443032573702861
441,0.0450502179718159
442,0.0460585282091456
443,0.0462225616364933
444,0.0470326315163656
445,0.0478427013962379
446,0.0486527712761101
447,0.0493022526205457
448,0.049517387172742
449,0.0509722724766271
450,0.0505428056536692
451,0.0502297053367243
452,0.0500479632708406
453,0.0498662212049569
454,0.0496844791390732
455,0.0499970711220718
456,0.0498201182530883
457,0.0504222994521621
458,0.0506382514442795
459,0.0513293224079688
460,0.0515050420210883
461,0.0509456824387201
462,0.0519739988252667
463,0.0506969664959394
464,0.0498484972022677
465,0.0496805398692075
466,0.049014764626918
467,0.0489685352072384
468,0.0485538183901525
469,0.0484715530326281
470,0.0491882116157716
471,0.0493771718365377
472,0.0494837671758992
473,0.0500621824230591
474,0.0501191855291696
475,0.0507873394167149
476,0.0496089911862126
477,0.0496615798373093
478,0.049714168488406
479,0.0497667571395027
480,0.0496092548803646
481,0.048444165291055
482,0.0474302713732185
483,0.0472481670753332
484,0.0462220694242496
485,0.0453886921949273
486,0.0461317758040294
487,0.0464144009969803
488,0.0469955680519986
489,0.0481766400848561
490,0.0485918862892436
491,0.0488871246422471
492,0.0498432573804022
493,0.049174602634358
494,0.0499796599644282
495,0.0490655016559726
496,0.0492782642583999
497,0.0482257501934818
498,0.0485898319801107
499,0.0474518832089683
500,0.0477844259155113
501,0.0474078492821956
502,0.0482175394190913
503,0.0485459883231792
504,0.0480556162388823
505,0.049567751168463
506,0.0491160701320942
507,0.0494023254123156
508,0.0496759737100981
509,0.0496212659190558
510,0.0487274943430559
511,0.0491484060460073
512,0.0487379938629874
513,0.0472633731858755
514,0.0469967873769778
515,0.0462678589942437
516,0.0460089736335823
517,0.0460474911370321
518,0.0461082845953494
519,0.0469843326116289
520,0.0476968059868441
521,0.0481162418372017
522,0.0485356776875593
523,0.0489551135379169
524,0.0485688211594893
525,0.0487321859055308
526,0.0488475393169912
527,0.0485329002344045
528,0.0487619991021243
529,0.0494266383008898
530,0.0493557250051403
531,0.0492381480231292
532,0.0491413386545253
533,0.0497059007005835
534,0.049937080903853
535,0.0492685532960878
536,0.0496567288944665
537,0.0491659791567411
538,0.0489222853263226
539,0.0485891176811371
540,0.0489457539072852
541,0.0485097344321606
542,0.0483144586930135
543,0.0484398942806901
544,0.0487717602020959
545,0.0483107122224428
546,0.048709056018156
547,0.0486303426215794
548,0.0485516292250027
549,0.048472915828426
550,0.048322649193931
551,0.0486089802868789
552,0.0490673080968703
553,0.048621780924204
554,0.0484222607113976
555,0.0488854574469817
556,0.0479907844410777
557,0.0479547675546713
558,0.047814308201875
559,0.0472872264855341
560,0.0476884479942094
561,0.0470017932537868
562,0.047767678909412
563,0.0468497647497079
564,0.047077848567644
565,0.0463278565293943
566,0.0460829467071507
567,0.0454205947841252
568,0.0458687576548847
569,0.0452843265387105
570,0.0451427694503881
571,0.0453047508483862
572,0.0452382610656208
573,0.0451673506610635
574,0.045365137914934
575,0.0448384220513903
576,0.0451000129333393
577,0.0453616038152884
578,0.0456231946972374
579,0.0458847855791865
580,0.0461463764611355
581,0.0466659020727913
582,0.0464327219014785
583,0.0466465327585703
584,0.0460816630286249
585,0.0456786531153456
586,0.0444789846346068
587,0.0440272831724061
588,0.0436509800937181
589,0.0432746770150302
590,0.0428983739363422
591,0.0431670358520499
592,0.0434906392792288
593,0.0435710242551257
594,0.0440621534876054
595,0.0442516034282184
596,0.0444487274038674
597,0.044721560678161
598,0.0445657715722511
599,0.0447103896692338
600,0.0451333672057693
601,0.0453658384795474
602,0.0456441048851645
603,0.045309673260417
604,0.0459188093349778
605,0.0456877590886784
606,0.0456023147317953
607,0.0453121048968511
608,0.0449435663333771
609,0.0448616730907231
610,0.0446625354011132
611,0.0444751429401398
612,0.0441952624210869
613,0.0438739022165574
614,0.0435321125217659
615,0.0443783144247992
616,0.0436456256892198
617,0.0441070877134696
618,0.0441494295596678
619,0.0441855436891632
620,0.0440274384732601
621,0.044289687875644
622,0.0434715781535342
623,0.0434180079713158
624,0.0430241795852475
625,0.0426303511991792
626,0.0422365228131109
627,0.0422418028991761
628,0.0421827706082057
629,0.0421416670392102
630,0.0425573105066011
631,0.0420573557848977
632,0.0427225150584941
633,0.0428786866655904
634,0.043101323121221
635,0.043258499838856
636,0.0430504128075812
637,0.0434452782193759
638,0.0432952362597519
639,0.0436141389422887
640,0.0433637831341592
641,0.0434119712683014
642,0.0430769026935406
643,0.0428240907346118
644,0.0425712787756831
645,0.0423184668167543
646,0.0425314991343883
647,0.0425087324803876
648,0.0418256922271966
649,0.0425963710692224
650,0.0422431310743107
651,0.0423020099731242
652,0.0419554221123116
653,0.0413659497111655
654,0.0406830343679147
655,0.041346858498292
656,0.0410660902962207
657,0.0415163994027123
658,0.0418322480142792
659,0.0428970255400733
660,0.0431210988405591
661,0.0432985497825295
662,0.0434970169548401
663,0.0433118510439827
664,0.0430693091388171
665,0.0431951372331737
666,0.0432333145751617
667,0.0433428982047355
668,0.0435109333973052
669,0.0427115087959842
670,0.0429956280221011
671,0.0428492203859479
672,0.0428320668647688
673,0.0428021139347631
674,0.0429568555162091
675,0.0430893386893023
676,0.0429435175403766
677,0.0433572182385748
678,0.0427965105853591
679,0.0429195279791347
680,0.0437265389901792
681,0.0429408573412967
682,0.0416246517815941
683,0.0407563930844876
684,0.0390730525001584
685,0.0377385392860097
686,0.0367308552902979
687,0.0361259910447627
688,0.0362518990549759
689,0.0366082235552557
690,0.0377475469618488
691,0.0387525147808283
692,0.0393910662653599
693,0.0401866770650532
694,0.0410968948197556
695,0.0413310290929109
696,0.0420766853100067
697,0.0424954346691449
698,0.0419425619923478
699,0.0424357058683386
700,0.0433893655641034
701,0.0433071810292648
702,0.0442374592733765
703,0.0445859562782112
704,0.045430541315168
705,0.0456585280470861
706,0.0465211710569444
707,0.0473664816473503
708,0.0473406298576056
709,0.0479193137151806
710,0.0476462477612346
711,0.0476347147595135
712,0.047725539358657
713,0.0459027611642939
714,0.0449957908715099
715,0.0429641821726377
716,0.0411921073546686
717,0.0404712281555265
718,0.0401074342518617
719,0.0408235564734191
720,0.041209673824623
721,0.0409814483474735
722,0.0419902162847668
723,0.0419952563762365
724,0.0420756616041789
725,0.042292476312579
726,0.0426292256092097
727,0.0433944584987123
728,0.0442081113885368
729,0.0454112148440779
730,0.0465375381613649
731,0.04785937888991
732,0.0491781316643421
733,0.0506842961892096
734,0.0512990475027963
735,0.0519098856967272
736,0.0526267791432343
737,0.053027512083347
738,0.0534282450234597
739,0.0538289779635725
740,0.0547767050177227
741,0.0551515400953915
742,0.0554947854927909
743,0.0558380308901903
744,0.0561812762875897
745,0.0562812615610416
746,0.0562691098570152
747,0.0566075204474718
748,0.055889265694641
749,0.0561754923814182
750,0.0562335323015687
751,0.055999569496309
752,0.0566896504887835
753,0.0562052295157173
754,0.0545622442909939
755,0.0500578209507556
756,0.0455533976105173
757,0.041048974270279
758,0.0348066005033201
759,0.0294398836309861
760,0.0269888372039608
761,0.0269115253005188
762,0.0281723972840934
763,0.0315338596064598
764,0.0354522115579566
765,0.0396485656612048
766,0.0439879077189846
767,0.047894585195155
768,0.0504095957831642
769,0.052217894720789
770,0.0537400438201191
771,0.0543683241257032
772,0.0548517135747442
773,0.0555793618586768
774,0.0555697927211701
775,0.0555119168615585
776,0.0559734660723255
777,0.0552175817073973
778,0.0561393652615228
779,0.0553527601841851
780,0.056305613866775
