"wavelength","measurement"
380,0.0238254020683465
381,0.0230715589815458
382,0.0227858242612236
383,0.0228114114717029
384,0.0223295801614611
385,0.0236269142911372
386,0.0245736264638452
387,0.0255099183902275
388,0.0266055575083344
389,0.027113658680684
390,0.0270190203440248
391,0.0269546873676139
392,0.0272329693185944
393,0.0270598535400606
394,0.0282035274576098
395,0.0297651429051082
396,0.0330172842550631
397,0.0365201269669597
398,0.0400229696788563
399,0.0435258123907529
400,0.0452229586043795
401,0.0477862043712718
402,0.0494362035614118
403,0.0500215776906026
404,0.0501701362195544
405,0.0502710814293882
406,0.0508802574476386
407,0.0514759968501004
408,0.0516906523758506
409,0.0529700485951297
410,0.0552551136616323
411,0.0552992902836495
412,0.0565199377230496
413,0.0577683728552088
414,0.0573615770167397
415,0.0579743677541411
416,0.0573119678266369
417,0.0566018609878384
418,0.0572288373330417
419,0.0563236961483344
420,0.0575406758230024
421,0.0573840625676982
422,0.0576471267577393
423,0.0579197877416232
424,0.0579734202735707
425,0.0565616938437793
426,0.0557372404108105
427,0.0538549109014292
428,0.0523203109135121
429,0.0525689068277995
430,0.0526089810964198
431,0.0546398295136642
432,0.0566847883824458
433,0.0584086219453139
434,0.0604966109170557
435,0.0616177308712405
436,0.062228372321322
437,0.0630359504497914
438,0.0638435285782607
439,0.06465110670673
440,0.0652162921691661
441,0.0660816244373619
442,0.0673049575006151
443,0.0679226742024263
444,0.0688513061008293
445,0.0697799379992322
446,0.0707085698976351
447,0.0717617926456264
448,0.0719513877561304
449,0.0740981884913236
450,0.0737769163085558
451,0.0728917610504813
452,0.0726491131862022
453,0.0724064653219231
454,0.072163817457644
455,0.0720652086233923
456,0.0721201451151932
457,0.0728968245878706
458,0.0731213628087381
459,0.0743962769326013
460,0.0742446797162371
461,0.0734682782185243
462,0.0752844881658295
463,0.0730224665164981
464,0.0722468017123304
465,0.0717890387641069
466,0.0709008373680166
467,0.0707898186319895
468,0.0701640304897409
469,0.0697076829285659
470,0.0713147395515622
471,0.0712782959715025
472,0.0716753954493876
473,0.0724963461651886
474,0.0726259957007726
475,0.0734684439134951
476,0.0722701087372083
477,0.0721878024999625
478,0.0721054962627166
479,0.0720231900254707
480,0.0718762828870826
481,0.0698966844673729
482,0.0686033812054075
483,0.0683592765859052
484,0.0669911370289538
485,0.0656661829075482
486,0.0664965360482947
487,0.067118184710403
488,0.0677713455599305
489,0.0694465234453583
490,0.0698198582481265
491,0.0703268970419168
492,0.0719379693616789
493,0.0708841478150107
494,0.0719004039380099
495,0.0706801190415707
496,0.0709926532141789
497,0.0693678598648623
498,0.069724028452548
499,0.0681862234953721
500,0.0686067036646559
501,0.0678517211210504
502,0.069206254380287
503,0.0693541936309041
504,0.0685357093182607
505,0.0705568179406942
506,0.0701666069600338
507,0.0702813416136767
508,0.0704546472856844
509,0.0702691881584954
510,0.0690698202604204
511,0.0697286378027341
512,0.0687453344900365
513,0.066572475980399
514,0.0661486255399262
515,0.0650485722057238
516,0.0644863339556774
517,0.0644821854483302
518,0.0641551913687446
519,0.0654253493241446
520,0.0662907228346105
521,0.0668150935494767
522,0.0673394642643429
523,0.0678638349792091
524,0.0673133131304458
525,0.0670713915636018
526,0.0671955555470814
527,0.0666205762982314
528,0.0668321356012833
529,0.0674772977253303
530,0.0672940496363353
531,0.0671676620823051
532,0.0669342888474028
533,0.0674195557452876
534,0.0675802513724031
535,0.066757538754301
536,0.0671868507502789
537,0.0668133815551385
538,0.0661426095224765
539,0.0658182932389956
540,0.066105892922817
541,0.0654882777688511
542,0.0651541743358729
543,0.0653794426782584
544,0.0655645881017324
545,0.0649916285218187
546,0.065501577995153
547,0.065423054950441
548,0.0653445319057289
549,0.0652660088610169
550,0.0647966853083062
551,0.0651055527023681
552,0.0656416256524924
553,0.0648479177263247
554,0.06474755723842
555,0.0652356968665494
556,0.0643364350210521
557,0.0641330274637011
558,0.0636643437109239
559,0.0631532923408957
560,0.0639464007508439
561,0.0625612634397841
562,0.0636890759728482
563,0.0625678252320517
564,0.062785833997725
565,0.0618697055713531
566,0.061381893173301
567,0.0606849108074775
568,0.061341101073136
569,0.0605121357937424
570,0.0603718431856635
571,0.0604846322232207
572,0.0604421573676606
573,0.0605347014294188
574,0.0608819420901343
575,0.060098332788733
576,0.0604467649106311
577,0.0607951970325291
578,0.0611436291544272
579,0.0614920612763252
580,0.0618404933982233
581,0.06267911671778
582,0.0623115753231736
583,0.062835958843944
584,0.0618101656703989
585,0.0617138941903825
586,0.0601397763988254
587,0.0592693280275987
588,0.0588553760694025
589,0.0584414241112064
590,0.0580274721530102
591,0.058234582433639
592,0.0587571987352713
593,0.0587826400051037
594,0.0596122012563043
595,0.0595324392741068
596,0.0600872479999263
597,0.0602952256746338
598,0.060245041063899
599,0.0604122974362089
600,0.0609177925060544
601,0.0613350614489678
602,0.0615998060739164
603,0.061364636148284
604,0.0619014317160107
605,0.0614366565730895
606,0.0616967008504798
607,0.0613189971406223
608,0.0608270697791935
609,0.0607158079631419
610,0.0604048453513525
611,0.0601153359132949
612,0.0595983449537425
613,0.0595169504676818
614,0.0591546639560399
615,0.060045224641809
616,0.0593274649310399
617,0.0598341882098123
618,0.0597369630491338
619,0.0599250595459613
620,0.0597763359576713
621,0.0601115479095895
622,0.0589862612651002
623,0.0590661549330994
624,0.0585230227023654
625,0.0579798904716313
626,0.0574367582408973
627,0.0573080850005217
628,0.0572291065534522
629,0.0573235369112019
630,0.0579924537318823
631,0.0573610338545398
632,0.0579249939189706
633,0.0583019600924567
634,0.0586238378523597
635,0.0590441080400141
636,0.0585379299887546
637,0.0590990337628847
638,0.0589415068960129
639,0.0592745024148119
640,0.0593102046695112
641,0.0590152903659685
642,0.058781364914556
643,0.0584820782079679
644,0.0581827915013797
645,0.0578835047947915
646,0.05815558018186
647,0.0582370515685778
648,0.0574503851199475
649,0.0583496330499579
650,0.0577097231469383
651,0.0580685286015739
652,0.0574274596079234
653,0.0565898839460963
654,0.0557732192248311
655,0.0564685125973975
656,0.0561676554753286
657,0.0568085543862644
658,0.0573483995545152
659,0.0587384340306866
660,0.0592422837824689
661,0.059325714499882
662,0.0596093505350454
663,0.0593744212081533
664,0.0590496472974747
665,0.0590923256183996
666,0.059346321185174
667,0.0595646501156891
668,0.0597925441713988
669,0.0584683602690239
670,0.0590508764377649
671,0.0588734482459607
672,0.0587513836542561
673,0.0587339123679443
674,0.0590168253379435
675,0.0589763908377375
676,0.059030214803387
677,0.0595184178617387
678,0.0586759758523333
679,0.058762955559169
680,0.0599402349382912
681,0.0589850721470939
682,0.0569978354749436
683,0.0558461700445512
684,0.0535036681461891
685,0.0515960598539363
686,0.0502626294316239
687,0.0495701285472769
688,0.049490150621068
689,0.0500742039342343
690,0.0511815890172575
691,0.0527097253395654
692,0.0534267969682501
693,0.0544387970483236
694,0.0553527062695432
695,0.055467938610124
696,0.0563324151804238
697,0.0567619534113171
698,0.0561624581242515
699,0.0563911828654515
700,0.0576099143309714
701,0.0571905010731275
702,0.0581435807513075
703,0.0583699738332735
704,0.0592595906827732
705,0.0593513194710325
706,0.0601936696124668
707,0.0611807243592009
708,0.060863226319745
709,0.0613739137719676
710,0.0611457980511939
711,0.0608204903955002
712,0.0605342347491253
713,0.0581075040797482
714,0.0568716873442828
715,0.0539543918142068
716,0.051910025452189
717,0.0504241153108845
718,0.0503785217420447
719,0.050559544477331
720,0.0509747244792929
721,0.0505180767646072
722,0.0515560501165569
723,0.0513894472123924
724,0.0513759902758079
725,0.0517394897911651
726,0.0513770630925088
727,0.0523857288237284
728,0.0531477011823104
729,0.0544639144351172
730,0.0556926198624428
731,0.0570389140073097
732,0.0586937126038743
733,0.0600551349305459
734,0.0607122871219752
735,0.0614122507782305
736,0.0621067098978368
737,0.0625381778658037
738,0.0629696458337706
739,0.0634011138017375
740,0.0642906543698438
741,0.0646220688275382
742,0.0649755456376605
743,0.0653290224477829
744,0.0656824992579053
745,0.0659024673905915
746,0.0657036110996434
747,0.0660509444337538
748,0.0653448042174494
749,0.0656716166410745
750,0.0657395684547467
751,0.0654966319187266
752,0.0666831233809894
753,0.0657547474733977
754,0.0639169507118042
755,0.0587709192187627
756,0.0536248877257212
757,0.0484788562326798
758,0.04064078997779
759,0.0348165759954193
760,0.0317808502196721
761,0.0313950867161857
762,0.0331030136503668
763,0.0369527692951519
764,0.0414936534233053
765,0.0462441354010049
766,0.0514331266030486
767,0.0560348807111359
768,0.05889894903088
769,0.0611795925239813
770,0.0628478910656492
771,0.0635767995248051
772,0.0642173312363654
773,0.0654513630681359
774,0.0650790104697996
775,0.0653317888532371
776,0.0651231839297897
777,0.064828121034248
778,0.0655969636634376
779,0.0648030164427504
780,0.0658717128315194
