"wavelength","measurement"
380,0.00586499767554479
381,0.00566228150276981
382,0.00556920006343245
383,0.00549235141409679
384,0.00553075868285643
385,0.00578887593307489
386,0.0060620252104939
387,0.00625521626276276
388,0.00653223237535162
389,0.00668256590998161
390,0.00659264082710961
391,0.00654442736969197
392,0.00655562139998095
393,0.00661876004656675
394,0.00678558549210992
395,0.00717736524424167
396,0.00792803458260632
397,0.00874042082697994
398,0.00955280707135356
399,0.0103651933157272
400,0.0107891028640559
401,0.0112936254344412
402,0.0116448861065336
403,0.0116856268280598
404,0.0116388256655112
405,0.0115634369414496
406,0.0117253789389704
407,0.0117124554056452
408,0.0117300129512414
409,0.011893435105533
410,0.0123632957946624
411,0.0123040766463725
412,0.0125966226550622
413,0.0127554123168369
414,0.0126435908181401
415,0.0127162339067721
416,0.0124781495591374
417,0.0123439611185005
418,0.0125295479753032
419,0.0122423931923954
420,0.0124585210375217
421,0.012392835524383
422,0.0124630125168024
423,0.0125315223345962
424,0.0124843079221214
425,0.0122272127086825
426,0.0120789374489455
427,0.0116958797934235
428,0.0113595569971641
429,0.011358129409607
430,0.0113795187854663
431,0.0117946447696211
432,0.0122386800569851
433,0.0126750855988213
434,0.0131535598751666
435,0.0134064130851777
436,0.0135630124765254
437,0.0137527019064165
438,0.0139423913363076
439,0.0141320807661987
440,0.0142011529729876
441,0.0144613491270286
442,0.014780973745342
443,0.0148981963252938
444,0.0151379180949606
445,0.0153776398646273
446,0.0156173616342941
447,0.0158776238105081
448,0.0159528047113727
449,0.0165118310375408
450,0.0163905368798739
451,0.0162553782758484
452,0.0162293533835882
453,0.0162033284913281
454,0.016177303599068
455,0.0161724553827844
456,0.0161623853208431
457,0.0163796076841042
458,0.0164861348575
459,0.0167411981147004
460,0.016739259305718
461,0.0165668232156846
462,0.0170045434183422
463,0.01654821925256
464,0.0163180659707944
465,0.0161943666764494
466,0.0159887745483816
467,0.0159600131311946
468,0.0158256498497098
469,0.0156914682356842
470,0.0160930708749371
471,0.0160576843402982
472,0.0161553406593915
473,0.0163102849253433
474,0.0163631814864643
475,0.0165725180951141
476,0.0162209291821332
477,0.0162166596008304
478,0.0162123900195276
479,0.0162081204382248
480,0.0161603309796126
481,0.0157448209182958
482,0.0155015564096488
483,0.0154027763717562
484,0.0151078274016802
485,0.01480866647996
486,0.0149885593228748
487,0.0151409480833748
488,0.0153132830153085
489,0.0157315122263159
490,0.015889900890705
491,0.0159976763634273
492,0.0163734750250789
493,0.0161787224820279
494,0.0164437195180123
495,0.0162239938735088
496,0.0162919875619232
497,0.0159758241041105
498,0.0161062311641469
499,0.0157606012969205
500,0.0158987349591622
501,0.0157455462588751
502,0.0160783856809147
503,0.016165787005777
504,0.0160315308844676
505,0.0165758156491588
506,0.0165372669411171
507,0.0166139964085616
508,0.0167325290386936
509,0.0167418936851205
510,0.0164783998385656
511,0.0167536554947559
512,0.0165958300325987
513,0.0161474015419655
514,0.016091271454195
515,0.0158500473493017
516,0.0158214082064325
517,0.0158419178414233
518,0.0158301280899022
519,0.0161888850684872
520,0.0165084927897446
521,0.016703041540093
522,0.0168975902904413
523,0.0170921390407897
524,0.0169937197120434
525,0.0170568597513352
526,0.017116610539664
527,0.017060693051952
528,0.0171780400095173
529,0.017396433260571
530,0.0174146128542538
531,0.017477346538151
532,0.017432671326554
533,0.0176480553279748
534,0.0177049018496604
535,0.0175275922264367
536,0.0177389263547414
537,0.0176526232081565
538,0.0175281491943625
539,0.0174628582899761
540,0.0175792721152512
541,0.0174534161525467
542,0.0173770572082524
543,0.0174781398401674
544,0.0175948396408784
545,0.0174894309422897
546,0.0176651863186564
547,0.0176625852807141
548,0.0176599842427718
549,0.0176573832048295
550,0.017631461013175
551,0.017772908411758
552,0.0179337488909156
553,0.0177819675059065
554,0.0177207067443483
555,0.01791929496188
556,0.0176839111607817
557,0.0176908868845667
558,0.0175841752110467
559,0.0174581193787948
560,0.0176622124547878
561,0.0173938567726319
562,0.0177023040999905
563,0.0174253088898171
564,0.017511433291767
565,0.0172453753237806
566,0.0171612310246804
567,0.0169645218396667
568,0.0171029319354819
569,0.0169067252798277
570,0.0168822654249323
571,0.0169224841435967
572,0.0169278668876476
573,0.0169202952406658
574,0.0170344425333772
575,0.0168170709314668
576,0.0169130167368832
577,0.0170089625422997
578,0.0171049083477161
579,0.0172008541531325
580,0.017296799958549
581,0.0175730005112806
582,0.0174946330020818
583,0.0176121348731915
584,0.0173288002986354
585,0.0172824266868677
586,0.016803341897145
587,0.0165944738059714
588,0.016443268868275
589,0.0162920639305787
590,0.0161408589928823
591,0.0162320145018296
592,0.016387656303445
593,0.0164213959424245
594,0.0166874678227018
595,0.0166810910421833
596,0.016799241596006
597,0.0168797395708587
598,0.0168977592019632
599,0.0169464499498124
600,0.0171034949819148
601,0.0172337275610467
602,0.0173324896459188
603,0.017255189130574
604,0.0174346640714958
605,0.0173400268457097
606,0.0173766681087004
607,0.0173140503790862
608,0.017118442943332
609,0.0171148950944879
610,0.0170411096678058
611,0.0169413581474741
612,0.0168467814074862
613,0.0167871262017688
614,0.016653466172803
615,0.0168751775416957
616,0.016699743092665
617,0.0168893454169941
618,0.0168520664214393
619,0.0169312384813732
620,0.0168701864053318
621,0.0169921762109394
622,0.0166497214112476
623,0.0166630771981567
624,0.0165258432942227
625,0.0163886093902888
626,0.0162513754863548
627,0.0161955846807387
628,0.016172692325161
629,0.016163700193906
630,0.0163774557459222
631,0.0161963221318202
632,0.01636332915257
633,0.0165134965389511
634,0.0166017756460284
635,0.0167472232632572
636,0.0166170121289046
637,0.0168040803698407
638,0.0167259046916439
639,0.0168449044217643
640,0.0167924242404281
641,0.0167595282107397
642,0.0167090047606702
643,0.0165929335060457
644,0.0164768622514212
645,0.0163607909967967
646,0.0164454197159249
647,0.0164392819658719
648,0.0161634459066847
649,0.0164737270551946
650,0.0163249333688535
651,0.0164305170977541
652,0.016261104986336
653,0.016046267248026
654,0.0157569071680294
655,0.0159555241267848
656,0.0158770512964411
657,0.0160927899279428
658,0.0162485524058769
659,0.0166622955968813
660,0.0167666230315982
661,0.0168258660676215
662,0.016900569083167
663,0.0168251428435411
664,0.0167091415650015
665,0.0167874640685286
666,0.0167867914053817
667,0.0168181547624472
668,0.0168870405504046
669,0.0166001378690203
670,0.0166964913529119
671,0.0166351827663802
672,0.01662824340211
673,0.0166774369926924
674,0.0167584551634879
675,0.0167630240275345
676,0.0167442591539023
677,0.016885800044198
678,0.0167313714305601
679,0.016739115987848
680,0.0171654599698827
681,0.016886016756564
682,0.0164118787876714
683,0.0160448355351962
684,0.0154215570597613
685,0.0148997144320373
686,0.0144611807642326
687,0.0142562672881385
688,0.0142792692384187
689,0.0145366986739468
690,0.014970821295087
691,0.0154669597469713
692,0.0157435742838975
693,0.0160455739413882
694,0.0164465537232936
695,0.0165813797661854
696,0.0169257845295345
697,0.0170917820834787
698,0.0169712587594854
699,0.0171264829609176
700,0.0175200658776687
701,0.0175112300436745
702,0.017879859932577
703,0.0180310878571662
704,0.0184438325860257
705,0.0185148799590679
706,0.01883641831414
707,0.0191337297148515
708,0.0192101385805759
709,0.0194802171355243
710,0.0193483841946281
711,0.0193961131058804
712,0.0193842012709264
713,0.0186358499499493
714,0.0182209998529032
715,0.0173132558479374
716,0.0165944948361887
717,0.016157641901014
718,0.016039499565918
719,0.0162296375176874
720,0.0164143920419293
721,0.0162981678045553
722,0.0167255030569822
723,0.0167420649550409
724,0.0167162042891786
725,0.0168219751835559
726,0.0168093453743291
727,0.0171778680974391
728,0.0174662558747273
729,0.0179543584763841
730,0.0184205377049997
731,0.0190640689663182
732,0.0195866348859459
733,0.020193646063095
734,0.0205606451991714
735,0.0207106267949288
736,0.0210838461114853
737,0.0212607920421663
738,0.0214377379728473
739,0.0216146839035283
740,0.0219907140038232
741,0.0221563522161502
742,0.022295692404734
743,0.0224350325933178
744,0.0225743727819016
745,0.0226913411610055
746,0.0226748812963068
747,0.022798884481218
748,0.0225238630844936
749,0.0226754315525992
750,0.0226713641275359
751,0.0225778282433222
752,0.0229458748933708
753,0.0226833638744514
754,0.0221892604491616
755,0.0203812252039819
756,0.0185731899588021
757,0.0167651547136224
758,0.0140880288296342
759,0.0117945621588749
760,0.0105260840278629
761,0.0103506070769384
762,0.0108557677478514
763,0.0121947067751818
764,0.0138577136024881
765,0.0156144444370491
766,0.0175096867166702
767,0.0193349408246597
768,0.0203629988134171
769,0.0211895406062278
770,0.0217905496620125
771,0.0220603606009561
772,0.0223738314992762
773,0.022706066583394
774,0.0226041171699566
775,0.022689016760587
776,0.0228087456401573
777,0.0225577694896602
778,0.0228479176721214
779,0.0226221122569686
780,0.0229628216130221
