"wavelength","measurement"
380,0.0108545388938057
381,0.0106165383744113
382,0.0103219917886142
383,0.0103228283022374
384,0.0104265266090662
385,0.0108371525073568
386,0.0112231093845914
387,0.0117265769923896
388,0.0121893649389464
389,0.0122349424784771
390,0.0120859031599074
391,0.0119341330698173
392,0.011986137937417
393,0.011966703032578
394,0.0122370621012219
395,0.0128545196807126
396,0.0142634663073747
397,0.0156014502460413
398,0.0169394341847079
399,0.0182774181233746
400,0.0189939596726903
401,0.0196706033933313
402,0.0201570914143307
403,0.0202030990757144
404,0.0201671891338633
405,0.019864525548841
406,0.0200104071340212
407,0.0200859220000211
408,0.0201009283805184
409,0.0203845533510517
410,0.0211544750343115
411,0.0209548055252479
412,0.0215195964697405
413,0.0217285590877487
414,0.02148021142647
415,0.0216188633320034
416,0.0213781820264116
417,0.0209245640074386
418,0.0213164384842941
419,0.0209210266220797
420,0.0214371214438967
421,0.0212713688005211
422,0.0212350934877893
423,0.0213475895023141
424,0.0213526171383571
425,0.0209036283545185
426,0.0205958387977916
427,0.0199794826422289
428,0.0194060582166248
429,0.0194479312008851
430,0.0193976054426934
431,0.020350986799785
432,0.0210019990771107
433,0.0217025528052943
434,0.0225951650532099
435,0.0229327737008048
436,0.023171416229956
437,0.0235007259023598
438,0.0238300355747636
439,0.0241593452471675
440,0.024204000884992
441,0.0246424211560767
442,0.0252521560019113
443,0.0254075443444935
444,0.0258406868950928
445,0.0262738294456921
446,0.0267069719962914
447,0.0270016042247303
448,0.0271721015592481
449,0.0280175661541598
450,0.0279167827598055
451,0.0276809725932474
452,0.0276210299890471
453,0.0275610873848467
454,0.0275011447806463
455,0.0275667500304224
456,0.0276010089369846
457,0.027944464463497
458,0.0281095793125163
459,0.0285262641895
460,0.0286019248264444
461,0.0282535740434137
462,0.0289017769509136
463,0.0281274545468607
464,0.0277185495904088
465,0.0275825172721838
466,0.027208183450235
467,0.0272009548387132
468,0.0269954865522869
469,0.0268447385538564
470,0.0273673218029719
471,0.0273825583000546
472,0.0275553432288649
473,0.0277394503735491
474,0.0278297557983475
475,0.0280181796303449
476,0.0275935579471314
477,0.0276040478850443
478,0.0276145378229571
479,0.02762502776087
480,0.0274427062247082
481,0.0268198736025334
482,0.0262841353207199
483,0.0262038139900708
484,0.025682964609789
485,0.0252807103291902
486,0.0255770903376901
487,0.0258179466674797
488,0.0261874466723182
489,0.0269060394975961
490,0.0269222858359443
491,0.0272893335254716
492,0.027869817303897
493,0.0275235816456911
494,0.0278962007399681
495,0.027503072431374
496,0.027677762581556
497,0.0270768332942554
498,0.0272088095663056
499,0.0266670446969126
500,0.0268979313079628
501,0.0266756871939104
502,0.0272225981068897
503,0.0273614248488381
504,0.0270550270918209
505,0.0279806480308112
506,0.027838210408922
507,0.0279486404630996
508,0.028060325751064
509,0.028072803998331
510,0.0276252592639592
511,0.0279497825237825
512,0.0276160339089002
513,0.0268270068974543
514,0.0267080693530366
515,0.0263077182526858
516,0.0261608683053477
517,0.0261602458474164
518,0.02619396646083
519,0.0267821177556246
520,0.0271890341033704
521,0.0274460830049569
522,0.0277031319065434
523,0.0279601808081298
524,0.0277675215209799
525,0.0278152411401155
526,0.0279462277238276
527,0.0277741034602142
528,0.0279209932247043
529,0.0282587955594119
530,0.0282676238792003
531,0.028260157797322
532,0.0282519126369792
533,0.0285119933413599
534,0.0287004897521273
535,0.0283032264174316
536,0.0285545042723565
537,0.0283390658065915
538,0.0282339123071329
539,0.0280599307693786
540,0.0282614162767895
541,0.0280217661445994
542,0.0279459441286486
543,0.0280804585164468
544,0.0282632941824338
545,0.0279753417091504
546,0.0283370582305686
547,0.0282974086210534
548,0.0282577590115382
549,0.0282181094020231
550,0.0281705696757524
551,0.0284881916863706
552,0.0286474939428204
553,0.0284495564718095
554,0.0283212493501446
555,0.0287250505451178
556,0.0282281371281061
557,0.0281808386198049
558,0.0281006553226246
559,0.0279364146607345
560,0.0282287442448401
561,0.0277903183311032
562,0.0282775481953465
563,0.0277722833241455
564,0.0280072475452921
565,0.0275328177685138
566,0.0274749036436491
567,0.0271539108608885
568,0.0274045703086409
569,0.0270748650333593
570,0.0270710772582686
571,0.027106512694523
572,0.0271450652259595
573,0.0270986803408196
574,0.0272992274353675
575,0.0269685837607357
576,0.0271334067660785
577,0.0272982297714214
578,0.0274630527767642
579,0.0276278757821071
580,0.0277926987874499
581,0.0282016964539658
582,0.0280520450512598
583,0.0282031838582558
584,0.0277205872181244
585,0.0275966009127249
586,0.0268337035375917
587,0.0265130184077343
588,0.026294760515842
589,0.0260765026239497
590,0.0258582447320574
591,0.0260323475618561
592,0.0262696624965903
593,0.0262881307367523
594,0.0266389166263704
595,0.0266168618191575
596,0.0268379022423565
597,0.0270027817807573
598,0.0269864023678341
599,0.0270421265241869
600,0.0272812297305875
601,0.0274595872267987
602,0.0275913871875601
603,0.0274645043678436
604,0.0276812447552635
605,0.0275437202910563
606,0.0275909153221655
607,0.0274530917424428
608,0.0271665876390189
609,0.0271115230773037
610,0.0269658182574457
611,0.0268409512808028
612,0.0266684272583264
613,0.026548992182705
614,0.0263489475501826
615,0.0267462232277823
616,0.026452175799763
617,0.0267282241897769
618,0.026652028400087
619,0.0267697401866167
620,0.0266184740389635
621,0.0268230006920142
622,0.0262965673092419
623,0.0262570853499273
624,0.0260524078627381
625,0.0258477303755489
626,0.0256430528883596
627,0.0254874790088823
628,0.0255040187665957
629,0.0255098393860805
630,0.0257755601632243
631,0.025430595436787
632,0.0257534602511096
633,0.025960185545458
634,0.0260640719919613
635,0.0262465877085352
636,0.0260130843734131
637,0.0263332106029567
638,0.0261685292125398
639,0.0263595959226232
640,0.0262698415589402
641,0.0262976441798394
642,0.0261408832668962
643,0.0260129109192002
644,0.0258849385715043
645,0.0257569662238084
646,0.0258215313381692
647,0.0257999205601283
648,0.0254780109418049
649,0.0258460211758516
650,0.0256169922231773
651,0.0257317045381336
652,0.0254927667036985
653,0.02503044484866
654,0.0247470484661167
655,0.0249672679474292
656,0.0249897464874006
657,0.0252501555775134
658,0.0254332668598582
659,0.0261632484520065
660,0.0262034737584547
661,0.0263103081468121
662,0.0264309948503052
663,0.0263610584099778
664,0.0261538056056757
665,0.026239851115563
666,0.0262662046302307
667,0.0263414537531246
668,0.0265106694205722
669,0.0259337379829734
670,0.0261208918616067
671,0.0260818780322934
672,0.0259776883242636
673,0.0260425533282872
674,0.0261480613955287
675,0.0261627104374964
676,0.0260723105364425
677,0.0263333244894872
678,0.0259821268646822
679,0.0260597687336312
680,0.0266807321159231
681,0.0261293551058799
682,0.0253559793742538
683,0.0248021099549129
684,0.0236946167157187
685,0.0229115489754724
686,0.0222410139426004
687,0.0219663646022579
688,0.0220878921331153
689,0.0223484349288552
690,0.022852318210811
691,0.0236427307276831
692,0.0239200223301042
693,0.0243944918288449
694,0.024700852637987
695,0.0248662403537467
696,0.0253411636974068
697,0.0254470411262207
698,0.0251260443005248
699,0.0252555609456967
700,0.0258076211380481
701,0.0257274166736052
702,0.0261049275419428
703,0.026238542470687
704,0.0267062504769351
705,0.0267182416716892
706,0.0271125367895145
707,0.0274743544022979
708,0.0274007921731989
709,0.0276641011775332
710,0.0274977386471404
711,0.0273506033187634
712,0.0272940333942112
713,0.0261140719712038
714,0.0255667418653397
715,0.0242319184128643
716,0.0232279068274769
717,0.0226919302510604
718,0.0224879092107541
719,0.0226787015186519
720,0.0229914381985517
721,0.022653170838921
722,0.023121302195261
723,0.0230548178790665
724,0.0229869274995239
725,0.0230786496341144
726,0.0230885293231594
727,0.0234863011489555
728,0.0238490469432402
729,0.0244530907450715
730,0.0250248569828363
731,0.0256776145130757
732,0.0264057421219571
733,0.0270705758155197
734,0.0273580273141354
735,0.0276936639705341
736,0.028054550930213
737,0.0281596514225142
738,0.0282647519148154
739,0.0283698524071166
740,0.0290036442494292
741,0.0291203651818033
742,0.0292096304573255
743,0.0292988957328476
744,0.0293881610083697
745,0.0295471980499521
746,0.0295222902217964
747,0.0296190089958502
748,0.0292100313749426
749,0.0293568668911087
750,0.0294602920569751
751,0.0293287577797181
752,0.0296445803926342
753,0.029362612159891
754,0.0284664945598976
755,0.0260725955267409
756,0.0236786964935842
757,0.0212847974604274
758,0.0180121959961043
759,0.0152944567216928
760,0.0139572982889324
761,0.0139504904863368
762,0.0145754724634408
763,0.0164763731281078
764,0.0185508988389905
765,0.0207360546256327
766,0.0229723865827471
767,0.025240777454604
768,0.0263221556927632
769,0.0273382526164868
770,0.0280018131276466
771,0.0283451252103869
772,0.0286452859978675
773,0.0290751118618019
774,0.0289841272266272
775,0.0290786507736508
776,0.0290996566918767
777,0.0288511604990827
778,0.0291442911137942
779,0.0290704452721281
780,0.0292598053915799
