"wavelength","measurement"
380,0.0040532703690483
381,0.00401950657717742
382,0.00400514947403551
383,0.00405974978497403
384,0.00414818337653355
385,0.00445329006967235
386,0.00473961370869418
387,0.00507180466679407
388,0.00534289656101952
389,0.0056186947069409
390,0.00562818031908686
391,0.00567718935706513
392,0.0057934412948819
393,0.00593361493524114
394,0.00617994719105841
395,0.00657711135330569
396,0.00737466871338325
397,0.0082725793781213
398,0.00917049004285935
399,0.0100684007075974
400,0.0106652130082398
401,0.0113623556523333
402,0.0118608559978197
403,0.0120883683601966
404,0.0122856757602165
405,0.0123442946170609
406,0.0126733559470375
407,0.0128460428818087
408,0.0130175564200908
409,0.0133496318819875
410,0.0140549066752648
411,0.014216434875617
412,0.01460219792765
413,0.0150124620516724
414,0.0150622394205536
415,0.0152150491611144
416,0.0151346887318866
417,0.0150663899810466
418,0.015308941101248
419,0.0149159655866639
420,0.0153894238320149
421,0.0153286025255431
422,0.015484091456639
423,0.0156863758993041
424,0.0157990212870543
425,0.0155068662654078
426,0.0153436217487036
427,0.0149778486202406
428,0.0144856898069601
429,0.0144592456868568
430,0.0145089971576414
431,0.0150877139557104
432,0.0156168049869554
433,0.0162041966950117
434,0.0169438995351311
435,0.0173612702685281
436,0.0175650640492966
437,0.0178598335917258
438,0.0181546031341549
439,0.018449372676584
440,0.0185821804066257
441,0.0189265156758071
442,0.0194121785802501
443,0.019716178042635
444,0.020054556723898
445,0.020392935405161
446,0.020731314086424
447,0.0211339438618415
448,0.0212908246285889
449,0.0221387114194821
450,0.0220983266074875
451,0.0219389653978188
452,0.0219202672204461
453,0.0219015690430735
454,0.0218828708657008
455,0.0219066784487326
456,0.0219664784384966
457,0.0223039153636083
458,0.0225034236934135
459,0.0229339715707119
460,0.0229541974677888
461,0.0228098965323507
462,0.0234836556639711
463,0.0227833862175727
464,0.0225828495575754
465,0.0223929902193127
466,0.0221210579966933
467,0.0220836068480436
468,0.0219045122228987
469,0.0217383073082087
470,0.022225513289818
471,0.0222220220259177
472,0.0223714872539452
473,0.0227248247795904
474,0.0227902598011337
475,0.0231503128858916
476,0.0226493853924376
477,0.0226388211490541
478,0.0226282569056707
479,0.0226176926622873
480,0.022540548621416
481,0.0219138005965061
482,0.0215726807559095
483,0.0214847540938323
484,0.0210075140263805
485,0.0205282745098809
486,0.0207400132413368
487,0.020919900510075
488,0.0211455153584362
489,0.0217366081231738
490,0.0219635036961807
491,0.0221049594466136
492,0.0226868784374852
493,0.0224163077964981
494,0.0227942572949915
495,0.0225035751120586
496,0.0226090764161325
497,0.0221932593767652
498,0.0223372683260391
499,0.0218870391925459
500,0.0220340551797293
501,0.0218620806252054
502,0.0223011451434074
503,0.0224283649163328
504,0.0222392003740395
505,0.0229880763155174
506,0.0228214745850763
507,0.0229301319415883
508,0.0230387606808841
509,0.022982837992094
510,0.0225747188947278
511,0.022886294252404
512,0.0226660699185919
513,0.0220597574053517
514,0.021925405155732
515,0.021531369878917
516,0.0213845522774482
517,0.0213362128798299
518,0.0212672386764446
519,0.0216356723533455
520,0.0220690932861178
521,0.0223081906795227
522,0.0225472880729277
523,0.0227863854663326
524,0.0226487381292717
525,0.0226925963759926
526,0.022784200560638
527,0.0226117097562166
528,0.0227614071183619
529,0.0229887084664984
530,0.0230260935526438
531,0.0230269467776513
532,0.0229593437565172
533,0.0231569579123039
534,0.0231997481968472
535,0.0229438411827077
536,0.0231891374291854
537,0.0230463980017945
538,0.0228845567214702
539,0.022742020848779
540,0.0228881782302197
541,0.0227248888291692
542,0.0226042593327881
543,0.0227341663761121
544,0.0228105543318173
545,0.0226282376384769
546,0.0227722152165908
547,0.0227132941474579
548,0.022654373078325
549,0.0225954520091921
550,0.0224534825042772
551,0.0226105476806987
552,0.0226951854075528
553,0.0224949494737878
554,0.0223981697778313
555,0.0226265786413434
556,0.0223201183101468
557,0.0222751730578623
558,0.0221410794759717
559,0.0218961730277792
560,0.0221961655425843
561,0.0217700168101951
562,0.0221855298057127
563,0.0218128205389258
564,0.0219198269226052
565,0.0216292700855902
566,0.0215060492048831
567,0.0212757433506533
568,0.0214091853305285
569,0.0211598687543589
570,0.0211387859182938
571,0.0211491089602895
572,0.0211340792314637
573,0.0210972884148376
574,0.0211966315907512
575,0.0208942177644262
576,0.020918062455435
577,0.0209419071464438
578,0.0209657518374526
579,0.0209895965284614
580,0.0210134412194702
581,0.0212326037721693
582,0.0210743458065482
583,0.0212006027429385
584,0.0208447873979467
585,0.0208236945655336
586,0.0203613229982902
587,0.0201456422437124
588,0.0199825384488653
589,0.0198194346540183
590,0.0196563308591713
591,0.0197228677979668
592,0.0198218624233539
593,0.0198066613216311
594,0.0199866549946579
595,0.0198736062336071
596,0.019897423792492
597,0.0198754346657997
598,0.0197720679512578
599,0.0196898930862032
600,0.0197456107105324
601,0.019788379163412
602,0.0198350954364903
603,0.0196438829482825
604,0.0197889328786211
605,0.019643093480282
606,0.0196511372951681
607,0.0194745236667731
608,0.0192514967110438
609,0.0191829792964816
610,0.0190337298974963
611,0.0188564699354853
612,0.0186645677443543
613,0.0185610660585594
614,0.0182837927393878
615,0.0184496614831316
616,0.0182131414557156
617,0.0183407330651296
618,0.0182542246923548
619,0.0182886893483422
620,0.0181910920298068
621,0.0182986596208549
622,0.0178845370004912
623,0.0178623995400158
624,0.0176990783797363
625,0.0175357572194569
626,0.0173724360591774
627,0.0172883217197844
628,0.0172141505778407
629,0.017149083327079
630,0.0172372136345424
631,0.0169509338351446
632,0.0170160543983897
633,0.0170301176218002
634,0.016998743751743
635,0.0170462531865159
636,0.0168877346009815
637,0.0169777501004626
638,0.0167904681573666
639,0.0168577130925108
640,0.0167051083690702
641,0.0166311133352022
642,0.0165291119608218
643,0.0164392934625801
644,0.0163494749643385
645,0.0162596564660968
646,0.016362862304752
647,0.0163075096015736
648,0.0159956859040513
649,0.0162179368896605
650,0.0159839182045724
651,0.0160586066814116
652,0.0158166802764709
653,0.0154775556853201
654,0.0151359429206158
655,0.0152151671403692
656,0.0150155702382535
657,0.0150466978324656
658,0.0151576398486642
659,0.0154639007797815
660,0.0155171236936439
661,0.0155440660207654
662,0.01553081890975
663,0.0153690918146283
664,0.0152199267994299
665,0.0152469456974941
666,0.0152181445446494
667,0.0151780042982906
668,0.0151768961977132
669,0.0148735033766152
670,0.0149009404802089
671,0.0147884950372769
672,0.014710164794441
673,0.0147177924018394
674,0.0147174559816748
675,0.0146792368507512
676,0.0145829287582178
677,0.0146530101856051
678,0.0144572853305298
679,0.0144077665901191
680,0.0146405529116249
681,0.0143988113778383
682,0.0140171254824931
683,0.0137241193561509
684,0.0132208904659921
685,0.0127980639634274
686,0.0124947186496276
687,0.0122246824361157
688,0.0120683048477685
689,0.012239836669636
690,0.0124581520679794
691,0.0128760480264675
692,0.0129716469119642
693,0.0131071141560693
694,0.0133419937017762
695,0.0133219647141144
696,0.0135209815959227
697,0.0135505895141024
698,0.0133793506432816
699,0.0134300600660927
700,0.0136361288799636
701,0.0135258985774305
702,0.0136766948939521
703,0.0136754995034577
704,0.0138994813137856
705,0.0138166386645127
706,0.0140134069610609
707,0.0141098044763562
708,0.0141126259939286
709,0.0141914592811271
710,0.0140508954066012
711,0.0140749120281454
712,0.0142335105906235
713,0.0138600904393221
714,0.0138086687231967
715,0.0134335827326855
716,0.0131255106406241
717,0.0128886516357029
718,0.0128268025386303
719,0.0129340478185196
720,0.012967334290808
721,0.0127986450071236
722,0.0131904779360885
723,0.0132077785373946
724,0.0131949166419198
725,0.0132415366493223
726,0.013191921171436
727,0.0133596400974182
728,0.0134336864619247
729,0.0135657255857239
730,0.0136972155292322
731,0.0139327160821394
732,0.0140531686229454
733,0.0142892657535199
734,0.0143946963073936
735,0.0143810790783348
736,0.0144611160790239
737,0.0144203160334833
738,0.0143795159879426
739,0.0143387159424019
740,0.0145187828253149
741,0.014496379539194
742,0.0145018113724853
743,0.0145072432057765
744,0.0145126750390677
745,0.0145048300445374
746,0.0144515436788489
747,0.0144352537354424
748,0.0142021588089998
749,0.0142627565540658
750,0.0141952960581927
751,0.0140554817697416
752,0.0142304082530888
753,0.0139554280970644
754,0.0138069635274124
755,0.0128937804837966
756,0.0119805974401808
757,0.0110674143965649
758,0.00963631815651607
759,0.00834490969577482
760,0.00746359033952472
761,0.0071936341056494
762,0.00748062119949712
763,0.00801926649550689
764,0.00880991984610949
765,0.00956844647006778
766,0.0104956167464162
767,0.0114020790474736
768,0.0118971409188812
769,0.0122125411561633
770,0.0124190514185772
771,0.0125295010357702
772,0.0126389440939018
773,0.012736235167923
774,0.0126100359313824
775,0.0125926003103774
776,0.0126245879903906
777,0.0124121342944978
778,0.0124915356567284
779,0.0123501092877548
780,0.012472558800516
