"wavelength","measurement"
380,0.00119975891187507
381,0.0012289648279055
382,0.00123612967185769
383,0.00121298805906489
384,0.00127021332279136
385,0.00134068076095681
386,0.00138418663829898
387,0.00151641686491744
388,0.001640744548976
389,0.00170662881004912
390,0.00170600083462107
391,0.00170826461260847
392,0.00176223062696529
393,0.00183289038450726
394,0.00190643855601619
395,0.002007415491994
396,0.002178638669073
397,0.00244679953239226
398,0.00271496039571152
399,0.00298312125903079
400,0.00314512603831733
401,0.00334085546547741
402,0.00346246718974614
403,0.00355788965050478
404,0.00358318639256239
405,0.00358267433911693
406,0.00368649986818918
407,0.00368955216410523
408,0.00374653607133371
409,0.00383404990188798
410,0.0040228937562914
411,0.00404822251318179
412,0.00417893817694098
413,0.00430778817514304
414,0.00428052899170308
415,0.00435723089816538
416,0.00430198690658422
417,0.00428283144532824
418,0.00431896690046011
419,0.00429326829081348
420,0.00439333488662945
421,0.00441021441924927
422,0.00443910051853029
423,0.00452616664496042
424,0.00457004322212947
425,0.00450139118044577
426,0.00442715999589164
427,0.00433063253290665
428,0.00419681448357336
429,0.00423189499941838
430,0.0042604015862432
431,0.00440652076125448
432,0.00458984705181507
433,0.00475087501509666
434,0.00499660194540988
435,0.0051116876164929
436,0.00518642474993802
437,0.00528643822220352
438,0.00538645169446901
439,0.0054864651667345
440,0.00554959453941409
441,0.00567303188261146
442,0.0058013802580144
443,0.00595802058867603
444,0.0060696691449429
445,0.00618131770120976
446,0.00629296625747663
447,0.00644692215796751
448,0.00651484700398572
449,0.00675525875171061
450,0.00673623203093832
451,0.00671721881828104
452,0.0067097174000503
453,0.00670221598181957
454,0.00669471456358884
455,0.00670338614644537
456,0.0066727301381855
457,0.00683978190989029
458,0.00686626211262826
459,0.00700075450488749
460,0.00702925908554216
461,0.00700221341068148
462,0.00722923311985095
463,0.00698748517601132
464,0.00695883289084507
465,0.00689552949064845
466,0.00681950080193326
467,0.00681573921791636
468,0.00674479917390242
469,0.00672710535467973
470,0.00687697177741974
471,0.00689904720237784
472,0.00696673888955484
473,0.00705976767122669
474,0.00709726327883569
475,0.00724740483656869
476,0.0070849873010717
477,0.00709818100399486
478,0.00711137470691803
479,0.00712456840984119
480,0.00708155257289528
481,0.00690607230032656
482,0.0068005909200272
483,0.00678249921092735
484,0.00665326840652703
485,0.00652295655499919
486,0.00660674150113361
487,0.00666842525430748
488,0.00674416591013964
489,0.00692708285955271
490,0.00702943263065379
491,0.00708431275913691
492,0.00727304463958492
493,0.00720951926455986
494,0.00733936207388996
495,0.00725564073366004
496,0.00730429526918603
497,0.00719163779443693
498,0.00723410249873478
499,0.00712247557183998
500,0.00713548425014845
501,0.00710014956028775
502,0.00725665640525428
503,0.00729885201384184
504,0.00727192633063521
505,0.00752138286798615
506,0.00748362956667659
507,0.00753161888410883
508,0.00756974143226851
509,0.00756294571552275
510,0.00744128258332069
511,0.00756274443967569
512,0.00748597186389012
513,0.00728347088712966
514,0.00726837481348996
515,0.00713504435946255
516,0.00709829957231455
517,0.00707947813871009
518,0.00708423080533968
519,0.00720511803504548
520,0.00736982159144075
521,0.00745809888313318
522,0.00754637617482561
523,0.00763465346651805
524,0.00758285264384212
525,0.0076413438742933
526,0.00763751160747983
527,0.00757725212304755
528,0.007657472588436
529,0.00775230802190923
530,0.00775777299238189
531,0.00778305590063512
532,0.00775524920454816
533,0.00783321661986
534,0.00787379484378187
535,0.00777623155124496
536,0.00786177931502044
537,0.0078247516233764
538,0.00776369691166058
539,0.00775392565289757
540,0.00777988646777873
541,0.00775353461401494
542,0.00772703013402823
543,0.00778962149369564
544,0.00781020449151983
545,0.00773565094060316
546,0.00779588490301096
547,0.00778200158122474
548,0.00776811825943851
549,0.00775423493765229
550,0.00768477960925605
551,0.00773376708494101
552,0.00778179932013466
553,0.00771978636366358
554,0.00769308648141588
555,0.00776642469234147
556,0.00767521491338241
557,0.00767655620269604
558,0.00763371722906559
559,0.00755124332811186
560,0.0076538121011511
561,0.00753713669061501
562,0.00767098787475041
563,0.00754881333377443
564,0.00757480853204226
565,0.00746353073736206
566,0.0074565439455266
567,0.0073848986124117
568,0.00745065714312249
569,0.00734821644754837
570,0.00734863199570338
571,0.00737731597775281
572,0.00737862737687479
573,0.0073593550282399
574,0.00741034747973183
575,0.00732926921182912
576,0.00734090833140183
577,0.00735254745097455
578,0.00736418657054727
579,0.00737582569011998
580,0.0073874648096927
581,0.00747277817542682
582,0.00743221166479587
583,0.00745091465023238
584,0.00734916525192429
585,0.00735972953687095
586,0.0071916167771767
587,0.00710641316524944
588,0.00705144761349274
589,0.00699648206173603
590,0.00694151650997932
591,0.00697023511030325
592,0.00701293687771793
593,0.00701807216167337
594,0.00706449897438886
595,0.00702600673412344
596,0.0070349414741011
597,0.00705063864898128
598,0.00700819785703645
599,0.00698938167319316
600,0.00699381110215297
601,0.00702006908295987
602,0.00703470310070363
603,0.00697201652154539
604,0.00700569788567077
605,0.00696310490077842
606,0.00696272424725474
607,0.00693610587063556
608,0.00683522286811925
609,0.00682254531757965
610,0.00677532665039228
611,0.00673128922029744
612,0.00667852928435647
613,0.00663857113528278
614,0.0065044073079487
615,0.0065348863966782
616,0.00649884598910209
617,0.00654081739014238
618,0.00651358828701592
619,0.00652047250568858
620,0.00647620056624689
621,0.00652659599587331
622,0.00637514687860981
623,0.00638508629507897
624,0.00632692844354853
625,0.00626877059201809
626,0.00621061274048765
627,0.00617862364619567
628,0.00615171634566694
629,0.0061481679151504
630,0.00616719443742381
631,0.0060667058923218
632,0.00607883951700573
633,0.00609276558331463
634,0.00607130975528531
635,0.00608927997913185
636,0.00605433244960031
637,0.00606770327024966
638,0.00599439596506271
639,0.00602501539803159
640,0.00597335252818566
641,0.00594532563770776
642,0.00592820733243204
643,0.00588262341480628
644,0.00583703949718051
645,0.00579145557955475
646,0.00584769303013534
647,0.00583823337809529
648,0.00572665356679332
649,0.00582186725758586
650,0.00573466072639632
651,0.00576625381625178
652,0.00567223348355208
653,0.00555715213072529
654,0.00540826300202179
655,0.00545231589383412
656,0.00539137171318188
657,0.00541704719801775
658,0.00542415597823757
659,0.00555849951060913
660,0.00558689093728903
661,0.0055743852709588
662,0.00556562076412775
663,0.00551584975278638
664,0.00544974572595634
665,0.00547475059950158
666,0.00546231426944543
667,0.00546051610703526
668,0.0054558110709006
669,0.00534885492953068
670,0.00535878771048822
671,0.00529059440928069
672,0.00528086409476554
673,0.00528956385067738
674,0.00529006486919713
675,0.00528051793939762
676,0.0052490006026685
677,0.00525780680255033
678,0.00520973687539196
679,0.00515095304164865
680,0.00528553698190481
681,0.00517749481910354
682,0.00504780654090921
683,0.00496270186449447
684,0.00475926136350549
685,0.00462961980563638
686,0.00452805795420967
687,0.00444734587318095
688,0.00439193085042688
689,0.00442863420978301
690,0.00453230211919196
691,0.00467735491521688
692,0.0047260585873424
693,0.00475281636836755
694,0.00486592166524121
695,0.00483322540270082
696,0.00493774861296623
697,0.00492056308545892
698,0.0048539594608428
699,0.00488309064304647
700,0.00496595885785592
701,0.0049101941086826
702,0.00497596914647601
703,0.0049565354462906
704,0.00507091897189279
705,0.00499879743138596
706,0.00509349492839071
707,0.00512825888255531
708,0.0051191162974442
709,0.0051675521409647
710,0.00508205392120043
711,0.00510306484479715
712,0.00514460619982417
713,0.00502142090910467
714,0.00498876362067969
715,0.00484584985223898
716,0.00475655903726733
717,0.00464906725531927
718,0.00463553072576849
719,0.004708862529801
720,0.00464638878990463
721,0.00459114057337823
722,0.00473107482725207
723,0.00472530573260373
724,0.0047225830421278
725,0.00471743261434449
726,0.00468082572866879
727,0.00472641276727991
728,0.00474658447928151
729,0.00477152929155072
730,0.00481842649866357
731,0.00489298255162667
732,0.00491629545222687
733,0.00498236741330192
734,0.00503189925326431
735,0.00499645565394546
736,0.00502813177540606
737,0.00501237563084203
738,0.004996619486278
739,0.00498086334171396
740,0.00500508557039978
741,0.00499693123657301
742,0.00499320110086455
743,0.00498947096515609
744,0.00498574082944764
745,0.0050027501544674
746,0.00495340141002786
747,0.00495496048767156
748,0.00485293459909219
749,0.00488224975016526
750,0.00482176409328105
751,0.00480728586397476
752,0.00485394547743769
753,0.00469866242880065
754,0.00470155362956763
755,0.00439582441416557
756,0.00409009519876351
757,0.00378436598336145
758,0.00330671282477511
759,0.00285478539412671
760,0.00259651896191969
761,0.0025005127871974
762,0.00259673167102503
763,0.00279420423353436
764,0.00305398338464323
765,0.00330468568170918
766,0.00360798011752814
767,0.00392285229240219
768,0.00406560459581058
769,0.00418972142468768
770,0.00424028215730351
771,0.00427445425561565
772,0.0042945031709497
773,0.00436699180613282
774,0.00430032613331876
775,0.00427272953173876
776,0.00431482573273601
777,0.00424073527193352
778,0.0042559739121848
779,0.0042182762017751
780,0.00422473901674352
