"wavelength","measurement"
380,0.00112430846304322
381,0.00116548511457088
382,0.00112199493840362
383,0.00112303784610963
384,0.00116805863078402
385,0.00127171820114605
386,0.00135112533680405
387,0.00144559968411415
388,0.00150803076106902
389,0.00157821984489458
390,0.00157794659036475
391,0.00158355941535105
392,0.00162270707366662
393,0.00165430373970124
394,0.00177033083358924
395,0.00183069879562672
396,0.00207223553741895
397,0.00229338785306216
398,0.00251454016870538
399,0.00273569248434859
400,0.00293054179124781
401,0.00307981263409975
402,0.00321224006131134
403,0.00324182895092311
404,0.0032866835143565
405,0.00329727729051447
406,0.00334677797091535
407,0.00340608746854398
408,0.00347954947527575
409,0.00354615010028144
410,0.00370732353498875
411,0.00371123765987567
412,0.00384458088584388
413,0.00395372416747833
414,0.00394266171542178
415,0.00400131445914332
416,0.00397435617474219
417,0.00393658443523535
418,0.00400132747391786
419,0.00396081598231792
420,0.00405413850179741
421,0.00405160910823331
422,0.00408644882555292
423,0.0041731974548828
424,0.00415650872313407
425,0.00414152463956948
426,0.00407345070912515
427,0.00399961662508535
428,0.0038504716769416
429,0.00389671878476614
430,0.00389739291889197
431,0.00404693011441014
432,0.00421970236343119
433,0.00439333496159295
434,0.00459463419422208
435,0.00472168074744405
436,0.00477780598190865
437,0.00486106144630776
438,0.00494431691070687
439,0.00502757237510598
440,0.00508034477341171
441,0.00521518792623138
442,0.0053557566555414
443,0.00547192158000834
444,0.00557173150876682
445,0.00567154143752529
446,0.00577135136628376
447,0.00592622965059177
448,0.00598959074949819
449,0.00622987768801815
450,0.00620597902898332
451,0.00615335272676721
452,0.00614566883893863
453,0.00613798495111006
454,0.00613030106328148
455,0.00615982016263136
456,0.00612916415437149
457,0.00626441366480651
458,0.00628482200920648
459,0.00642268862926912
460,0.00643657411068338
461,0.00642295856316353
462,0.00660356676518111
463,0.00635861319544648
464,0.0063461182282305
465,0.00631623522969737
466,0.00622251866804515
467,0.00623303897945184
468,0.00616553994711412
469,0.00614083053679337
470,0.00629947301731148
471,0.0062925795689152
472,0.00634975443835062
473,0.00645058926941841
474,0.00648843302902011
475,0.0065970831898376
476,0.00645553287755053
477,0.00646394587701007
478,0.00647235887646961
479,0.00648077187592915
480,0.00646761828348869
481,0.00629932439356162
482,0.00619817849090714
483,0.00616677379994828
484,0.00605386453613629
485,0.00594450311395499
486,0.00598174298519189
487,0.00608228619380191
488,0.00615200097363474
489,0.00632661920573767
490,0.00640571505128896
491,0.00645633414972313
492,0.00661778317590088
493,0.006572067198565
494,0.00668308024021475
495,0.00660276159304551
496,0.00662283701027812
497,0.00652642662852142
498,0.00657871841548098
499,0.00645725893183653
500,0.00650630134138888
501,0.00644456840986828
502,0.00660088804102742
503,0.00662758431703455
504,0.00661823264573588
505,0.00683953923328758
506,0.00680852672386173
507,0.00683948396409162
508,0.00688459911218004
509,0.00688251001624118
510,0.00675992285799561
511,0.00686994387056553
512,0.00680609014230761
513,0.00663648405476883
514,0.00658867702126209
515,0.00648172729181318
516,0.00645616278186454
517,0.00644737151958419
518,0.00643336612908539
519,0.00653311900009002
520,0.00669080696538722
521,0.00676903492644775
522,0.00684726288750829
523,0.00692549084856883
524,0.00687435676980345
525,0.00693710465103322
526,0.00693043461703402
527,0.00687580249499938
528,0.00696920456413639
529,0.00702513018056446
530,0.00705353376912181
531,0.00706320895785349
532,0.00702736192140695
533,0.00710532933671879
534,0.00712178653956191
535,0.00704314169492991
536,0.00714002520000211
537,0.00710786780439424
538,0.00703861674081268
539,0.00702171821955771
540,0.00708189427367059
541,0.00704116746498831
542,0.007019055393161
543,0.00706167728003991
544,0.00708751102301178
545,0.00703271236063655
546,0.00707648464580488
547,0.00705268008704445
548,0.00702887552828402
549,0.00700507096952359
550,0.00695649600214832
551,0.00700548347783329
552,0.00703725329258831
553,0.00698000990893538
554,0.0069681902399226
555,0.00702300523209223
556,0.0069497449874735
557,0.00692095142270249
558,0.00689513795736887
559,0.00683138981642472
560,0.0069273239948862
561,0.00680877644627619
562,0.00691917663769613
563,0.00680342648632119
564,0.0068373175090271
565,0.00674226491098757
566,0.00672525834859507
567,0.00665890317406099
568,0.00671316612010734
569,0.00662027223389263
570,0.00662783913052652
571,0.00665566915485801
572,0.00664872343973817
573,0.00663208522221781
574,0.00668478996841595
575,0.00660989523024512
576,0.00662166441414718
577,0.00663343359804924
578,0.00664520278195131
579,0.00665697196585337
580,0.00666874114975543
581,0.00674914754306421
582,0.00670087351662016
583,0.00672491921188166
584,0.00662569227329423
585,0.00661718045660344
586,0.00647508056277844
587,0.00639748812271663
588,0.00634718941339449
589,0.00629689070407234
590,0.0062465919947502
591,0.00628492090385361
592,0.00632467980159419
593,0.00633299662545771
594,0.00636766947655821
595,0.00633574614181532
596,0.00633933379269764
597,0.00633440022496671
598,0.00631113187860699
599,0.00628599640765102
600,0.00629601378557533
601,0.00631259357891236
602,0.00632771150602961
603,0.0062680926057504
604,0.00631543729336266
605,0.00629110586582295
606,0.00626423062669171
607,0.00623580580105384
608,0.00616081523447219
609,0.00614627649403453
610,0.00612466998947954
611,0.0060526063239728
612,0.00601062924644707
613,0.00597261549340805
614,0.00584765908198139
615,0.00588492603975084
616,0.0058381016789419
617,0.0059003901573546
618,0.00588234274192227
619,0.00586103650254496
620,0.00583918095319893
621,0.00587169253754025
622,0.00574618293336765
623,0.00572152830371997
624,0.00567286908957512
625,0.00562420987543026
626,0.00557555066128541
627,0.00556228240032386
628,0.00552756521853763
629,0.00549441401528378
630,0.00554257034909688
631,0.00545095639535581
632,0.00546910494786321
633,0.00549077794341836
634,0.00543828622643023
635,0.00547180286001344
636,0.00542792380860642
637,0.0054610079147289
638,0.00539234044647604
639,0.00541245182024404
640,0.00536575285333797
641,0.00534647355538091
642,0.00531316070835696
643,0.00527903953086803
644,0.00524491835337909
645,0.00521079717589015
646,0.00526003874208924
647,0.00524139794976386
648,0.00513060859675977
649,0.00522454354061059
650,0.00514143600646711
651,0.00517051977441296
652,0.00511275980019766
653,0.00497265091733001
654,0.00486599985113642
655,0.00489014239030994
656,0.00482644583824375
657,0.0048244114899504
658,0.00486096429435739
659,0.00497443184497834
660,0.00501722231256363
661,0.00501002870116597
662,0.00500634414793901
663,0.00495300403126373
664,0.00490130342460944
665,0.00489799850498772
666,0.00489097276344696
667,0.00489382757578192
668,0.00487511982270839
669,0.00479292845515843
670,0.00479741561343779
671,0.00475488702610681
672,0.00474159636479844
673,0.00475202374286271
674,0.00476563082271751
675,0.00474545430896495
676,0.0047064856437381
677,0.00473764801874829
678,0.0046614171936148
679,0.00463353130181434
680,0.00472623846936433
681,0.00466135401584612
682,0.00452886738389919
683,0.00444730991646662
684,0.00427217701900942
685,0.00415287053916244
686,0.00404704984732195
687,0.00396563051413197
688,0.00393732317483423
689,0.00399202971459246
690,0.00408068110597689
691,0.00418960930089821
692,0.00425292221890586
693,0.00426669546334812
694,0.00435309815927268
695,0.0043500802118831
696,0.0044275614277474
697,0.00441806370933664
698,0.00433838796273067
699,0.00440994332643405
700,0.00445250254732205
701,0.00441560150517428
702,0.00449140561947422
703,0.00445777596704581
704,0.00458115889321388
705,0.00447792701615231
706,0.00455720948153085
707,0.00460254937358673
708,0.00457934495138704
709,0.00460483341828216
710,0.00457829003076506
711,0.00458096166496044
712,0.00461682967525116
713,0.00450293281694053
714,0.00448101787868007
715,0.00435389794875071
716,0.00426954695073201
717,0.00416314341746552
718,0.00414910765109503
719,0.00421373127603983
720,0.00418288681623447
721,0.00414502430299104
722,0.00423388750606234
723,0.00423745939506705
724,0.00422941698593545
725,0.00422501431856413
726,0.00421492829411807
727,0.00424757787330256
728,0.00426567709561181
729,0.00426668700579206
730,0.0043323428174421
731,0.00438813150732732
732,0.00441174219831121
733,0.00447342175122685
734,0.00448497217945794
735,0.0044983136518198
736,0.00452324569694392
737,0.00450220012367746
738,0.00448115455041101
739,0.00446010897714455
740,0.00451729178410728
741,0.00447989487252935
742,0.00447793907119037
743,0.00447598326985139
744,0.00447402746851241
745,0.00447916678125294
746,0.00444373645279808
747,0.00443612862278508
748,0.00435301461320509
749,0.00437502076206675
750,0.00433741679275271
751,0.00432797472434703
752,0.00435032938737658
753,0.00421038254349948
754,0.00422688013723881
755,0.00395827764597173
756,0.00368967515470466
757,0.00342107266343758
758,0.00297849089143606
759,0.00257770895918613
760,0.00231705582463925
761,0.00225378907504128
762,0.00232826707122449
763,0.00249854327005294
764,0.00273254056180344
765,0.00296071151292709
766,0.00325347380355825
767,0.00353277973429812
768,0.00365176354789079
769,0.00373344524709231
770,0.00382294645164573
771,0.00384725205386302
772,0.0038734122409682
773,0.003889011964691
774,0.0038736866678059
775,0.00384452228744119
776,0.00387027943076871
777,0.00380077625565613
778,0.00384149568042933
779,0.003754938450743
780,0.0037828399837018
