"wavelength","measurement"
380,0.000592917347054618
381,0.000575787168391177
382,0.00059159194570917
383,0.000586994957716005
384,0.000629128944202174
385,0.00065880594134103
386,0.000695251154603311
387,0.000746003294755442
388,0.000807130826920988
389,0.000821240475222258
390,0.000822342586325534
391,0.00084008502835782
392,0.000856733524767762
393,0.000927118510761384
394,0.000979281349167559
395,0.00103229217114467
396,0.0011304806966925
397,0.00128425921114257
398,0.00143803772559263
399,0.00159181624004269
400,0.00170706297077017
401,0.00181695964858541
402,0.00191872984476697
403,0.0019621611586652
404,0.00201677560443201
405,0.00206940781073954
406,0.00215700510137631
407,0.00218625388152112
408,0.0022796281733016
409,0.00233994480545715
410,0.00247346611289796
411,0.00251133159234139
412,0.00263609558143895
413,0.00271150209287562
414,0.00271660750150432
415,0.00277641962416371
416,0.00275709767185356
417,0.00277715409975437
418,0.00280792418059381
419,0.0027774230736144
420,0.00285771387911656
421,0.00286461330050091
422,0.00289910645627914
423,0.00292190658417979
424,0.002964089937403
425,0.0028693383795207
426,0.00285553636143403
427,0.00280364971308092
428,0.00270449377622763
429,0.00273445092915867
430,0.00274456139722819
431,0.00286770013974653
432,0.00296571779310399
433,0.00307196856629286
434,0.00319726620849097
435,0.00327110070700327
436,0.00327758662325927
437,0.00334037379167286
438,0.00340316096008644
439,0.00346594812850002
440,0.00350809428380525
441,0.0035547017818107
442,0.00366119664721758
443,0.00372297279240727
444,0.00378492785139671
445,0.00384688291038615
446,0.0039088379693756
447,0.00399086129124645
448,0.0040291306850709
449,0.00414775013490199
450,0.00412044397965668
451,0.0040972652392296
452,0.00409485017957338
453,0.00409243511991715
454,0.00409002006026093
455,0.0041115284366987
456,0.00411372565664962
457,0.00419231834894796
458,0.00419216711453488
459,0.00428495324138807
460,0.00428112940846718
461,0.00425535751161701
462,0.00435127696611571
463,0.00419797571373625
464,0.00418338455576566
465,0.00415932058748202
466,0.00411659283998081
467,0.00410402278787868
468,0.00408644399160741
469,0.00405144959552475
470,0.00414759535426691
471,0.00413543505791937
472,0.0041837621794419
473,0.00422528763004469
474,0.00423947439049183
475,0.00430075658317178
476,0.00422065017954548
477,0.00421334806872082
478,0.00420604595789616
479,0.00419874384707151
480,0.00416045795694817
481,0.00406805730601971
482,0.00399381062692431
483,0.00397790156237551
484,0.00390742415635862
485,0.00383682710025867
486,0.00388267511035942
487,0.00392636565852331
488,0.00397346455639801
489,0.00406797408534064
490,0.00409678369700024
491,0.00413012194602442
492,0.00422031998382862
493,0.00419643003310797
494,0.00424825999289018
495,0.00417368385433923
496,0.0042006763721606
497,0.00412908078961468
498,0.00414865925436114
499,0.00407934780662262
500,0.00411853256704859
501,0.00409142561533738
502,0.00418668739304064
503,0.00421232190455311
504,0.00418512057738907
505,0.00430677293459231
506,0.00428681512526493
507,0.00430256612930886
508,0.00431787276727651
509,0.00431542196972471
510,0.00423364459110362
511,0.00431019663077541
512,0.0042345799835233
513,0.00412520533685524
514,0.00408758410308415
515,0.00404090945664879
516,0.0040295713511383
517,0.00403464424368194
518,0.00404122107534186
519,0.00409615371772114
520,0.00418390029054391
521,0.00421971647954305
522,0.0042555326685422
523,0.00429134885754135
524,0.0042668209278229
525,0.0042920290796422
526,0.00427559146596274
527,0.00426380365496331
528,0.00431557398210475
529,0.00435418088633254
530,0.00434445656996867
531,0.00434482580489163
532,0.0043110357933113
533,0.00439515604499544
534,0.00439678154041818
535,0.00433790542689336
536,0.00437670100791573
537,0.00435324556335633
538,0.00432648331896834
539,0.00429233949587481
540,0.00432417732705285
541,0.00428979926654221
542,0.00425543435806501
543,0.00430395369364033
544,0.00431716550556863
545,0.00427189398409131
546,0.0042910387745935
547,0.00428331832132883
548,0.00427559786806415
549,0.00426787741479948
550,0.00425324598218563
551,0.00429397546336552
552,0.00429128370533707
553,0.00425757814531864
554,0.00423270618122393
555,0.00427834365415262
556,0.00423133001642025
557,0.00421626878487606
558,0.00418874816212168
559,0.00416417075712398
560,0.00421154205824743
561,0.00413115915089137
562,0.00419197292815967
563,0.00412477762429797
564,0.00414865456835045
565,0.00407708048424687
566,0.00407369129758838
567,0.00401559485785022
568,0.00404769708071695
569,0.00399547055628367
570,0.00398722044222195
571,0.00401641104270616
572,0.00399648196675711
573,0.00400080545705517
574,0.004017900440348
575,0.00396886148245528
576,0.00397366632816409
577,0.0039784711738729
578,0.00398327601958171
579,0.00398808086529052
580,0.00399288571099933
581,0.00403060602160792
582,0.004001214950221
583,0.00401349148974581
584,0.00394897853492972
585,0.00394643629930857
586,0.00384628601953858
587,0.0038167444587964
588,0.00379184458626197
589,0.00376694471372755
590,0.00374204484119312
591,0.00375615040368893
592,0.0037680679425272
593,0.00375806007897235
594,0.00380873646521179
595,0.00378046325769957
596,0.0037816982182365
597,0.00378930106511898
598,0.00376153230293149
599,0.00375007122021552
600,0.00375486783461042
601,0.00378177300494913
602,0.00379311651988945
603,0.00375454342723012
604,0.00376511081704628
605,0.00372921747635704
606,0.00372680365732866
607,0.00370312834541139
608,0.00364701915691438
609,0.00363782295019142
610,0.0036105016581032
611,0.00357848007699263
612,0.00354231800420116
613,0.00352654591210227
614,0.00348045401977294
615,0.0034931068668594
616,0.00344945972568975
617,0.0035053175783527
618,0.00346570263505496
619,0.0034774360116043
620,0.00344471987217073
621,0.00345719190447039
622,0.00338079125629474
623,0.0033820001683499
624,0.00335392671734051
625,0.00332585326633111
626,0.00329777981532172
627,0.00327925659408339
628,0.00326456393782396
629,0.00324808235508584
630,0.00326742118744401
631,0.00322347412259122
632,0.00322030531075712
633,0.00323276274965837
634,0.00322053743641834
635,0.00322933952917494
636,0.00318766994872237
637,0.00320368592906491
638,0.00318994835432239
639,0.00319297024095976
640,0.00316583746759337
641,0.00315051597963188
642,0.00313639599542055
643,0.00311750833798358
644,0.00309862068054661
645,0.00307973302310963
646,0.00309377754698497
647,0.0030922347310966
648,0.00302850962529186
649,0.00308654208710418
650,0.00303441155872559
651,0.0030409130681648
652,0.00299812729297871
653,0.00292513624742614
654,0.00286994215509495
655,0.00288138465669664
656,0.00286793105904998
657,0.00287517442516488
658,0.00289033679473764
659,0.0029531477402384
660,0.00296608740275892
661,0.00296033756834418
662,0.00294616205454167
663,0.00293338098578355
664,0.00289154554602688
665,0.00289418711350871
666,0.00290127905240799
667,0.00291929227041598
668,0.00289074185630904
669,0.00283421026474415
670,0.0028419303013763
671,0.00283012084985088
672,0.0028202511330226
673,0.0028275009864842
674,0.00283777171732386
675,0.00282366917114966
676,0.00280486737603702
677,0.0028284293380241
678,0.00278426731536515
679,0.00278052298995297
680,0.00283738812604173
681,0.00277665290843205
682,0.00268390000311464
683,0.00263389688920501
684,0.00254490946601239
685,0.00246519289846458
686,0.00242722367030348
687,0.00240207595353259
688,0.00239995975983892
689,0.00242560341669897
690,0.00247149565997507
691,0.00255165095093681
692,0.00257489244001998
693,0.00258679628272386
694,0.00264361852153373
695,0.00265130690314899
696,0.00267830273137547
697,0.00269154686747024
698,0.00264916839154089
699,0.00269571435106063
700,0.00272023177233678
701,0.00272241565652466
702,0.00276693736924547
703,0.00276045852136321
704,0.00281727227772967
705,0.00279753331814486
706,0.002841294144286
707,0.0028666701051711
708,0.00285462734339146
709,0.0028698633636848
710,0.00285708048279157
711,0.00285696468235102
712,0.00288887704426616
713,0.00282132235488547
714,0.00279476047933084
715,0.00272846492915991
716,0.00267752660234883
717,0.00265685079579492
718,0.00264764827191181
719,0.00265549452404268
720,0.00267964179745532
721,0.00265164482671151
722,0.00273410493563998
723,0.00271991772789154
724,0.00274055132865941
725,0.00273651438234502
726,0.00274258540591284
727,0.00278763543992168
728,0.00282566496595882
729,0.0028403043095447
730,0.00286415938514223
731,0.00291781890218233
732,0.00293913597778814
733,0.00296923211306817
734,0.0030044987446728
735,0.00300105872160919
736,0.00303119689367764
737,0.00302425443343289
738,0.00301731197318814
739,0.00301036951294339
740,0.00306732328165186
741,0.00303277947419224
742,0.00304535817712721
743,0.00305793688006219
744,0.00307051558299716
745,0.0030507609229872
746,0.00304562700666483
747,0.00303610921730492
748,0.00299799868334967
749,0.00301427478257623
750,0.00297777122685725
751,0.00296999100344389
752,0.0029956822012997
753,0.00294289757534479
754,0.00287271810083256
755,0.00266189862242431
756,0.00245107914401606
757,0.00224025966560781
758,0.00196246175546616
759,0.00173251917462925
760,0.00166362098951629
761,0.00160436490856523
762,0.00169451127259463
763,0.00182292180612667
764,0.00198625869718977
765,0.00214792151461325
766,0.00230698247698093
767,0.00248659473007817
768,0.00255601459040282
769,0.00264923369901944
770,0.00269140260447876
771,0.00270867701648217
772,0.00273493343491496
773,0.00273495222062763
774,0.00272559702344069
775,0.00271503392312406
776,0.00272111787579486
777,0.00268420270291554
778,0.00271118762801768
779,0.00268369121944884
780,0.00269196599552132
