"wavelength","measurement"
380,0.0588772905458574
381,0.0568128760894932
382,0.0553364900482767
383,0.0542763022197193
384,0.0551082866685506
385,0.0570621915304446
386,0.0593162987217911
387,0.0621743065422963
388,0.0635134391570913
389,0.0639194845945965
390,0.0635437553543555
391,0.0625247153553435
392,0.0625139208137086
393,0.0623929511460586
394,0.0638358840463346
395,0.0673390497080705
396,0.0738202478124756
397,0.0807394456180121
398,0.0876586434235486
399,0.0945778412290851
400,0.0976627786854221
401,0.101409614837708
402,0.104388428676364
403,0.103603883065038
404,0.10285987280137
405,0.101770646395863
406,0.102686298384043
407,0.102504812857493
408,0.102291568226782
409,0.103452844024047
410,0.107035212734616
411,0.1064239839689
412,0.108065288077078
413,0.108875687541236
414,0.107985644798952
415,0.107830497152764
416,0.106500310622055
417,0.104383032547072
418,0.106085798810916
419,0.103439408590444
420,0.104823946214855
421,0.104535252439052
422,0.104677303403794
423,0.104234022371784
424,0.104869397207137
425,0.101566634703442
426,0.10050818319063
427,0.0966396948445226
428,0.094683990351886
429,0.0934889870694241
430,0.094052503717229
431,0.0972569226765867
432,0.101041112963786
433,0.104346182217025
434,0.108110734908796
435,0.109891666997849
436,0.111116885329446
437,0.112344571242959
438,0.113572257156472
439,0.114799943069984
440,0.11527829213284
441,0.117082111157293
442,0.119045563414209
443,0.119941167698095
444,0.1219298906872
445,0.123918613676304
446,0.125907336665408
447,0.127091118226877
448,0.127332401187821
449,0.131798903853809
450,0.130602304347042
451,0.129292368180652
452,0.128797587569406
453,0.12830280695816
454,0.127808026346913
455,0.127481663955355
456,0.127530463466057
457,0.128996123955501
458,0.12939996168793
459,0.131038918785341
460,0.131053972667339
461,0.129466487968809
462,0.132575497982206
463,0.128462940323209
464,0.126893740838725
465,0.125547340489775
466,0.123785766251234
467,0.123631581452377
468,0.122176286093344
469,0.121158014198758
470,0.123977075093207
471,0.124015724039414
472,0.124164870861659
473,0.125483683207652
474,0.12578211467415
475,0.127228786497328
476,0.124388722936218
477,0.124043038445063
478,0.123697353953908
479,0.123351669462753
480,0.122496830463194
481,0.118956158754059
482,0.116522364563396
483,0.116129882444918
484,0.113555762910346
485,0.111039221002907
486,0.112640020755233
487,0.113691550096155
488,0.114965829380519
489,0.118039291165224
490,0.118706149349756
491,0.11934485246182
492,0.121994840309713
493,0.120471879776529
494,0.12202469553799
495,0.119904263340735
496,0.12033849658718
497,0.118110537749802
498,0.118497144557108
499,0.116087961118659
500,0.117182286452485
501,0.116276686873362
502,0.118507050584934
503,0.119517190817288
504,0.117732447465571
505,0.121394848481436
506,0.120710125178289
507,0.120821162614761
508,0.121316112145719
509,0.12067758067842
510,0.118445824822417
511,0.119843882684352
512,0.118281112696414
513,0.114824201933165
514,0.113376626613651
515,0.111809140885186
516,0.111063638435842
517,0.110928560482035
518,0.110814150237068
519,0.112734955097137
520,0.115053613386356
521,0.116007808511014
522,0.116962003635672
523,0.117916198760329
524,0.11697302913834
525,0.117255755601913
526,0.116967434272662
527,0.116482257212693
528,0.117136061844277
529,0.118353659346005
530,0.117999424599346
531,0.118114428176787
532,0.117693248441447
533,0.118825941505011
534,0.1191305647651
535,0.117486987065341
536,0.118567417690608
537,0.117751985966557
538,0.116691077601354
539,0.116083939261522
540,0.11697660170843
541,0.116017056229475
542,0.115345199627562
543,0.115845417601711
544,0.116306555433739
545,0.115398439680399
546,0.116256695997442
547,0.116078937900501
548,0.115901179803559
549,0.115723421706618
550,0.1150765329869
551,0.115841305466762
552,0.116913637208458
553,0.115618309785557
554,0.115414274106992
555,0.11667625968031
556,0.114865953279888
557,0.114929214870785
558,0.114093511682329
559,0.113586416831454
560,0.114952140039338
561,0.113190293575026
562,0.115095017515174
563,0.113412572896257
564,0.113718993034109
565,0.112560630505146
566,0.112081631300804
567,0.111203094473224
568,0.112017963976698
569,0.111057886251348
570,0.111197871493563
571,0.111401390905612
572,0.111495270306404
573,0.11144451635691
574,0.112128586630585
575,0.110643797903996
576,0.111041428102559
577,0.111439058301122
578,0.111836688499684
579,0.112234318698247
580,0.11263194889681
581,0.114139592906064
582,0.113520170138735
583,0.114263484102599
584,0.112257449923609
585,0.112199051976875
586,0.109824714171033
587,0.108880607209497
588,0.108297838198978
589,0.107715069188458
590,0.107132300177939
591,0.107510666381135
592,0.10844156699105
593,0.108503542044717
594,0.109726123568285
595,0.109698735798923
596,0.110063086527809
597,0.109843385717569
598,0.109830921295541
599,0.109732372859053
600,0.110586576515908
601,0.110925976131249
602,0.111565446064395
603,0.110946561269458
604,0.111722465675107
605,0.110723522205603
606,0.11113345571173
607,0.110681144362303
608,0.109673124641664
609,0.10917365538863
610,0.10852005175292
611,0.107865559176244
612,0.107033649237483
613,0.106493388412675
614,0.105803901655868
615,0.107367848439237
616,0.106099187515567
617,0.107203767019042
618,0.106947370807171
619,0.107324746942323
620,0.107068427000191
621,0.107956672450785
622,0.105618436729331
623,0.105720906344417
624,0.105098838495906
625,0.104476770647395
626,0.103854702798885
627,0.103553326870263
628,0.103400628195491
629,0.102932522352228
630,0.103988842900771
631,0.102547739264984
632,0.103469799379199
633,0.103652592473932
634,0.103986715870985
635,0.104101291701375
636,0.103440820244016
637,0.104413558718398
638,0.103913032230713
639,0.104551897171784
640,0.103910048963022
641,0.103722999645596
642,0.10355877148444
643,0.103196322762561
644,0.102833874040681
645,0.102471425318802
646,0.103810701279848
647,0.10368645539767
648,0.102291818798297
649,0.103732801898184
650,0.102637712344655
651,0.102967078818431
652,0.101654014857803
653,0.0998924300340478
654,0.0983203529800315
655,0.0994846724919493
656,0.0985307466368855
657,0.0999094478653074
658,0.100250029010723
659,0.102194760150465
660,0.103070701922665
661,0.103176201929242
662,0.103382775183188
663,0.102879547746384
664,0.102068597647135
665,0.102568315237872
666,0.102509941763814
667,0.102656192221907
668,0.102740677211638
669,0.101279463965879
670,0.101776355924494
671,0.101380912116567
672,0.101340715866651
673,0.10140850296157
674,0.101726522755806
675,0.101693157463814
676,0.101389597336708
677,0.102066096360812
678,0.101255508724067
679,0.101042155235018
680,0.102911183912371
681,0.101168956106721
682,0.0982413040952824
683,0.0962914709107715
684,0.0926883403779297
685,0.0901543460529744
686,0.088272045467042
687,0.0874041649849364
688,0.0874469913063301
689,0.0884708921399032
690,0.0900408666724918
691,0.0926649061122539
692,0.093534598088874
693,0.0945186737278961
694,0.0959037788751564
695,0.0957288075588007
696,0.0969652321791714
697,0.0973699359308204
698,0.0959320948589065
699,0.0961986009870376
700,0.0977824622814948
701,0.0970434869234427
702,0.0982019305867175
703,0.0978472015951368
704,0.0990961602603149
705,0.0987620923348007
706,0.0995826849711063
707,0.10016424949393
708,0.100197994908071
709,0.100736729027753
710,0.0996695580369501
711,0.0994726636001255
712,0.099518648752951
713,0.0967412004082818
714,0.096056148694848
715,0.0929726416048317
716,0.0909364038864156
717,0.0895736912733397
718,0.0891585296646174
719,0.0895541889733418
720,0.0902990948221031
721,0.0888735153426473
722,0.0912222666185334
723,0.0909774615360701
724,0.090551664113499
725,0.091031656908447
726,0.0906989971044831
727,0.0917531002790708
728,0.0921108249000775
729,0.0937128423595032
730,0.0943139521182424
731,0.0958108275503264
732,0.0966961422948326
733,0.0984930837714671
734,0.0989916104449892
735,0.0983230287461448
736,0.0990281356432652
737,0.0990274523929335
738,0.0990267691426018
739,0.0990260858922701
740,0.10058743875573
741,0.0996988980195148
742,0.100074231882616
743,0.100449565745717
744,0.100824899608817
745,0.100591871358281
746,0.100548537104145
747,0.100606506633233
748,0.0992798130755551
749,0.0999811883546011
750,0.0993899991180156
751,0.0991275625206725
752,0.101050849355789
753,0.0995977485191928
754,0.0963855491365922
755,0.0893817190464041
756,0.0823778889562159
757,0.0753740588660278
758,0.0654791472241103
759,0.0580036921872237
760,0.0543229386013865
761,0.0543053580036984
762,0.0567735014951719
763,0.0617699694820288
764,0.0677638670876244
765,0.0736365229700268
766,0.0801862788321187
767,0.086187476815134
768,0.0896308281987189
769,0.0924220915585674
770,0.0944420148985526
771,0.0943797211544525
772,0.0957968794202441
773,0.0968870392849448
774,0.0963334549118872
775,0.096431696653191
776,0.0967923934710955
777,0.0961850791684872
778,0.0974186898517497
779,0.096554186280805
780,0.0971944838721488
