"wavelength","measurement"
380,0.0017083850900573
381,0.00171463561316455
382,0.00169620186548208
383,0.00166162698851071
384,0.00172316448163812
385,0.00181502805740695
386,0.00192740569840266
387,0.00209253002110886
388,0.0022799161124927
389,0.00236421491318419
390,0.00233656235497563
391,0.00235492506940716
392,0.0023654510747168
393,0.00246847569276622
394,0.00258967938481016
395,0.00273516155858518
396,0.00302889153718187
397,0.00338470269966789
398,0.0037405138621539
399,0.00409632502463991
400,0.0043986992791224
401,0.00476752098136426
402,0.0050058055672146
403,0.005161067192161
404,0.00526417572562959
405,0.00533415893622698
406,0.00551122867668216
407,0.00563931718204498
408,0.00574506248018081
409,0.00593875423117939
410,0.00626790225388087
411,0.00634764882273477
412,0.00656558497129535
413,0.00680576759516303
414,0.00683232552288764
415,0.00693743162855898
416,0.00689906823052605
417,0.00693639394864213
418,0.00702589284490957
419,0.00694126873757209
420,0.00709595801344141
421,0.00709842572928464
422,0.00714471338255546
423,0.00719176069056063
424,0.00727666996666673
425,0.00710688862689706
426,0.00708687104047066
427,0.0069091996101851
428,0.00664989272741069
429,0.00668442049621969
430,0.00664340195263958
431,0.006952943433352
432,0.00714220944778004
433,0.00741698270964151
434,0.00771056574908073
435,0.00791982450728467
436,0.00799685669754144
437,0.00813121722406888
438,0.00826557775059633
439,0.00839993827712377
440,0.00847520246840916
441,0.00865037178294446
442,0.00881987180407184
443,0.00892295962489818
444,0.0090693383191021
445,0.00921571701330602
446,0.00936209570750995
447,0.00953458209752384
448,0.00960589490112278
449,0.00996607317391687
450,0.00991480940170647
451,0.00987211861852226
452,0.00985797385125304
453,0.00984382908398383
454,0.00982968431671461
455,0.00979699714826978
456,0.00980088936610184
457,0.00998054119325137
458,0.0100078418039891
459,0.0101737727496678
460,0.0102148944377036
461,0.0101434937808666
462,0.0103700271119056
463,0.010108241729929
464,0.0100203650517528
465,0.00994591104671401
466,0.0097902522565106
467,0.0097671790101277
468,0.0096532119596281
469,0.00962626723948907
470,0.00979306099391658
471,0.00980742597020009
472,0.00985482024766288
473,0.00999096242749953
474,0.0100144995661685
475,0.0101760365408934
476,0.00994196544357424
477,0.00992149608241713
478,0.00990102672126002
479,0.00988055736010291
480,0.00985489240868445
481,0.00959889752554854
482,0.00942606643418715
483,0.00937269450555432
484,0.00919408595209956
485,0.00893992686334891
486,0.00903927998653706
487,0.00909945181333767
488,0.00921237361982422
489,0.00939775934046706
490,0.00950035218811562
491,0.00956972898095293
492,0.00983797108295711
493,0.00973195530113744
494,0.00988380879009411
495,0.00973026697884463
496,0.00979541729844542
497,0.00959525261333529
498,0.00967325631021482
499,0.00948363060000132
500,0.00951165063971874
501,0.00942765280972205
502,0.00958730557275955
503,0.00962920719303794
504,0.00958348774598991
505,0.00987262854511071
506,0.00980815821148485
507,0.009854106374868
508,0.00990813256948163
509,0.00985690096271776
510,0.00971633142998484
511,0.00986157454365513
512,0.00970791303750538
513,0.00945460939734702
514,0.00936621914190286
515,0.00922770412084133
516,0.00912101485478117
517,0.00911417635733303
518,0.00908175473418958
519,0.00921425798538199
520,0.00940535774724083
521,0.00951322776001419
522,0.00962109777278755
523,0.00972896778556091
524,0.00965261314419488
525,0.00965178256125625
526,0.00967533058298124
527,0.00958456619346035
528,0.00969905529599236
529,0.00977244598193861
530,0.00977670036535504
531,0.00979871611885151
532,0.00973564822402711
533,0.00982277102859974
534,0.00985290176180307
535,0.00970738894657329
536,0.00984065649269
537,0.00975411888961337
538,0.00968831476660209
539,0.00962849291529891
540,0.00966688061211447
541,0.00960682506056187
542,0.00960178435065163
543,0.00962758791853163
544,0.00965973641338923
545,0.00953715293335336
546,0.00960206547080613
547,0.00955689101806303
548,0.00951171656531993
549,0.00946654211257683
550,0.00939905801419022
551,0.00946919508283506
552,0.00950082174225157
553,0.00943053293873883
554,0.00937134231476016
555,0.00946637929749778
556,0.00931515491268128
557,0.00928997683169084
558,0.00920723992611727
559,0.00913001794768942
560,0.00923967707730124
561,0.00906504078542609
562,0.00924633364159701
563,0.00906199255828112
564,0.00909891175695847
565,0.00895625898352418
566,0.00891088545764013
567,0.00881451917787706
568,0.00886213425180956
569,0.00872769234111406
570,0.00872654973852627
571,0.00874402436908743
572,0.00873055932516645
573,0.00871134617826059
574,0.00871566640975828
575,0.00862061352268872
576,0.00862262183293832
577,0.00862463014318791
578,0.00862663845343751
579,0.0086286467636871
580,0.00863065507393669
581,0.0087373646091089
582,0.00867228025783363
583,0.00869480107172289
584,0.008574125801522
585,0.00855275460637854
586,0.00831653582491581
587,0.0082370001499172
588,0.00817309817347497
589,0.00810919619703275
590,0.00804529422059053
591,0.0080422634112861
592,0.00808091703680308
593,0.00807309020203034
594,0.00813142954934087
595,0.00809131642315887
596,0.00809603057162119
597,0.00808656771523875
598,0.00804461269265214
599,0.0080046650087265
600,0.00804297692521916
601,0.00806912240644541
602,0.00808977924194953
603,0.00798521135097127
604,0.00803922665779471
605,0.00795856909580588
606,0.00796827580094193
607,0.00792555051921939
608,0.0077928687335104
609,0.00778896256335513
610,0.00774365623682863
611,0.00767331739328445
612,0.00761323798014757
613,0.00754206159710541
614,0.00738612477130734
615,0.00747640258380602
616,0.00738574197720611
617,0.00743340703970659
618,0.00738776094574706
619,0.00739095324395485
620,0.00734004846207757
621,0.00736851421873962
622,0.00720623373121592
623,0.00722570309039808
624,0.00714739217096706
625,0.00706908125153603
626,0.00699077033210501
627,0.00696317877083099
628,0.00691988251717032
629,0.00689137510434755
630,0.00692155650189511
631,0.00683350432008374
632,0.00683533636328054
633,0.00683035682366839
634,0.00681478724678368
635,0.00682358528065503
636,0.00678855736511171
637,0.00679175356662338
638,0.00671840152929978
639,0.00673519553651268
640,0.00670334158717609
641,0.00664726294313508
642,0.00662162035811818
643,0.00658062770476608
644,0.00653963505141398
645,0.00649864239806187
646,0.00655818291358405
647,0.00649660769032428
648,0.00637729771607218
649,0.00648466585788602
650,0.0064000324568682
651,0.00642583736884591
652,0.00634319954383316
653,0.00619051510702816
654,0.006040202045213
655,0.00606948581461766
656,0.00599670626965448
657,0.00601036084290879
658,0.00603510305467195
659,0.00618124105074403
660,0.00622677080530326
661,0.00619989392931675
662,0.00620891163530578
663,0.00612241246380951
664,0.00607036661938511
665,0.00610681440093114
666,0.00610822657550671
667,0.00609379889482014
668,0.00605900003667662
669,0.00595240766767053
670,0.00596864059479084
671,0.00593396792882253
672,0.00589493204865173
673,0.00589533664366524
674,0.00591086356569751
675,0.00590759246616927
676,0.00585651340993249
677,0.00587848915043171
678,0.00582695383549025
679,0.00580017309744817
680,0.00591174436526128
681,0.00578887798798577
682,0.00567368595387461
683,0.00555525074184163
684,0.00534763630069481
685,0.0051868980273205
686,0.00504811982218163
687,0.00498083067812259
688,0.00490650518439009
689,0.00496645911091134
690,0.00503234057495608
691,0.00522068390499253
692,0.00528696749338855
693,0.0053250901591115
694,0.00543985357263739
695,0.00543864423030409
696,0.00552253257221683
697,0.00552049619950779
698,0.0054563358644603
699,0.00546476643635128
700,0.00558387489170879
701,0.0055268812640387
702,0.00562550218542337
703,0.00564022836498576
704,0.00570994276251143
705,0.00567621440970419
706,0.00575927853066997
707,0.00581465115552972
708,0.00580376034440071
709,0.00583866571828666
710,0.00580066840375707
711,0.00578897521384557
712,0.00587688101793403
713,0.00574277551168286
714,0.00568689130127255
715,0.00555634490611076
716,0.00543920857569028
717,0.00536624142126875
718,0.00534764645330219
719,0.00543017807830858
720,0.00536146019426348
721,0.00533321041332479
722,0.00551207321381198
723,0.00549120064070423
724,0.00550422455414482
725,0.00550882933131408
726,0.00548396763734644
727,0.00555066522621118
728,0.00557084378729467
729,0.0056254330482337
730,0.00570247481239421
731,0.00582338826242284
732,0.00582500420035478
733,0.00595368010471773
734,0.0060525399538833
735,0.00597656006262494
736,0.00603545366783853
737,0.00602909301152695
738,0.00602273235521537
739,0.0060163716989038
740,0.00603973860854355
741,0.00603192616846964
742,0.00603430118452407
743,0.0060366762005785
744,0.00603905121663293
745,0.00605943869529811
746,0.00601702123990195
747,0.00603981226415338
748,0.00596797908262771
749,0.00597513236114971
750,0.00590940128627678
751,0.00586916504515571
752,0.00599859874662513
753,0.00576341633498877
754,0.00582277299955649
755,0.00543563052473196
756,0.00504848804990742
757,0.00466134557508289
758,0.00410565007656377
759,0.00352960896885079
760,0.00319153568253529
761,0.00307395910138409
762,0.00315023385418326
763,0.00337658580407945
764,0.0037113212556546
765,0.00403306115946303
766,0.00441127111477164
767,0.00477115911469905
768,0.00499506480369612
769,0.0051298786493209
770,0.00523066016543652
771,0.00529683688813436
772,0.00528661988852282
773,0.0053643955073567
774,0.00533110107425968
775,0.00530059674369121
776,0.00536184035943175
777,0.0052843162103309
778,0.00532325295497576
779,0.00521620586872771
780,0.00524284695207307
