"wavelength","measurement"
380,0.00128063805275101
381,0.00127567264314919
382,0.00127843774242353
383,0.00128072781577376
384,0.00131569191358288
385,0.00140666285013786
386,0.00147525185014772
387,0.00160897159778561
388,0.0016707018064913
389,0.00177022323391346
390,0.00178129672361624
391,0.00179547863101781
392,0.00183937167441303
393,0.00186091245435586
394,0.00199180129520824
395,0.00210433453711581
396,0.00231270758625437
397,0.00258474919875652
398,0.00285679081125867
399,0.00312883242376083
400,0.00330240470859171
401,0.00352660414718868
402,0.00366739572217539
403,0.00379126945479038
404,0.00379292260633117
405,0.00382617455051525
406,0.00393930174137761
407,0.00395695847063716
408,0.00401990889911926
409,0.00413362880623619
410,0.00433794427605847
411,0.00436415660518715
412,0.00452582259954926
413,0.00464734399841355
414,0.00467028267957791
415,0.00472068308449134
416,0.00468500562310019
417,0.00468209964899787
418,0.00471666341542092
419,0.00465880533190847
420,0.00477807200162461
421,0.00475815985006494
422,0.00483018597169159
423,0.00488669396895255
424,0.00488784727421471
425,0.00484411545328236
426,0.0047857361740441
427,0.00469870172629086
428,0.00451027191482989
429,0.00452161730888376
430,0.00454643762741616
431,0.00473143540966068
432,0.0049167048192
433,0.00508031277504132
434,0.00533259726733634
435,0.00547847573615837
436,0.00549166601809542
437,0.00559804203442172
438,0.00570441805074803
439,0.00581079406707434
440,0.00584466385088484
441,0.00599270998993206
442,0.00614205061180702
443,0.00626916251414683
444,0.00637253181283914
445,0.00647590111153145
446,0.00657927041022377
447,0.00672522321823262
448,0.00677950559731482
449,0.0070411573399274
450,0.00703382043540431
451,0.00698224819817542
452,0.00697181583413436
453,0.00696138347009331
454,0.00695095110605225
455,0.00697709566575334
456,0.00692231746583768
457,0.00713375753859811
458,0.00712551797976037
459,0.0072752882379743
460,0.00730922689902287
461,0.00725522741391568
462,0.00747415697358863
463,0.00721049843878986
464,0.00718889230029357
465,0.00714927031481941
466,0.00703176187031
467,0.00704405319168925
468,0.00695363279033686
469,0.00690823137840537
470,0.00709837964912216
471,0.00709989902794152
472,0.00715619991305287
473,0.00725449976269215
474,0.00729722787565177
475,0.00743441584309509
476,0.00723422680635003
477,0.00724265886217199
478,0.00725109091799395
479,0.00725952297381592
480,0.00724403852537187
481,0.00702768303463844
482,0.006944448457064
483,0.0068986269842855
484,0.0067761798273814
485,0.00663783378814444
486,0.00671934068241991
487,0.00676674482099327
488,0.00684711328339868
489,0.00699944331525666
490,0.00711913997628656
491,0.00716876637890877
492,0.00735697915630231
493,0.00727858193015798
494,0.00740750836120527
495,0.00732011798522576
496,0.00735721905696836
497,0.00722074884727356
498,0.00728439020013602
499,0.00715283828254351
500,0.00717961594110326
501,0.00712500286163945
502,0.00727253834584903
503,0.0072970051504525
504,0.00727747781806803
505,0.00753375280181597
506,0.00749036936819325
507,0.00752527563725259
508,0.00756810537449357
509,0.00754348760204899
510,0.00743932394101847
511,0.00755287632911327
512,0.00745859128914232
513,0.00726744208739314
514,0.00722614688165794
515,0.00710916837850683
516,0.00706595188353031
517,0.00705205423070705
518,0.00702930714771386
519,0.00713159696924815
520,0.00731901207354794
521,0.00740526518320918
522,0.00749151829287042
523,0.00757777140253166
524,0.00752346436448302
525,0.0075539918521025
526,0.00754681250745192
527,0.0074910515267024
528,0.0075888713611186
529,0.00765875628875784
530,0.00768192897726123
531,0.00768115818064439
532,0.00764827658400825
533,0.00774418569253316
534,0.00776543073273069
535,0.0076773919214264
536,0.00775724867780626
537,0.00774039662474035
538,0.00766909758058318
539,0.0076373186613637
540,0.00768475255865696
541,0.00763890085317489
542,0.00763201637645277
543,0.00768222926899652
544,0.00771296099637292
545,0.00763585264012071
546,0.00768763271339228
547,0.00766061378852692
548,0.00763359486366156
549,0.0076065759387962
550,0.00755789743321165
551,0.00760795050306139
552,0.00762383209730593
553,0.00757722847206477
554,0.00753558065554345
555,0.0076204585871659
556,0.00752551174265363
557,0.00751506986426549
558,0.0074567212986551
559,0.00738729884059608
560,0.0074854542503562
561,0.0073593821359185
562,0.00748888017030775
563,0.00737698884334086
564,0.00739939522776074
565,0.00728851129168366
566,0.00726669530466771
567,0.00718452627371941
568,0.0072571412779481
569,0.00715959181824168
570,0.00714755117390961
571,0.0071660052351414
572,0.00716723800278469
573,0.00715392718927632
574,0.0071815522217059
575,0.0071206656083877
576,0.00712536051606564
577,0.00713005542374358
578,0.00713475033142152
579,0.00713944523909945
580,0.00714414014677739
581,0.00721542407416292
582,0.00718731232323675
583,0.00720694428593678
584,0.00710616657235214
585,0.00709862952948627
586,0.00695429789076496
587,0.00685073047730297
588,0.0067978543677779
589,0.00674497825825282
590,0.00669210214872775
591,0.00671554266229541
592,0.00675228142835381
593,0.00675597301849731
594,0.00680266121146802
595,0.0067456254923446
596,0.00677382730461269
597,0.00676737616951871
598,0.00673444361526628
599,0.00670680172815453
600,0.00671676092642969
601,0.00673486529040735
602,0.00676050265125357
603,0.00671681714529458
604,0.00676012134235197
605,0.00666907416507885
606,0.00668460441829788
607,0.0066541038970177
608,0.00655873455477908
609,0.00656114244959442
610,0.00652744548441295
611,0.00645954850970258
612,0.0063891941544704
613,0.00636194171577245
614,0.006231315991785
615,0.00626808685275929
616,0.00623045573005076
617,0.00627483081524044
618,0.00622541202064208
619,0.00624972541757955
620,0.00620528568299062
621,0.00625303737146946
622,0.00610184271882784
623,0.00611108238767377
624,0.00604837764960398
625,0.00598567291153419
626,0.0059229681734644
627,0.00591025025490645
628,0.00587522531871286
629,0.00584345029960837
630,0.00588709061809278
631,0.00579410554250757
632,0.00579589818299509
633,0.00581424025721839
634,0.00578654681083693
635,0.00581413658861365
636,0.00577033512376936
637,0.00579348774246533
638,0.00572675258651324
639,0.00574442432226143
640,0.00569535781486694
641,0.00567892155807834
642,0.0056362151864254
643,0.00561159189912916
644,0.00558696861183292
645,0.00556234532453667
646,0.00559243091458241
647,0.00557258487696431
648,0.00546238817568316
649,0.0055550557800573
650,0.00545982246479263
651,0.00550139352410423
652,0.00541629103720273
653,0.00528484876391734
654,0.00517107367468593
655,0.00519932664839559
656,0.00516381023445555
657,0.00514943755938763
658,0.00518988570383992
659,0.00531603888311236
660,0.00533130546334256
661,0.005331094025494
662,0.00534440831421415
663,0.00529073602988797
664,0.00522610411411786
665,0.0052510852038927
666,0.00525522377839476
667,0.00525114909870885
668,0.0052321239607889
669,0.00514290595492791
670,0.00515233849540969
671,0.00511012425459281
672,0.00511431033279618
673,0.00510727571126728
674,0.00512303639555963
675,0.00510497249329898
676,0.00507923977465937
677,0.00511026197807583
678,0.00504649455539435
679,0.00500454040260409
680,0.00513410728000551
681,0.00501712466867258
682,0.00491462075832084
683,0.00483523910446878
684,0.00466150042333411
685,0.00451488554795675
686,0.00440713852570247
687,0.00434194690058266
688,0.00428266087060273
689,0.00436528803972631
690,0.00443614923449395
691,0.00457770022426828
692,0.00461662951152861
693,0.00465741740950553
694,0.00476465977757639
695,0.00474933645244679
696,0.00486467215071569
697,0.00484584754634207
698,0.00478308293929599
699,0.00482099637502355
700,0.00489335393065263
701,0.00483735631360459
702,0.00491115033407642
703,0.00492454357295321
704,0.0050064969099627
705,0.00494088522395641
706,0.0050215995472898
707,0.00507767401580491
708,0.0050630299491776
709,0.00509301878753784
710,0.00506054978715562
711,0.00505257286113159
712,0.0051195615337044
713,0.00496534464774934
714,0.00495060345305039
715,0.00481613031016827
716,0.00471153431151054
717,0.00462341127305112
718,0.00461999521506908
719,0.00468699675674256
720,0.00466578500662709
721,0.00458001616372157
722,0.00470248183009982
723,0.00471660049744193
724,0.00468856659755569
725,0.00470721131903976
726,0.00469102114734333
727,0.00473805448485618
728,0.00474566297830625
729,0.00475786300372705
730,0.00482874466250574
731,0.00488997684332469
732,0.00491685459216095
733,0.00498692649772868
734,0.00502488125859452
735,0.00502122547663701
736,0.0050348968647722
737,0.00501784429813218
738,0.00500079173149217
739,0.00498373916485216
740,0.00502428913898372
741,0.00501321192795609
742,0.00500563769097157
743,0.00499806345398704
744,0.00499048921700251
745,0.00501544927054046
746,0.00498326627702536
747,0.00496864787171813
748,0.00487697820839334
749,0.00490633691649961
750,0.00487350347721697
751,0.00483436690715345
752,0.00487734415523726
753,0.00472828882981691
754,0.004748152014311
755,0.00443400273061423
756,0.00411985344691745
757,0.00380570416322068
758,0.00333773265796668
759,0.00289027934089817
760,0.0025906530042541
761,0.00252163269298298
762,0.00261900461672019
763,0.00280685993078015
764,0.00302952662906357
765,0.00334553051433326
766,0.00364622094714267
767,0.00392999370070604
768,0.00411174344996836
769,0.00421150608552245
770,0.00425663209707766
771,0.00430184293963048
772,0.0043421060075692
773,0.00437319454183736
774,0.00434983736389784
775,0.00430700199565298
776,0.00435396977748617
777,0.00426959673986559
778,0.00428990359505321
779,0.00424063218062234
780,0.00425713464016231
