"wavelength","measurement"
380,0.000554524912626741
381,0.000583458853224628
382,0.00060478883513673
383,0.000586072349780256
384,0.000600557247735531
385,0.000637723271326795
386,0.000668100380952853
387,0.000741376128939566
388,0.000757371749869524
389,0.000814618267926377
390,0.000806409274907091
391,0.000818225039708056
392,0.000825237156348626
393,0.00086111689885985
394,0.000934447460469023
395,0.000980924024598267
396,0.0011161895908702
397,0.0012540262541755
398,0.00139186291748079
399,0.00152969958078609
400,0.00162095386847539
401,0.00169794204320336
402,0.00182220142610626
403,0.00186810834087101
404,0.00188978158344748
405,0.00192828506196038
406,0.00199080859165007
407,0.0020360853993249
408,0.00209158317580202
409,0.00214260093062389
410,0.00229317921237181
411,0.00231825741811818
412,0.00238351258938024
413,0.00246145594061226
414,0.00247480782124944
415,0.00251255491695245
416,0.00247978261029517
417,0.00250852898579547
418,0.00254547094545353
419,0.00249858584266236
420,0.00259034626248923
421,0.00260659267975372
422,0.00261810323460115
423,0.002649722329574
424,0.00266270087809229
425,0.0026098552107344
426,0.0025841087527403
427,0.00253851391858263
428,0.00248108073450796
429,0.00245996104265496
430,0.0025083955226648
431,0.00261805145422552
432,0.00270711568966834
433,0.00278710557425712
434,0.00290448876619784
435,0.00298406050632834
436,0.00302305717776426
437,0.0030705567259208
438,0.00311805627407735
439,0.00316555582223389
440,0.00318494180508363
441,0.003281600204776
442,0.00333665633223317
443,0.00340250091402893
444,0.00345830967132682
445,0.00351411842862471
446,0.0035699271859226
447,0.00365525768597047
448,0.00367912675928661
449,0.00379921462437559
450,0.00378419964960851
451,0.00377235626317856
452,0.00376586826359464
453,0.00375938026401071
454,0.00375289226442679
455,0.00379035550561999
456,0.00378529827636792
457,0.00388982747086064
458,0.00390324044302195
459,0.00398401077277922
460,0.00398827090707113
461,0.00396270884731248
462,0.00407132638840454
463,0.00392892230357197
464,0.0039168519542574
465,0.00389057692664829
466,0.00383665889558355
467,0.0038298464504107
468,0.00380947127527056
469,0.00379316857716793
470,0.00390314456049474
471,0.00390671943703947
472,0.00392288954803528
473,0.00398119291795854
474,0.00398607900356377
475,0.00406451183743003
476,0.0039648039404772
477,0.00396677590268269
478,0.00396874786488818
479,0.00397071982709368
480,0.0039417444096485
481,0.00383955298920214
482,0.00377621741733813
483,0.00376775516681025
484,0.00370192043683062
485,0.00363136418493764
486,0.00369747878023296
487,0.00373959287514638
488,0.00378403674871464
489,0.0038701886692195
490,0.00391617478207784
491,0.00395457922999682
492,0.00405152707118418
493,0.00401264579846838
494,0.00408698634291305
495,0.00400390047466386
496,0.00404238110913895
497,0.00397900185153104
498,0.00398949009027955
499,0.00392438016399071
500,0.00396638967913116
501,0.00393869183922497
502,0.00404329711589167
503,0.00407539018368253
504,0.0040373204407227
505,0.00416138840470931
506,0.00414149042422562
507,0.00417117888443078
508,0.0041866963857536
509,0.00417802547552406
510,0.00411063724028116
511,0.00416425110699238
512,0.0041206667325019
513,0.0040057705713416
514,0.00398289080474658
515,0.00393237200887817
516,0.00392075288510156
517,0.003927971511674
518,0.00392816462626413
519,0.00398136371260354
520,0.00411308451591492
521,0.00414805444023891
522,0.00418302436456291
523,0.0042179942888869
524,0.00419849181512095
525,0.00422387847496983
526,0.00421119247206419
527,0.00420942038498344
528,0.00426162136495914
529,0.00428956354666001
530,0.00430023513162463
531,0.00430178734416152
532,0.00429849529323756
533,0.00434047941973559
534,0.00436342096825831
535,0.00431642300434353
536,0.00435133731352062
537,0.0043209887030904
538,0.00428913210958031
539,0.00426718467898116
540,0.00431861435068663
541,0.00427686939591763
542,0.004253073633995
543,0.00429637880539816
544,0.00429767902437248
545,0.00425476428175105
546,0.00427760718558242
547,0.00427739753149482
548,0.00427718787740721
549,0.00427697822331961
550,0.0042549929565669
551,0.00428144195319949
552,0.00429913103170053
553,0.00427118954398115
554,0.00426166586434154
555,0.004300192711058
556,0.0042504317033401
557,0.00424247021486422
558,0.00421931448213668
559,0.00418223309676557
560,0.00422783974504594
561,0.00415087414629612
562,0.00423615066537902
563,0.00415064083808455
564,0.00416498418906659
565,0.00411053065298511
566,0.00410127685634791
567,0.00403419082259001
568,0.00408059387440238
569,0.00403892196570182
570,0.00403662438970928
571,0.00404949485402524
572,0.00404714491675632
573,0.00403598186247336
574,0.00404138306973924
575,0.00400201579349681
576,0.00400705439028506
577,0.00401209298707331
578,0.00401713158386155
579,0.0040221701806498
580,0.00402720877743804
581,0.00406547131938571
582,0.00404901969120248
583,0.00404857707811128
584,0.00398619975199721
585,0.00396050450038602
586,0.00387880208355009
587,0.00384463803817538
588,0.00381662842706683
589,0.00378861881595828
590,0.00376060920484974
591,0.00377412374308678
592,0.0037993616108616
593,0.00379943003689699
594,0.00381738515059162
595,0.0038006398153443
596,0.00380817760031005
597,0.0038044367798636
598,0.00379909574732549
599,0.00377293405901571
600,0.00378737237026039
601,0.00380437813213024
602,0.00381062162451109
603,0.00378085039015632
604,0.00380334208530527
605,0.00375523002694643
606,0.00375338815240871
607,0.00374068365625016
608,0.00368653814491606
609,0.00366916363802976
610,0.00363740803318896
611,0.00360279039808768
612,0.00356247496078911
613,0.00355830105915692
614,0.00351307728742532
615,0.00352748238887737
616,0.0035053395534485
617,0.00353884344222456
618,0.00351587902897856
619,0.00350229780629909
620,0.00346477058931326
621,0.00351296902392103
622,0.00341605562519724
623,0.00343613639943462
624,0.00340722318442887
625,0.00337830996942312
626,0.00334939675441737
627,0.00331143541482957
628,0.0033020255230826
629,0.0033022684021897
630,0.00331853951207902
631,0.00326742431975607
632,0.00326883423978363
633,0.00328119396992297
634,0.00328975854997804
635,0.00326316284055187
636,0.00324568569091363
637,0.00325703545331595
638,0.00323036163715193
639,0.00323674149910699
640,0.00321397822011859
641,0.00319957110206454
642,0.00317082369652568
643,0.00315551104452282
644,0.00314019839251995
645,0.00312488574051708
646,0.003146021118224
647,0.00312621429402402
648,0.00307710739375484
649,0.00312675742117946
650,0.00307599993015834
651,0.00307414836294256
652,0.00304156760053261
653,0.00296125137668025
654,0.00291501401568203
655,0.00292738322484082
656,0.00290432533631633
657,0.00291398523033887
658,0.00292889424076572
659,0.00299718179828702
660,0.00300015550060899
661,0.00298271475706879
662,0.00299072155192259
663,0.00294928245523524
664,0.00293122609339383
665,0.00292363990265732
666,0.00292210771370612
667,0.00292492330199541
668,0.00292280291840348
669,0.00289053271308736
670,0.0028680441110381
671,0.00285873421525937
672,0.00285424296791899
673,0.00284886431739624
674,0.00285268691222588
675,0.00284224122322307
676,0.00282201994675598
677,0.00284581360938624
678,0.00280268873434737
679,0.00276956829860475
680,0.00285241555012847
681,0.00278936854525664
682,0.00269159487681253
683,0.00266215133002364
684,0.00254322970710187
685,0.00248770611641692
686,0.00242833134738526
687,0.00242525147771625
688,0.00240704412521598
689,0.00243652173887374
690,0.00248811920238591
691,0.00256326937229984
692,0.00260284955433477
693,0.00261918405534975
694,0.00266350896543958
695,0.00267528521889087
696,0.00272090164974015
697,0.00272418616306177
698,0.00269743010547041
699,0.00272686909253017
700,0.00277527597628446
701,0.00275502803122144
702,0.00278431085352859
703,0.00279774675605139
704,0.00286103123076123
705,0.00284419367012136
706,0.00288539295332171
707,0.00293168398208651
708,0.00292698944103567
709,0.0029365847626502
710,0.0029096757801992
711,0.00293429255563525
712,0.00295316582129454
713,0.00289146592297672
714,0.00286593376850785
715,0.00279354362533474
716,0.00275192848781357
717,0.00272476176227761
718,0.00270867175330871
719,0.00275365411154653
720,0.00277476180500826
721,0.00273500993025545
722,0.00281338190939332
723,0.00281191315617338
724,0.00281111746797731
725,0.00281766491196047
726,0.00283088770378536
727,0.00285264036486726
728,0.00287097935339775
729,0.00289509075769479
730,0.00294714686957782
731,0.00298284676383564
732,0.00300308323877877
733,0.00305822732490574
734,0.00308210903173757
735,0.003056069463849
736,0.00311420760653685
737,0.00309677016332786
738,0.00307933272011886
739,0.00306189527690987
740,0.0030949018002693
741,0.00308738730878008
742,0.00309500155099981
743,0.00310261579321953
744,0.00311023003543926
745,0.00311142858005226
746,0.00307492936495034
747,0.00309318095102935
748,0.0030080471825324
749,0.00306147833404341
750,0.00302447443080681
751,0.00300077236012201
752,0.00302145979838019
753,0.00296090254001332
754,0.0028829057360676
755,0.00267492046059136
756,0.00246693518511512
757,0.00225894990963887
758,0.00196810026596402
759,0.00174065621944839
760,0.00164484238854388
761,0.00164086641736652
762,0.00170590151035644
763,0.001847915857786
764,0.00201362439701524
765,0.00215345579147168
766,0.00234944171953057
767,0.00248521260587265
768,0.00258890312871829
769,0.0026526857197383
770,0.00271045229883724
771,0.00272014042577314
772,0.0027384213377822
773,0.00275434881228395
774,0.00272003775863397
775,0.00269562792261817
776,0.0027214040762861
777,0.00267700683652068
778,0.00270097064096136
779,0.00268463227241994
780,0.0026934877245572
