"wavelength","measurement"
380,0.00297547698735026
381,0.00295066034525933
382,0.00294480485085293
383,0.00295365288154983
384,0.00301643903129086
385,0.00327119194183044
386,0.00345466672015911
387,0.00369582967615878
388,0.0039547759457324
389,0.00413199000840478
390,0.00415548310881549
391,0.00417412311343169
392,0.00425834923673528
393,0.00437853527091005
394,0.00461673594201376
395,0.00486347192374674
396,0.00545299914692494
397,0.00612161142484974
398,0.00679022370277455
399,0.00745883598069935
400,0.00786385270344092
401,0.00840432304659629
402,0.00881814898999204
403,0.00900529442060009
404,0.00912570900471799
405,0.00914970317138565
406,0.00942171029048642
407,0.00956186068547746
408,0.00969741394224739
409,0.00998021528787925
410,0.010463227522671
411,0.010603992805572
412,0.0109120468595038
413,0.0112051152260892
414,0.0112678176820166
415,0.0113965698023677
416,0.0113241984347276
417,0.0112937687464859
418,0.0114595354525457
419,0.0112333601131942
420,0.0115633966855064
421,0.0115488272437717
422,0.0116381832329844
423,0.0118211809801697
424,0.0118744038098739
425,0.0117177919164423
426,0.0115782078271344
427,0.0112847214373486
428,0.0109260589866799
429,0.0109516758753902
430,0.0109834504752358
431,0.0114172937261202
432,0.0118451002653626
433,0.012278486602109
434,0.0128325301918455
435,0.0131863769250583
436,0.0133023902851396
437,0.0135417939370812
438,0.0137811975890228
439,0.0140206012409644
440,0.0141410995611709
441,0.0144529194630708
442,0.0148074442282125
443,0.0150495995626037
444,0.0153163463001822
445,0.0155830930377607
446,0.0158498397753392
447,0.0161803908715247
448,0.016275574540843
449,0.0169471325569674
450,0.0169349675068852
451,0.0168211154763972
452,0.0168055666648325
453,0.0167900178532677
454,0.016774469041703
455,0.0168318224715417
456,0.0168724795206926
457,0.0171643164281434
458,0.0172799554792848
459,0.0176245507167564
460,0.017700668867574
461,0.0175348989075921
462,0.0180945444589079
463,0.0175502710387271
464,0.0174077198539762
465,0.0172857440473749
466,0.0170589202564297
467,0.0170351696354332
468,0.0169062384780462
469,0.0167829386051581
470,0.0172003841447657
471,0.0172002218837713
472,0.0173330439493146
473,0.0175798076326688
474,0.0176637797137692
475,0.0179443362338771
476,0.0175636446215486
477,0.0175668507480882
478,0.0175700568746278
479,0.0175732630011673
480,0.0175188972009354
481,0.0170402540712278
482,0.0167461313507579
483,0.0167102946143736
484,0.0163438060484018
485,0.0160078914170338
486,0.0161936129026067
487,0.0163043752297626
488,0.0164984821016555
489,0.0169616812080972
490,0.0171429613584009
491,0.0173135081738819
492,0.0177438026368623
493,0.0175718269722791
494,0.0178599639664761
495,0.0176310662277301
496,0.0177308346581577
497,0.0174161281452848
498,0.017525173773119
499,0.0171904844737388
500,0.017311907470476
501,0.0171990522850142
502,0.0175311652558664
503,0.0176537080095565
504,0.0175117888294761
505,0.0181221891306736
506,0.0179979167418552
507,0.0180684609656007
508,0.0181885311784284
509,0.0181301043440769
510,0.0178819130501945
511,0.0181304564467774
512,0.0179253211261136
513,0.0174358297526122
514,0.0173161434180062
515,0.017041143323605
516,0.0169201509872417
517,0.0169008197547337
518,0.0168405937812817
519,0.0171561847236734
520,0.0174970385128038
521,0.017707524223464
522,0.0179180099341242
523,0.0181284956447845
524,0.0180241488741003
525,0.0180896754903439
526,0.0180962120204243
527,0.0180080882318005
528,0.018144040562775
529,0.018328169705627
530,0.0183325421865249
531,0.0183790675096703
532,0.0182856468797385
533,0.0184941207532976
534,0.018541851620562
535,0.0182977356140422
536,0.0185350950181359
537,0.0184188176533073
538,0.0182853926377619
539,0.0181828162444557
540,0.0182876842723677
541,0.0181736998788059
542,0.0180972134688022
543,0.0182099732900963
544,0.0182726868288268
545,0.0181081304652146
546,0.0182643588733384
547,0.0182083002769147
548,0.018152241680491
549,0.0180961830840673
550,0.0179740466976594
551,0.0181160425484729
552,0.0182299344027489
553,0.018036929580127
554,0.0179594724699671
555,0.0181528446348349
556,0.017922950574538
557,0.0178957470388916
558,0.0177512012950145
559,0.017624423533203
560,0.0178097373710713
561,0.017521426428038
562,0.0178261653446871
563,0.0175560597385748
564,0.0176163906042114
565,0.0173791384429621
566,0.0173085067293731
567,0.0171167114237943
568,0.0172168501421624
569,0.0170438808885166
570,0.0170305483594318
571,0.0170373754578887
572,0.0170493188259865
573,0.0169896413928473
574,0.0170804001762539
575,0.0168665040465993
576,0.016886872800781
577,0.0169072415549628
578,0.0169276103091445
579,0.0169479790633263
580,0.016968347817508
581,0.0171428796122616
582,0.0170359935463092
583,0.0171178461821187
584,0.0168396554681814
585,0.0168416302005121
586,0.0164560883510033
587,0.0162900769216441
588,0.0161531283098496
589,0.0160161796980552
590,0.0158792310862607
591,0.0159498275829395
592,0.0160302035883841
593,0.0160318106458418
594,0.0161687271354349
595,0.0160762959637209
596,0.016114705855171
597,0.0161059774994958
598,0.0160189346808191
599,0.0159407384968059
600,0.0159937875256737
601,0.0160501207301574
602,0.0160646281754133
603,0.0159482358334957
604,0.0160251684475581
605,0.0159349533316512
606,0.0159100191268514
607,0.0158085853741037
608,0.0156213279917806
609,0.015573702722866
610,0.0154499460629705
611,0.0153042020837302
612,0.0151506426866968
613,0.0150679749610107
614,0.0148520519988131
615,0.0149759002713942
616,0.0148031927444257
617,0.0149255894575506
618,0.0148303629476996
619,0.0148676258470571
620,0.0147565226695903
621,0.0148629264732535
622,0.0145322359297998
623,0.0145186355141439
624,0.0143871120023064
625,0.014255588490469
626,0.0141240649786315
627,0.0140821958995909
628,0.0139972960008087
629,0.0139515160751302
630,0.0140130172477304
631,0.0138126896870014
632,0.0138309221083766
633,0.0138416004594903
634,0.013806567356005
635,0.0138781250080792
636,0.0137321267007505
637,0.0138247454953473
638,0.0136760282088388
639,0.0137109301837726
640,0.0136051521253669
641,0.0135476120370886
642,0.0134541734606763
643,0.0133751897431371
644,0.0132962060255979
645,0.0132172223080587
646,0.0133202227494046
647,0.0132636061683065
648,0.0130335904406591
649,0.013210142968556
650,0.0130077576664077
651,0.0130869028653083
652,0.0128938075716163
653,0.0126158540717826
654,0.0123389582783892
655,0.0123967231549764
656,0.0122056112655593
657,0.012286586254151
658,0.0123573542768601
659,0.012621456661741
660,0.0126687291393121
661,0.0126660018106484
662,0.0126540236234717
663,0.0125357789978589
664,0.0124280857167534
665,0.0124181837285684
666,0.0124176080185405
667,0.0123955783304263
668,0.0123701594577978
669,0.0121188865526958
670,0.0121643320228873
671,0.0120579505232911
672,0.0120186154127725
673,0.0120328552865959
674,0.0120184219966539
675,0.0119875826679695
676,0.0118979432571363
677,0.0119834808074843
678,0.0117899621732866
679,0.0117682030257077
680,0.0120153642601384
681,0.0117518293665977
682,0.0114797469705465
683,0.0112359937834392
684,0.0108153233748069
685,0.0104539775468033
686,0.0102116205125812
687,0.0100003232908292
688,0.00989312366396786
689,0.00999885148417903
690,0.0102092844042192
691,0.0105324568731509
692,0.0106442572190079
693,0.0107094595491769
694,0.0109404009771427
695,0.0109499124941586
696,0.0110933236946308
697,0.0111188282543585
698,0.0109779549813791
699,0.0110305280245978
700,0.0112223498856949
701,0.011126327927298
702,0.0112492491499465
703,0.0112514374782282
704,0.0114364175294532
705,0.0113558156010445
706,0.011515466272407
707,0.0116368575581679
708,0.0116194983439246
709,0.0116856117833884
710,0.0115757326106935
711,0.0116126278782939
712,0.0117091678671774
713,0.0114243917943268
714,0.0113495801482594
715,0.0110558351324427
716,0.0108024796993216
717,0.010595431005647
718,0.0105394199107812
719,0.0106542452742939
720,0.0106692391417835
721,0.0105331086898719
722,0.0108422538926599
723,0.0108607255547283
724,0.0108341171073404
725,0.0108765171808291
726,0.010821548570198
727,0.010974502224809
728,0.0110120266088263
729,0.0111073145305665
730,0.011212941320289
731,0.0113718487469578
732,0.0114985848079124
733,0.0116795135630785
734,0.011738609251551
735,0.0117680607534271
736,0.0118308237621674
737,0.0118062468791905
738,0.0117816699962136
739,0.0117570931132367
740,0.011873581824844
741,0.0117905247367356
742,0.0118047957600054
743,0.0118190667832753
744,0.0118333378065452
745,0.011838221095171
746,0.0117846125214766
747,0.0118033641562239
748,0.011612042006487
749,0.0116373674066025
750,0.0115592260362957
751,0.0114924343739823
752,0.0116082826806628
753,0.0113646701498807
754,0.0112036519519062
755,0.0104686088053936
756,0.00973356565888104
757,0.00899852251236844
758,0.00785628569975371
759,0.00679087901791642
760,0.00608191023881792
761,0.0058901411693175
762,0.00610703432903727
763,0.006541624850838
764,0.00720073346390029
765,0.00784891376363359
766,0.00857153813596655
767,0.00931694510439652
768,0.00966411084289218
769,0.00996455354215975
770,0.0101327939810183
771,0.0102679156230933
772,0.0103093370080392
773,0.0104152475658442
774,0.0103280471951311
775,0.0102444057857803
776,0.0103024859661224
777,0.0101273656883432
778,0.0102043556292848
779,0.0100834962824693
780,0.010171689587247
