"wavelength","measurement"
380,0.00377312302428815
381,0.00369551395083757
382,0.00389146875034905
383,0.00368139412196726
384,0.00387645865303007
385,0.00414223744930333
386,0.00441347206980899
387,0.00477821609445569
388,0.00504137912572478
389,0.00524543400005067
390,0.00532436194133995
391,0.00528125188816531
392,0.00534250509939072
393,0.00557625061026446
394,0.00578874743541257
395,0.00614504914865834
396,0.00685430007831435
397,0.00770639403438199
398,0.00855848799044962
399,0.00941058194651725
400,0.00991129643227313
401,0.0105800211348572
402,0.0110791573640712
403,0.0112636833721904
404,0.0114192288210679
405,0.0115308839691406
406,0.0118678140362637
407,0.0119367456553748
408,0.0121632325242947
409,0.0124976907022455
410,0.0130455536784537
411,0.0131691061792875
412,0.0136507588971844
413,0.0139932131122836
414,0.0141299652434769
415,0.0142021327129905
416,0.0141213358588719
417,0.0141497929862283
418,0.0142468374977912
419,0.0140602929895826
420,0.0143775214368388
421,0.0143804269878808
422,0.01453067327429
423,0.0146478908074161
424,0.0146994105127359
425,0.0145302280956726
426,0.0143857013547387
427,0.0140793588123068
428,0.0136293217578633
429,0.0136101771529936
430,0.0135467255324759
431,0.0141266287149949
432,0.0145812971928333
433,0.0152439886931504
434,0.0158975499387044
435,0.0162696984230097
436,0.0164060397209772
437,0.0166871445079756
438,0.0169682492949741
439,0.0172493540819726
440,0.017457866791288
441,0.0178379799389898
442,0.0182161349757799
443,0.0184485779026784
444,0.0187679684443791
445,0.0190873589860797
446,0.0194067495277803
447,0.0198103054971434
448,0.019980598246095
449,0.0207388267946647
450,0.0207001272814148
451,0.0205267588387092
452,0.020519117523006
453,0.0205114762073028
454,0.0205038348915996
455,0.0204512713446665
456,0.0206840747426803
457,0.0208604763403899
458,0.0211445312512091
459,0.0214911556158714
460,0.0216106108787379
461,0.0213309505464903
462,0.0220116737106318
463,0.0213429293784104
464,0.0212757387017329
465,0.0209841229165784
466,0.0208442432189227
467,0.0207897374538944
468,0.0205669017510731
469,0.0204045393730595
470,0.0208666422779756
471,0.0209363862765044
472,0.0210315540157115
473,0.0213511359348889
474,0.0213574089641328
475,0.0217792013160978
476,0.021290599251616
477,0.0213053743538993
478,0.0213201494561827
479,0.0213349245584661
480,0.0211838352569057
481,0.0206501076453504
482,0.0203331809244238
483,0.0202320902823144
484,0.0197738371056729
485,0.0193424657345439
486,0.0195811909738895
487,0.0196668771690303
488,0.0199695611963392
489,0.0205200104992208
490,0.0206497937597858
491,0.0208567780908999
492,0.0214158179611124
493,0.0211711947387558
494,0.0214859558197262
495,0.0212336806711837
496,0.0213302428211061
497,0.0209766417042842
498,0.0210761585561311
499,0.0206609420548863
500,0.0208131376861813
501,0.020741750243101
502,0.0210743760922576
503,0.0212322860437284
504,0.0210907289976205
505,0.0217893768245749
506,0.0216618570647807
507,0.0217705975605906
508,0.0218466604826435
509,0.0218010263674013
510,0.0214820927254704
511,0.0217651733628339
512,0.0215263326236828
513,0.0209244847670329
514,0.0207521539097875
515,0.0204529761856286
516,0.0202966642065669
517,0.0202228155608014
518,0.0201323567137913
519,0.0205215535931003
520,0.0209276211966665
521,0.0211625468395061
522,0.0213974724823458
523,0.0216323981251855
524,0.0215385506717504
525,0.021609654482766
526,0.0216509483223169
527,0.0214490072010695
528,0.0216929237800834
529,0.0218482417370185
530,0.02189100238512
531,0.0219261921478011
532,0.0218486329022733
533,0.0220733138445636
534,0.0220969568067448
535,0.0218831900353492
536,0.0220297600115419
537,0.0219783495263708
538,0.0217446831946625
539,0.0216531675581949
540,0.021761369474241
541,0.021619275746278
542,0.0215686177244298
543,0.0216316160242512
544,0.0217103302842975
545,0.0215063447089661
546,0.0216786299597254
547,0.0215927536031864
548,0.0215068772466473
549,0.0214210008901082
550,0.0213440896640442
551,0.0215184417149877
552,0.0215935890648351
553,0.0213599075110259
554,0.021341423603076
555,0.0215749927770061
556,0.0212000622451454
557,0.0212154108479221
558,0.0210618899527481
559,0.0209104882357306
560,0.021104975310594
561,0.0207657746170712
562,0.0211099932033349
563,0.0207596415158435
564,0.0208856201627583
565,0.0205862314639059
566,0.0204751984834705
567,0.0201658768989983
568,0.0203766461730944
569,0.0201442867092239
570,0.0201301767545903
571,0.0201094064980126
572,0.0201368138026076
573,0.0200768064230243
574,0.0202221481227603
575,0.0199135304905974
576,0.0199380827811247
577,0.0199626350716521
578,0.0199871873621794
579,0.0200117396527068
580,0.0200362919432342
581,0.0202288616693477
582,0.0201202223915946
583,0.0201904215442371
584,0.0198889494993125
585,0.0198823200134037
586,0.0194365148672749
587,0.0191486220809521
588,0.0189975458983926
589,0.0188464697158331
590,0.0186953935332736
591,0.018748719846638
592,0.0189202562155205
593,0.0188645342522456
594,0.0189814390579497
595,0.0189285782204884
596,0.0188992904408483
597,0.0189345270803504
598,0.0188338237428621
599,0.0187635872346233
600,0.0187494474040714
601,0.0188190544173752
602,0.0188596654769735
603,0.0187175446034878
604,0.0187878140467244
605,0.0186851730458952
606,0.0186475473602111
607,0.0185071303140576
608,0.0183164941588677
609,0.0182651788163927
610,0.0181225827189201
611,0.0179073453977846
612,0.0177260793787812
613,0.0175885198688592
614,0.0174315830125912
615,0.0175917467829926
616,0.0173217499125915
617,0.0174583968420335
618,0.0173459705600862
619,0.0173647402349498
620,0.0172741569011203
621,0.0173391396217714
622,0.0169755739397795
623,0.0169135379969367
624,0.0167674204142291
625,0.0166213028315215
626,0.0164751852488139
627,0.0165008132071363
628,0.016361405167251
629,0.0163001541166112
630,0.0163323488755886
631,0.0160624891985913
632,0.0161395927398545
633,0.0161721913160358
634,0.016148007782677
635,0.0162125795723266
636,0.0160274259354685
637,0.0160606463063404
638,0.0159852348935117
639,0.0159829693890557
640,0.0158954242631314
641,0.0157993428102603
642,0.0157679579050519
643,0.0156615130941876
644,0.0155550682833233
645,0.0154486234724589
646,0.0155428500920774
647,0.0155316243542405
648,0.0151400833580773
649,0.0154341541637412
650,0.0151311666118506
651,0.0152246172943382
652,0.015011729993146
653,0.0146911404992071
654,0.0143823621869463
655,0.0144635074943919
656,0.0142353334136928
657,0.0143151970064291
658,0.0144326424089407
659,0.014652473907483
660,0.0147744476154519
661,0.0147635970962839
662,0.014741019828379
663,0.0146373464299141
664,0.0145131420228685
665,0.0145048856427822
666,0.0144718162135065
667,0.0144544284928693
668,0.0144682748066251
669,0.0142271657539871
670,0.0141754981036992
671,0.0141397671042957
672,0.014018097359958
673,0.0140475987681565
674,0.0140160899726782
675,0.0139882241885621
676,0.0139228047659725
677,0.0139566685349362
678,0.0137328822894225
679,0.0137203972572938
680,0.0140342736095354
681,0.013730722674069
682,0.0134080208131694
683,0.0130846035017402
684,0.0126745039820075
685,0.0122703153587052
686,0.0119968075832027
687,0.0117361468629486
688,0.0115960694431526
689,0.0116432197588581
690,0.0118834645204498
691,0.0122620312848665
692,0.0124258103782787
693,0.012478564773059
694,0.0127637968887982
695,0.0127573045769712
696,0.0129451289499467
697,0.0129161389474952
698,0.0127586875821734
699,0.012828243249189
700,0.0130131771509483
701,0.0129168328925835
702,0.0131065740046953
703,0.0130805368520371
704,0.013278638033291
705,0.0131589716900619
706,0.0133521026159398
707,0.0134307089868914
708,0.013484138750961
709,0.0135705833167196
710,0.0134088924350575
711,0.0134506791195935
712,0.0136024439551605
713,0.0132300964602727
714,0.0132155838496863
715,0.0127882022189828
716,0.0125732061975666
717,0.0123339152017393
718,0.0122742860481889
719,0.0123615819842513
720,0.0123876646488369
721,0.0122911502845032
722,0.0126514446816552
723,0.012643166874437
724,0.0125785442529603
725,0.0126870463603289
726,0.0126493771664725
727,0.0127621406401173
728,0.0128845671619391
729,0.0129803966652597
730,0.0131233534437476
731,0.0133071116388768
732,0.0134264975202279
733,0.0136597036622198
734,0.0137084769137909
735,0.0136771381708081
736,0.0138352199746351
737,0.0137820686066247
738,0.0137289172386144
739,0.013675765870604
740,0.0138244506474838
741,0.0138063455482891
742,0.0138201897975781
743,0.013834034046867
744,0.013847878296156
745,0.0138896561448678
746,0.0137661226033489
747,0.0137594795447623
748,0.0135397898865873
749,0.0135938707530008
750,0.0135545667399267
751,0.0134029339935264
752,0.0136201553329759
753,0.0132271362550017
754,0.0131556365808673
755,0.0123108958156619
756,0.0114661550504566
757,0.0106214142852512
758,0.00928607200888404
759,0.00806427119248839
760,0.00714971051202768
761,0.00696840577560429
762,0.00720251024773018
763,0.00772213360040106
764,0.00851360901675901
765,0.00916836446143804
766,0.0101177838516032
767,0.0108888998112829
768,0.0113044513215991
769,0.011690781169694
770,0.0120013419887121
771,0.0119960136634806
772,0.0121145930655229
773,0.0122619094804692
774,0.0120911030483463
775,0.0121096102472293
776,0.0121593041625119
777,0.01196002543975
778,0.0120407957587296
779,0.0118539723285577
780,0.0118814364319234
