"wavelength","measurement"
380,0.00322841504312483
381,0.0032132310240055
382,0.00318363636949513
383,0.00309680901656185
384,0.00332763638445191
385,0.00345045304801195
386,0.00371566772921928
387,0.00389293467513043
388,0.00423471421499276
389,0.00447694223625637
390,0.0043522901765876
391,0.00445042254634145
392,0.00444645468047792
393,0.00465489559770001
394,0.00479573966281798
395,0.00505503067420817
396,0.00567324816347311
397,0.00631111544986544
398,0.00694898273625776
399,0.00758685002265008
400,0.00817413706793402
401,0.00865586149283501
402,0.00906215942125967
403,0.00934977578928383
404,0.0094368976559316
405,0.00956640082137597
406,0.00966650353782417
407,0.0098766126926177
408,0.0101436306451257
409,0.0102849660918654
410,0.0108385807444325
411,0.010972949239038
412,0.0113010584897558
413,0.0115618491452597
414,0.0117217283250067
415,0.0118249593784909
416,0.0117810827899336
417,0.0117140139065829
418,0.0119434118760525
419,0.0117161356645947
420,0.0119648713086255
421,0.0119595907740297
422,0.0119926399144259
423,0.0122789597775277
424,0.0123229483112754
425,0.0120312940706852
426,0.0118963524847147
427,0.0116181220502057
428,0.0112638731880577
429,0.0112637537536647
430,0.0111782348155753
431,0.0117398688502724
432,0.0121272422590559
433,0.0125730056143832
434,0.0131115253980869
435,0.0134079826427447
436,0.013476882410785
437,0.0137121495197024
438,0.0139474166286198
439,0.0141826837375371
440,0.0143270637667286
441,0.0146178056034882
442,0.0148704805890967
443,0.0151993170337933
444,0.0154679362198631
445,0.0157365554059329
446,0.0160051745920027
447,0.0162269905662
448,0.0163839659809258
449,0.017011102802337
450,0.0169639693996269
451,0.0168837855393764
452,0.0168290749092675
453,0.0167743642791587
454,0.0167196536490498
455,0.0168151898375471
456,0.0167497823198305
457,0.0171553760977659
458,0.0171817959364382
459,0.0175570648628659
460,0.0176147038220427
461,0.0174488711956585
462,0.0179727111432014
463,0.0173884143406526
464,0.017340393875644
465,0.0171451096708303
466,0.0169084168811649
467,0.0169585145879771
468,0.0167643776471439
469,0.0165646545736996
470,0.0169912331162872
471,0.0169844059358746
472,0.0171874607224578
473,0.0173163495476589
474,0.0174250683801544
475,0.0175917848514476
476,0.0172199880206428
477,0.0172143784974741
478,0.0172087689743054
479,0.0172031594511366
480,0.0171512095190315
481,0.0166876005141562
482,0.016400502275821
483,0.0164145380419278
484,0.0160151730485942
485,0.015591292425208
486,0.0158367594773321
487,0.015846034000599
488,0.0160569315610774
489,0.0165668281617861
490,0.0167183572465929
491,0.0167900200792916
492,0.0172572109821767
493,0.0170515011476436
494,0.0173547599047252
495,0.0171199108714167
496,0.0171639106788444
497,0.016929044915143
498,0.016993276867652
499,0.0166413389464745
500,0.0167538092683903
501,0.0166120053349813
502,0.0169480635783338
503,0.0170153860937304
504,0.0168744986567675
505,0.017460373854851
506,0.0173200028716794
507,0.0174790229284628
508,0.017529357996369
509,0.0174681661744425
510,0.0172401860259279
511,0.0174736579713973
512,0.0172521028718846
513,0.0167451906622635
514,0.0166031402315976
515,0.0163080912316202
516,0.0162432021774192
517,0.0161808060082205
518,0.0161370470137897
519,0.0163589934883974
520,0.0167037619251785
521,0.0169147416573867
522,0.0171257213895949
523,0.0173367011218031
524,0.0172073551633769
525,0.0172766355686653
526,0.0172584548511251
527,0.0171767477356894
528,0.017269644148807
529,0.0174668524122228
530,0.0174470285488205
531,0.0175288791335382
532,0.0174326123833355
533,0.0176420054274282
534,0.0176779427891168
535,0.0174460356976953
536,0.0175987389788507
537,0.017507711871775
538,0.0173253307734481
539,0.0172420571652235
540,0.0173622647175912
541,0.0172199079805057
542,0.0171576602218181
543,0.0172445091075542
544,0.0173382159369115
545,0.0171774105836794
546,0.0172566514880482
547,0.0172031943166319
548,0.0171497371452156
549,0.0170962799737993
550,0.0170901573920025
551,0.0170155022665026
552,0.0171962601734407
553,0.0170052641872344
554,0.0169573937323569
555,0.0170902598053798
556,0.0168560864824893
557,0.0167849629171299
558,0.0166991053075703
559,0.0165784560114747
560,0.0167340397924845
561,0.0164564040876068
562,0.0167313911331745
563,0.0164468174778302
564,0.0165390980397293
565,0.0162858627590932
566,0.0162220166596467
567,0.0160361912799659
568,0.0161353277006235
569,0.0159092758687584
570,0.0159169481143678
571,0.0159371915347371
572,0.0159005649687449
573,0.0158310130406514
574,0.015903617923415
575,0.015726611153626
576,0.0157386087587276
577,0.0157506063638293
578,0.0157626039689309
579,0.0157746015740325
580,0.0157865991791342
581,0.0159628722429591
582,0.0158513230115124
583,0.0158934670379087
584,0.0156549800800667
585,0.0156264828871494
586,0.0152698883059578
587,0.0151035623085081
588,0.0149628780652392
589,0.0148221938219704
590,0.0146815095787015
591,0.0147543906228283
592,0.0148076455229749
593,0.0148129043449003
594,0.0149389601112804
595,0.0148940303469873
596,0.014926756085025
597,0.0148708023886925
598,0.0148355860703642
599,0.0147155250925695
600,0.0147456206470972
601,0.0147749451970037
602,0.0148774907933374
603,0.0146310218472628
604,0.0148215762141225
605,0.0146624219353459
606,0.0146590362356644
607,0.0145177691995931
608,0.0143480943281011
609,0.0143100326297489
610,0.0141809881167638
611,0.0140610116203384
612,0.01391256240017
613,0.0138093757627054
614,0.0136314246095732
615,0.0137661876885333
616,0.0135590448032606
617,0.0136898328415584
618,0.0136065219066337
619,0.0136214065033614
620,0.013510712705584
621,0.0135933543332063
622,0.013298968878337
623,0.0132656497747104
624,0.0131624956482767
625,0.013059341521843
626,0.0129561873954093
627,0.0128426145852259
628,0.0127804797138121
629,0.0128016325802592
630,0.012807312606504
631,0.0126114384832768
632,0.0126430198898558
633,0.0126707101482125
634,0.0126514925215844
635,0.0126375705165264
636,0.0125387298089852
637,0.0125829642639908
638,0.0124751639476371
639,0.0125415009119523
640,0.0124392957511969
641,0.0123779974221419
642,0.012240683387061
643,0.0121736328881883
644,0.0121065823893156
645,0.0120395318904429
646,0.0121581787066
647,0.0120755860792763
648,0.0118990680468511
649,0.0120459878361143
650,0.0118685360265329
651,0.0119103420258128
652,0.0117620460135622
653,0.0114698242269445
654,0.0112269400246962
655,0.0113027717034889
656,0.0111583614266087
657,0.0111925784140706
658,0.0111894569955285
659,0.0114548335728229
660,0.0115428072365965
661,0.0115086318603231
662,0.0115429258677415
663,0.0114378905849659
664,0.0112991155612219
665,0.0113379610666429
666,0.0112702093642589
667,0.0113131379365495
668,0.0112348004803297
669,0.0110620390334688
670,0.0110681681984436
671,0.0110128085596335
672,0.0109292909060722
673,0.0109221526879844
674,0.0109387408614934
675,0.0108802267828877
676,0.0108776027163106
677,0.0109111657540199
678,0.0107981009095117
679,0.0107212185127862
680,0.0109582819562258
681,0.0107253856105769
682,0.0104151764495096
683,0.0102016206962571
684,0.00988246874992954
685,0.00954587555504532
686,0.00932901385537195
687,0.00912813513944905
688,0.00907801766893929
689,0.00914528153589712
690,0.00929885399232189
691,0.00961766414980876
692,0.00967315238033957
693,0.00977799850402277
694,0.0100076040126069
695,0.00997764852003118
696,0.0101357232269224
697,0.0101964574367382
698,0.0100370735920711
699,0.0101203691118942
700,0.0102705199971225
701,0.010178240995493
702,0.0102741343526495
703,0.0103526750768182
704,0.01042051058299
705,0.0103919983297453
706,0.010604442364006
707,0.0106735180416385
708,0.010675850679207
709,0.0107478981735571
710,0.0106191865216879
711,0.0106836773172547
712,0.010791409365576
713,0.0105150639549437
714,0.0105559428792634
715,0.0102080190956518
716,0.00995709948906205
717,0.00985861421929497
718,0.00975678008858089
719,0.00993435613360097
720,0.00996755620667821
721,0.00985695934058145
722,0.0101584724144918
723,0.0101356421121704
724,0.0101207461368735
725,0.0101291746520284
726,0.010133488327247
727,0.0102610685633538
728,0.0103411117671469
729,0.0104291518818464
730,0.0105856169883129
731,0.0106675217050833
732,0.0107803458139487
733,0.0110143917351942
734,0.0110990750796443
735,0.0110555200955473
736,0.0111061952675647
737,0.0110878430104596
738,0.0110694907533544
739,0.0110511384962493
740,0.0112041237796012
741,0.0111436348090798
742,0.0111657525033182
743,0.0111878701975566
744,0.011209987891795
745,0.011236782776318
746,0.0111393456185162
747,0.011125249306256
748,0.0109804325965052
749,0.0110760966008622
750,0.0109235934682541
751,0.0108216441435117
752,0.0110237537914845
753,0.0107090999495314
754,0.0106817062160547
755,0.0100018553796756
756,0.00932200454329652
757,0.00864215370691745
758,0.00751763533878712
759,0.00661208015678212
760,0.0058965317901645
761,0.00571244453163493
762,0.00583593044451369
763,0.00630924604382604
764,0.00683535634309849
765,0.00747113099509829
766,0.00829169183049588
767,0.00893974518016592
768,0.0092086300462273
769,0.00946760663874276
770,0.00967384707639856
771,0.00975449647855697
772,0.00985086308181818
773,0.00997393677412305
774,0.00984736772570989
775,0.00983286249519226
776,0.00978265304604485
777,0.00966397113703103
778,0.00987647207972729
779,0.00962720311817495
780,0.00976689025382523
