"wavelength","measurement"
380,0.00235006889495169
381,0.00232359477075546
382,0.00234529983361182
383,0.00230720656266316
384,0.00237816900785722
385,0.00256587319253742
386,0.00272634386673127
387,0.00291505698627823
388,0.00311270606581238
389,0.00322835321771785
390,0.00324761965158298
391,0.00324674312284529
392,0.00328162480575398
393,0.00331937595658004
394,0.00350451461983314
395,0.00369217045221124
396,0.00409856044118528
397,0.00456843208863791
398,0.00503830373609054
399,0.00550817538354317
400,0.00573682434995292
401,0.00613521937375777
402,0.0063784553907294
403,0.00648275958532592
404,0.00653993259102421
405,0.00650132981827969
406,0.00663012115153955
407,0.00665332979592607
408,0.00668870402598441
409,0.00679112425169071
410,0.00711901054611068
411,0.00711506190955348
412,0.0073278709454421
413,0.00748258489805012
414,0.00745091950289318
415,0.00753246147757075
416,0.00742997174250305
417,0.00739424883446058
418,0.00754646544730981
419,0.00733238863610095
420,0.00750143037375412
421,0.0074356655718324
422,0.00753224868010858
423,0.00757411586577255
424,0.00765984163363571
425,0.00750555398129359
426,0.00743716315711148
427,0.00722279415201066
428,0.0069843921671573
429,0.00699076498866789
430,0.00701042279444444
431,0.00724388902807516
432,0.0074936802114454
433,0.0077420201035283
434,0.00811777120219088
435,0.00830180314884381
436,0.00839951088570933
437,0.00853665851561756
438,0.00867380614552579
439,0.00881095377543401
440,0.00883150156261787
441,0.00903569305404772
442,0.00924018304577129
443,0.00938445104440495
444,0.00955420683417324
445,0.00972396262394153
446,0.00989371841370982
447,0.0100566343945694
448,0.0101444369262675
449,0.0105529900914261
450,0.0105153452348888
451,0.0104235857100382
452,0.0103945127387605
453,0.0103654397674828
454,0.0103363667962052
455,0.0103071415636429
456,0.0103033506672197
457,0.0104884121164799
458,0.0104514950105618
459,0.0106803271276523
460,0.0106774453464466
461,0.0105559992240855
462,0.0108686439646172
463,0.0105491897709872
464,0.0104173233306336
465,0.0103411339936075
466,0.0101907398404349
467,0.0101716875565156
468,0.0100731897341117
469,0.00998462368313943
470,0.0101664703888411
471,0.0101530505598108
472,0.0102003211181237
473,0.0103012367678778
474,0.0103419047126056
475,0.0104463707737155
476,0.0102138972288868
477,0.0102092020617078
478,0.0102045068945288
479,0.0101998117273499
480,0.010145054967211
481,0.00989889002598695
482,0.0097390216554871
483,0.0097201309685021
484,0.00946589773974211
485,0.00926545297398956
486,0.00934849948349003
487,0.00940772362409599
488,0.00950223882104168
489,0.00974258106812862
490,0.00982304535225864
491,0.00991875523809781
492,0.0101467054572816
493,0.0100180133097207
494,0.0101679046056331
495,0.0100191970691826
496,0.0100595636813016
497,0.00990034222790872
498,0.00992709795914449
499,0.0097276848476619
500,0.00975341484022369
501,0.00965736092323548
502,0.00980442727467199
503,0.00982296586395366
504,0.00974440831725577
505,0.0100566641085624
506,0.00999231721325339
507,0.00999374638020984
508,0.0100600368671241
509,0.0100418828408428
510,0.00984623321229128
511,0.00998175531374263
512,0.00988651423174125
513,0.00959053054649314
514,0.00950634948516016
515,0.00935457399513018
516,0.00927126998520683
517,0.00921864453172899
518,0.00917156484977983
519,0.00931201115270538
520,0.00947138576086123
521,0.00955446503739947
522,0.00963754431393771
523,0.00972062359047595
524,0.00962753636471066
525,0.00961134213008414
526,0.00961742352215598
527,0.00950088575298836
528,0.00955617282513708
529,0.00964967225243009
530,0.00962397428818015
531,0.00962368117250306
532,0.00956232426542615
533,0.00965145885494514
534,0.00963596638797685
535,0.00953400826194491
536,0.00961929670749799
537,0.00952068349968596
538,0.00943375631557522
539,0.00936887318760025
540,0.00941617949920301
541,0.00932029897736305
542,0.00925138039259436
543,0.00926264427310395
544,0.00928882394812073
545,0.0091852622588651
546,0.00924884428416617
547,0.0092087267595988
548,0.00916860923503143
549,0.00912849171046407
550,0.00905362231187423
551,0.00909394146124217
552,0.00914847207345546
553,0.0090419549988029
554,0.00898516380591157
555,0.00905322176312667
556,0.0089089130832789
557,0.00888480629078945
558,0.00880316884280773
559,0.00870980295653657
560,0.0087950749415384
561,0.00861868383825241
562,0.00874170513339978
563,0.00857352675370169
564,0.0085759769215027
565,0.0084411705201125
566,0.00837863317253624
567,0.00826370469238937
568,0.00829959399161634
569,0.00814915037716817
570,0.00812127810118896
571,0.00810604391108069
572,0.00807188578036209
573,0.00804803577576584
574,0.00805691102425723
575,0.00795994752220774
576,0.00797813282529336
577,0.00799631812837898
578,0.00801450343146459
579,0.00803268873455021
580,0.00805087403763583
581,0.00815234810129767
582,0.00811281664327712
583,0.00813303838608722
584,0.00802292167333426
585,0.0080227836259245
586,0.00779513344293578
587,0.00768829056395687
588,0.00759581460023213
589,0.00750333863650738
590,0.00741086267278264
591,0.00741754627841986
592,0.00744516052495427
593,0.00744118482486749
594,0.0075036728972743
595,0.00745928895158644
596,0.0074611925631481
597,0.00746437121684937
598,0.007443082838452
599,0.00739770012647227
600,0.00741161723284435
601,0.00743731961957849
602,0.00743929164211395
603,0.00738105508678886
604,0.00744046122326876
605,0.00737920109817355
606,0.00736033489697769
607,0.00729794254547453
608,0.00718927487855288
609,0.00718337100327366
610,0.00712494720521045
611,0.00705011911838073
612,0.00698450870458755
613,0.00694387493937653
614,0.0068119655066762
615,0.00685813416728989
616,0.00677868971301129
617,0.00684758363557882
618,0.00680086478985896
619,0.00679293284874142
620,0.00674609575991071
621,0.00676880153519383
622,0.00660213445645327
623,0.00658838269748907
624,0.00649872105989431
625,0.00640905942229955
626,0.0063193977847048
627,0.00626002148458856
628,0.00620588756579355
629,0.00620115658904273
630,0.00622057661202892
631,0.00615292663406227
632,0.00618379061552718
633,0.00620998175635703
634,0.00620058148373474
635,0.00622254948237664
636,0.00617622135578559
637,0.00622452490409526
638,0.00615690746306819
639,0.00618187588738251
640,0.00613059533162161
641,0.00611566046049408
642,0.00607013957634752
643,0.00601580310969897
644,0.00596146664305043
645,0.00590713017640188
646,0.00593262510279188
647,0.00588224995275249
648,0.00577568028970686
649,0.00587470210258105
650,0.00577316217730608
651,0.00581290643316837
652,0.00571716885510985
653,0.0055967788110244
654,0.00548319326314658
655,0.00550613924113026
656,0.00546061826012994
657,0.00544561799229209
658,0.00549382488804661
659,0.00563817636977309
660,0.00566011489896879
661,0.00567637340662195
662,0.00565431826946421
663,0.00559705804657735
664,0.00552723355471873
665,0.00554231530222093
666,0.00552090507357724
667,0.00552729999732248
668,0.00552581957495145
669,0.00538676423621201
670,0.00539925611302486
671,0.00535625723847023
672,0.00535739399823318
673,0.00533835463140117
674,0.005333808670126
675,0.0053286150959079
676,0.00529069525991812
677,0.00530997253582072
678,0.00523422656271605
679,0.00518267066434407
680,0.00528588364085801
681,0.00518341921641196
682,0.00501644677630324
683,0.00488587873794867
684,0.00464649257760253
685,0.00444156584636964
686,0.00426317476756396
687,0.00414828145822467
688,0.00407587896151948
689,0.00410253515202313
690,0.00422295251453176
691,0.00435618312118067
692,0.00444072013352766
693,0.00447324296587929
694,0.00456840210464687
695,0.00457967712839526
696,0.00466801932987167
697,0.00465413061741125
698,0.00459567856027131
699,0.00461333233584546
700,0.00467269973750489
701,0.00461186580551347
702,0.00466099048735715
703,0.00467337203045593
704,0.00475185853746571
705,0.0047357263965635
706,0.0047896669291324
707,0.00482273128540562
708,0.00479036924471218
709,0.00485296682645115
710,0.00479224786976315
711,0.00479759280161154
712,0.00479477899581434
713,0.00463083606715179
714,0.00455667670665975
715,0.0043591410778722
716,0.00419046822416648
717,0.00406325998084024
718,0.00404305102320457
719,0.0040205125397053
720,0.00408225549374099
721,0.00401674331746582
722,0.00413475205077644
723,0.00411867790629826
724,0.00410340072356249
725,0.00411488893179738
726,0.00409067764705448
727,0.00415373669226052
728,0.00415954575605945
729,0.00420307489070409
730,0.00430215764582032
731,0.00443532239415178
732,0.00450376536716486
733,0.00460877804313997
734,0.00465891458303056
735,0.00465486272988732
736,0.00470525547463527
737,0.00470936303359879
738,0.0047134705925623
739,0.00471757815152581
740,0.00477089518148381
741,0.0047640062969569
742,0.00476396506931664
743,0.00476392384167639
744,0.00476388261403613
745,0.00478701312970016
746,0.00474372402329223
747,0.00476365816409492
748,0.00469400962477829
749,0.00469295863671344
750,0.00466152915771679
751,0.00462331207503002
752,0.0046569957792108
753,0.00451224692306165
754,0.00451923364351879
755,0.00416698741842831
756,0.00381474119333783
757,0.00346249496824735
758,0.00293135351125398
759,0.00241329432168077
760,0.00209452306839233
761,0.00195700647422607
762,0.00204798636782517
763,0.00222069620829589
764,0.00254475771164994
765,0.00285120378978132
766,0.00321032219483589
767,0.00354822521373104
768,0.00378813432725732
769,0.00393099598204006
770,0.00401428744008006
771,0.00405499734721642
772,0.00411415235081225
773,0.00418109439808182
774,0.00410761538784789
775,0.00409772950750689
776,0.00413748827846127
777,0.00407086965358643
778,0.0041153474221719
779,0.00405004477825798
780,0.00405881504497403
