"wavelength","measurement"
380,0.0066669361796537
381,0.00640444573657066
382,0.0065058285773054
383,0.0063526625262515
384,0.00647740272213384
385,0.00684539566638371
386,0.00717337619306165
387,0.00744792603737522
388,0.00791406673539258
389,0.00810564248622781
390,0.0082467062674281
391,0.00820775000320217
392,0.00835080830294087
393,0.00859184843259431
394,0.00888760831736127
395,0.00963346038153089
396,0.0106033995792567
397,0.0119343396899062
398,0.0132652798005557
399,0.0145962199112052
400,0.0152577373036353
401,0.0162586899546585
402,0.0169589648220812
403,0.0173504720045516
404,0.0175881900396603
405,0.0176232404591355
406,0.017962503574672
407,0.0182790090874126
408,0.0185205693337452
409,0.0189373567721322
410,0.0199578723600699
411,0.0200300784571121
412,0.0203506104352238
413,0.0209261033455524
414,0.0207779561486644
415,0.0211231721132587
416,0.020775735055813
417,0.0205641244570872
418,0.0209418480177485
419,0.0206914913396893
420,0.0210327660517647
421,0.0210442230736049
422,0.0213117604693837
423,0.0214302983358127
424,0.0215140852019006
425,0.0209748027768214
426,0.0208047699637326
427,0.0203287483807735
428,0.0196289675082691
429,0.0196550389516607
430,0.0199110960126504
431,0.0206896971884136
432,0.0214821094462571
433,0.0223511810596175
434,0.0233007360028908
435,0.0236185201012605
436,0.023951326484355
437,0.0243562224845831
438,0.0247611184848113
439,0.0251660144850394
440,0.0253988705445533
441,0.0259088389196575
442,0.0265475151397121
443,0.0269145866633657
444,0.027408005183236
445,0.0279014237031063
446,0.0283948422229765
447,0.028867302781495
448,0.0289420416968573
449,0.0301020857151347
450,0.0299046853732582
451,0.0296497328467425
452,0.0296280051536678
453,0.0296062774605932
454,0.0295845497675185
455,0.0296570979223482
456,0.0295477043942019
457,0.0300198445925678
458,0.0303030480140643
459,0.0306509969457849
460,0.0305661067129648
461,0.0302186847975585
462,0.0310157717582212
463,0.0302061129282942
464,0.0299510245749161
465,0.029629879410948
466,0.0293308591565563
467,0.029252410741157
468,0.0290044646273318
469,0.0288395299570733
470,0.0294381087237316
471,0.0294749224667992
472,0.0295241749242493
473,0.029964972779066
474,0.0299499266165798
475,0.030347226417114
476,0.0296889161588866
477,0.029699021140318
478,0.0297091261217493
479,0.0297192311031807
480,0.0296406992744211
481,0.0288944888734183
482,0.0284952882008587
483,0.0283444425932141
484,0.027795442882738
485,0.0273999522953056
486,0.0277025378493765
487,0.0280648547636626
488,0.0284468471429126
489,0.0292075291832593
490,0.029352625334858
491,0.0297002994525044
492,0.0303648646053985
493,0.0299935500947306
494,0.0304404996194889
495,0.0299897750702035
496,0.0300855667925558
497,0.0296912016059373
498,0.02975434397998
499,0.0291306103795792
500,0.0294285721468477
501,0.0291759504746696
502,0.0298098449907178
503,0.0299402454856573
504,0.0296412095606898
505,0.0305668535434256
506,0.0304096513631129
507,0.0305764364566896
508,0.0307185406215172
509,0.0306832943773617
510,0.0300594817571105
511,0.03044414260795
512,0.0300478048369129
513,0.0292105824133095
514,0.0290644427911856
515,0.0285280671228271
516,0.0283946068747557
517,0.0283677443006251
518,0.0283427230570837
519,0.0288718749953948
520,0.029285237945653
521,0.0295226273676077
522,0.0297600167895624
523,0.0299974062115171
524,0.0297381500766077
525,0.0297768879782076
526,0.0297519077896575
527,0.0295789347829982
528,0.029717086216636
529,0.0300045797751289
530,0.0299942762362158
531,0.030021332036339
532,0.0298387418923484
533,0.0301428915328788
534,0.0303028574057599
535,0.0299928079096687
536,0.0302114222778554
537,0.0299839451903169
538,0.0297777339484732
539,0.0296208503016109
540,0.0297797342840547
541,0.0295054211394027
542,0.0295083503916687
543,0.0294858781849849
544,0.0296643193727832
545,0.0293289968085498
546,0.0296358298787463
547,0.0295600006954606
548,0.029484171512175
549,0.0294083423288893
550,0.0292573754655141
551,0.0294770635384873
552,0.0297216753254003
553,0.0294011074232564
554,0.0293220811347568
555,0.0295958566995336
556,0.0291736816429175
557,0.0291894971000317
558,0.0290123695117555
559,0.0287747767364694
560,0.0290657165730065
561,0.0285122280178894
562,0.0290651300315536
563,0.02857458444877
564,0.0286930121837462
565,0.0282942020334106
566,0.0281479265300062
567,0.0277602129697198
568,0.0280519379484667
569,0.0277249260797895
570,0.0277663631564026
571,0.027793464857693
572,0.0277470414672592
573,0.0276891601687752
574,0.0279299808505435
575,0.0276085932588462
576,0.0278104532026826
577,0.0280123131465191
578,0.0282141730903556
579,0.028416033034192
580,0.0286178929780285
581,0.0290363368720123
582,0.0289262373799046
583,0.0292459971888493
584,0.0288524629709548
585,0.0288632004542639
586,0.0281267238148406
587,0.0278769714982135
588,0.0277113386339583
589,0.027545705769703
590,0.0273800729054478
591,0.0275983357196643
592,0.0278188374443368
593,0.0278768277102921
594,0.0282769879566367
595,0.0282507207599208
596,0.0284180618547903
597,0.028553077163195
598,0.0284969509927394
599,0.0285731583381786
600,0.0287388122961941
601,0.0289760950615917
602,0.0291245314867944
603,0.0290422301026411
604,0.0293075719995657
605,0.0291665733892174
606,0.0292296979335676
607,0.0290973163403299
608,0.0288977353713458
609,0.0288564356263513
610,0.0286519689938057
611,0.0285294034088193
612,0.0284587412928168
613,0.0283570527032453
614,0.028107392910979
615,0.0285609609589822
616,0.0282045228628154
617,0.028485380964701
618,0.0283759954725757
619,0.0285741338463036
620,0.0284574260753622
621,0.028671084931056
622,0.0280806934535801
623,0.0279920079061807
624,0.0277674903156601
625,0.0275429727251394
626,0.0273184551346187
627,0.0272370374085622
628,0.0271519008454631
629,0.0271484464281896
630,0.0275102200796606
631,0.0272144656960266
632,0.02754022759504
633,0.0277047209012704
634,0.0279267829614381
635,0.0280563267657892
636,0.0279213536180878
637,0.0282505526440449
638,0.0281863930536288
639,0.0283216969841161
640,0.0283009559831679
641,0.0282605171642369
642,0.0282280361344778
643,0.0281113124264327
644,0.0279945887183877
645,0.0278778650103427
646,0.0281420758961574
647,0.0281250228284977
648,0.0277649355598258
649,0.0281975547104681
650,0.0279727213788423
651,0.0280467411968215
652,0.0277550480394877
653,0.0273928128852351
654,0.0270416477978895
655,0.0273635576027059
656,0.0271954716643885
657,0.0275210255765887
658,0.0277634607249371
659,0.0284817013568142
660,0.0286138743988267
661,0.0288068440658883
662,0.0288284531265639
663,0.0287898145764073
664,0.0286361754038872
665,0.028699006487988
666,0.0287402318349816
667,0.0288166098191948
668,0.0290294775656983
669,0.0285020388804592
670,0.0285545993613865
671,0.0286437011499865
672,0.0284983256133996
673,0.0286613053736196
674,0.0287064657435287
675,0.0288326317930306
676,0.0287244308050844
677,0.0289498577254821
678,0.0286569038534605
679,0.0286729835200086
680,0.0292564664496298
681,0.0286868768700279
682,0.0277732837636534
683,0.0270094234602421
684,0.0258565336564114
685,0.0247447058574363
686,0.0238632435658967
687,0.0234144024479301
688,0.0233946276697915
689,0.023712792213074
690,0.0243980487401227
691,0.0252484572713922
692,0.0256529814924063
693,0.0262432099712217
694,0.0266010766328152
695,0.0266538626155545
696,0.0270404811458537
697,0.0271608055132558
698,0.0268353436810214
699,0.0269272059873183
700,0.0274197960861526
701,0.0272525902476281
702,0.0276794568788824
703,0.0275488504640098
704,0.028030584996287
705,0.0280249845985438
706,0.0283076724682829
707,0.0285644025353066
708,0.0284856178010604
709,0.0287021142124661
710,0.0284278381490025
711,0.0283149042933134
712,0.0282909353832895
713,0.0271608042878036
714,0.0266668035331773
715,0.0253787861877102
716,0.0244275154221654
717,0.023917817541912
718,0.0236753155516461
719,0.0237157306187795
720,0.024069556090814
721,0.0236916742954814
722,0.0242814889526408
723,0.0241888014909992
724,0.0241419410695572
725,0.0242342096818367
726,0.0240933134942787
727,0.0244433939946668
728,0.0246542669827836
729,0.0252592874549942
730,0.0257073298833559
731,0.0263005059469198
732,0.0268858564309146
733,0.0274414147786736
734,0.0278633745071897
735,0.0280533363285395
736,0.0282143736337285
737,0.0283564911417179
738,0.0284986086497074
739,0.0286407261576969
740,0.0288809609727266
741,0.0292318825557763
742,0.0293222561284932
743,0.0294126297012101
744,0.0295030032739271
745,0.0296629513901045
746,0.0296029580956223
747,0.0297325790303919
748,0.0294333776138284
749,0.0297633115384771
750,0.0296570904448877
751,0.0297373592599093
752,0.0299844948685972
753,0.0297934332360326
754,0.028939209860104
755,0.0265503359788215
756,0.024161462097539
757,0.0217725882162564
758,0.0181434043857852
759,0.0151407374930578
760,0.0136376871158038
761,0.0133696724003319
762,0.0140310360488685
763,0.0157281921994086
764,0.0182264912819925
765,0.0206089365061772
766,0.0233609269763731
767,0.0257678286658027
768,0.0271323906691777
769,0.0282692922384092
770,0.0293074001805698
771,0.0296647154205039
772,0.0301912800484038
773,0.0306701091709497
774,0.0304252271424361
775,0.0305446231598821
776,0.0306737415291815
777,0.0303872385797873
778,0.0309672900337672
779,0.0304571605788827
780,0.0309708596484397
