"wavelength","measurement"
380,0.00346407565538438
381,0.00335199964043777
382,0.00326744997464127
383,0.00320898481490604
384,0.00333607698312719
385,0.00358615219388082
386,0.00370112119307274
387,0.00388811820498269
388,0.00408717974659341
389,0.00421612906921041
390,0.00423327338424152
391,0.00426419640565108
392,0.00428425084925247
393,0.00434398167914613
394,0.00458584362890382
395,0.00495570269376922
396,0.00549827742241912
397,0.00621931905669273
398,0.00694036069096635
399,0.00766140232523997
400,0.00809213954024376
401,0.00880490436230354
402,0.00923981723240697
403,0.00956269405905398
404,0.009767222288694
405,0.0100174318323641
406,0.0104256606373647
407,0.0106041924485275
408,0.0107220408669652
409,0.0111270898529881
410,0.0117247147292662
411,0.0119956379393331
412,0.0123546620265103
413,0.0126692742154483
414,0.0128143426030917
415,0.0131125701267974
416,0.0131391350129521
417,0.0131162626276383
418,0.0134557257259669
419,0.0131486160886212
420,0.0136064391795382
421,0.0135894651910794
422,0.0138697318768364
423,0.0139582823668966
424,0.0141601647894586
425,0.013911366812715
426,0.0138173022466968
427,0.0134126996102258
428,0.0130885354985916
429,0.0131574437519472
430,0.0131561688681374
431,0.01366162404679
432,0.0141765374753687
433,0.0146320564416052
434,0.015272026783083
435,0.0156362826348084
436,0.0159053147374567
437,0.0161673838314275
438,0.0164294529253983
439,0.0166915220193691
440,0.016754388836396
441,0.0170406924033886
442,0.0175644641637233
443,0.0176791551586576
444,0.0179897033863484
445,0.0183002516140392
446,0.01861079984173
447,0.0189276687267403
448,0.0189429623596846
449,0.0197640523671046
450,0.019569253984127
451,0.0194596717646265
452,0.0193991237955449
453,0.0193385758264633
454,0.0192780278573817
455,0.0192214721370463
456,0.0191717075234916
457,0.0192728499653263
458,0.0193314344245327
459,0.0196197021788106
460,0.0195417361842785
461,0.0192800530740981
462,0.019810441107127
463,0.0192202336692574
464,0.0190368278281999
465,0.018906349542969
466,0.0186046578261549
467,0.0186067041624258
468,0.018383212553132
469,0.0181317862168664
470,0.0185104593966142
471,0.0184448577019911
472,0.0185117213438724
473,0.0187200238468541
474,0.0187884598853065
475,0.0190156941071839
476,0.0185566584148026
477,0.018558344492333
478,0.0185600305698635
479,0.0185617166473939
480,0.0185739085648222
481,0.0180349893506335
482,0.0177943383332524
483,0.017701247371415
484,0.0172202302608009
485,0.0168936039725644
486,0.0170354578372477
487,0.0171278494621245
488,0.0172833192683179
489,0.0177303763264667
490,0.0178188215220082
491,0.0180188804675962
492,0.0184776018612263
493,0.0183063527203583
494,0.0185631684387191
495,0.0183731604445329
496,0.0184587984011881
497,0.0181722282725969
498,0.0183016384737971
499,0.0179189415474023
500,0.0180493035515801
501,0.0179072844797158
502,0.0181701686839028
503,0.0183190138940822
504,0.0181582100404011
505,0.0187400418390792
506,0.0187235841263042
507,0.0187926081492718
508,0.0189508643326696
509,0.0190087786370492
510,0.0187223276414414
511,0.0190174195950143
512,0.0189677690478998
513,0.018432255247105
514,0.0183597035777876
515,0.0181026312403244
516,0.0179805792689712
517,0.0180019999065788
518,0.017987537035332
519,0.0183536660902574
520,0.0186762016439837
521,0.0189457991187197
522,0.0192153965934557
523,0.0194849940681917
524,0.019426483109388
525,0.0195513981620812
526,0.0196138665065266
527,0.0195514612305301
528,0.0197615517529514
529,0.0200793946201724
530,0.0201633116103747
531,0.0201759064828573
532,0.0201965694693409
533,0.0203960664784373
534,0.0205058015016417
535,0.0202623283546727
536,0.0204970465053793
537,0.0204273155635546
538,0.0203177647745509
539,0.020214813385959
540,0.0203339280612347
541,0.0201975714394335
542,0.0200831786571275
543,0.0201965301637994
544,0.0203567473195185
545,0.0202450452921487
546,0.0203686655353469
547,0.0203773089838557
548,0.0203859524323645
549,0.0203945958808733
550,0.0202997101863765
551,0.0205055512945703
552,0.0206631526765474
553,0.0205095035131755
554,0.0204517469568513
555,0.0206157435618742
556,0.0203896250969747
557,0.0203316025070251
558,0.0202104074335294
559,0.0200621976022723
560,0.0202856151259704
561,0.019923851368617
562,0.0202858520501356
563,0.0199476940079238
564,0.0200789282955137
565,0.0198286354643723
566,0.0196910296090073
567,0.01952025219136
568,0.0196202555253317
569,0.0193642716719603
570,0.0193412819471429
571,0.0193788594823525
572,0.0194188437940047
573,0.0193657170076985
574,0.0195224413034501
575,0.0192836262011752
576,0.0193748839641893
577,0.0194661417272034
578,0.0195573994902174
579,0.0196486572532315
580,0.0197399150162456
581,0.020018855115664
582,0.0199616665202994
583,0.0201534403961113
584,0.0198493704568147
585,0.0198931887493081
586,0.0194061477250321
587,0.0191953878127632
588,0.0190988613919182
589,0.0190023349710733
590,0.0189058085502283
591,0.0190365467889639
592,0.0193159935692565
593,0.0195093648700801
594,0.0199310091350261
595,0.0199997861112793
596,0.0203006590523471
597,0.0204873992605487
598,0.0206711497523628
599,0.0208713272896085
600,0.0211634162927353
601,0.0213665621722754
602,0.02161496485109
603,0.0215905560343696
604,0.0219569799017624
605,0.0219021208724672
606,0.0219897282532652
607,0.0219882373548246
608,0.0217816847248498
609,0.0218692181676783
610,0.0217420103783147
611,0.0216705396172725
612,0.0215467767344063
613,0.0215809248583909
614,0.0213436350283395
615,0.0215968455158551
616,0.0213523558442627
617,0.0216064306711044
618,0.0215701136373087
619,0.0216769502757146
620,0.0216198241385798
621,0.0217738007762659
622,0.0213809330858897
623,0.0213741761471862
624,0.0212222103901025
625,0.0210702446330188
626,0.0209182788759352
627,0.0209585581941328
628,0.0208118553054165
629,0.020775462649334
630,0.0209725494963407
631,0.0206678912229044
632,0.0207532872500019
633,0.0209190730458878
634,0.0209706908135442
635,0.0210173160180351
636,0.0208564429909338
637,0.0210446545580939
638,0.0209420931067742
639,0.0209848240585714
640,0.0208225930758758
641,0.0207493289671415
642,0.0206774727007093
643,0.0204721113439671
644,0.0202667499872249
645,0.0200613886304827
646,0.0201288029815376
647,0.0200056429638066
648,0.0196444303833029
649,0.01997838911572
650,0.0197713247512825
651,0.0199506178760331
652,0.019707452319502
653,0.019372735824978
654,0.0190498062824888
655,0.019250285099292
656,0.0190411487677401
657,0.0192080951576327
658,0.019366149208179
659,0.0199172953458549
660,0.020050794381202
661,0.0200603962786351
662,0.0202342254180847
663,0.0200951559102874
664,0.0199522722362341
665,0.0200139976847745
666,0.0199636162826312
667,0.0199215846820051
668,0.0200655358089514
669,0.0196394500243988
670,0.019777947789215
671,0.0196509382903643
672,0.019606016838026
673,0.0196290619097844
674,0.0196727185689421
675,0.0196024863609676
676,0.0195963195402254
677,0.0197461760225009
678,0.0194792490011938
679,0.0194319772494133
680,0.0199586178130411
681,0.0195746688628334
682,0.019206734439807
683,0.0189144345154609
684,0.018286844706732
685,0.0178160553815868
686,0.0174125341784925
687,0.0170977161959278
688,0.0169651728150013
689,0.0171078989342154
690,0.0173074943507894
691,0.0177369290878815
692,0.0178601373511816
693,0.0180285330496097
694,0.0184539648612458
695,0.0185856446554788
696,0.0190661246910267
697,0.0193960122582888
698,0.0192907965877149
699,0.0195175430175884
700,0.0200322771556398
701,0.0201131943756575
702,0.0207048945340374
703,0.0210488686079981
704,0.0216199398096048
705,0.0219199470226574
706,0.0225842783392376
707,0.0230416161870321
708,0.0234246007293699
709,0.0239979915313072
710,0.0240532222426187
711,0.0243761360276152
712,0.0248129842562399
713,0.0239535976488299
714,0.0236387987093439
715,0.0226541095080447
716,0.0216804718285404
717,0.0211645098064206
718,0.0211192469947331
719,0.0216341089222516
720,0.0222016286418524
721,0.0223653062917168
722,0.0233498698199967
723,0.0235202529475456
724,0.0237147022060557
725,0.024118129275167
726,0.0243689378676623
727,0.0250896638163329
728,0.0258164102200079
729,0.0268786671056746
730,0.0280568797711579
731,0.0294105522120147
732,0.0307669741513455
733,0.0322106626563777
734,0.0332920085819196
735,0.0340085102840864
736,0.0349436703880829
737,0.0356656552437642
738,0.0363876400994454
739,0.0371096249551267
740,0.038273109703449
741,0.038921079328606
742,0.0395575619455217
743,0.0401940445624374
744,0.0408305271793531
745,0.0412952020423528
746,0.0415841391337453
747,0.0420171164169221
748,0.0417684422883436
749,0.0423122990076162
750,0.0424932876495625
751,0.0425041035953469
752,0.0432761963273139
753,0.0431085936059187
754,0.0428810736613494
755,0.0402185373332045
756,0.0375560010050596
757,0.0348934646769147
758,0.0305484599648983
759,0.0266546238838838
760,0.0237752734212855
761,0.0232400222886281
762,0.0241023060432116
763,0.0260998995670992
764,0.0288798076268281
765,0.0317838075489485
766,0.0350170905477113
767,0.0382231736579713
768,0.0400283164165276
769,0.0413858843039831
770,0.0426196281766238
771,0.0430718900875255
772,0.0437032758421994
773,0.0443763752935396
774,0.044170233690327
775,0.0443213744139962
776,0.0445543393892584
777,0.0440085379782651
778,0.0446182521930213
779,0.0442030367107708
780,0.0448343780426947
