"wavelength","measurement"
380,0.0336823112432009
381,0.0327954538557312
382,0.0319239822141565
383,0.0309719591256435
384,0.0312720044014335
385,0.0325617497297943
386,0.034190101526725
387,0.0357989975397561
388,0.0366723032747685
389,0.037895403515224
390,0.0374996072456742
391,0.0374023933178727
392,0.037327278544361
393,0.0376194962901744
394,0.0387525589452265
395,0.0407205902021116
396,0.045067979161877
397,0.0499209638230508
398,0.0547739484842245
399,0.0596269331453983
400,0.0621805414225002
401,0.0660640989054685
402,0.0682724934102151
403,0.0688958741183438
404,0.0695200871677732
405,0.0694077266404307
406,0.0706488473844035
407,0.0706978500878421
408,0.0707507768620942
409,0.072078101750833
410,0.0748556472341096
411,0.0749154284621942
412,0.0767753079286595
413,0.0779726398368635
414,0.0777162506850232
415,0.0790276564494463
416,0.0780326053431385
417,0.0774926353379664
418,0.0780292372009204
419,0.0770279499053151
420,0.0785960556974888
421,0.0783588673922485
422,0.0788419957005164
423,0.0793465082006613
424,0.0798030564160339
425,0.0782881255424727
426,0.0773030547594717
427,0.0758442729190478
428,0.0734838500275923
429,0.0734011765534881
430,0.0731295690740744
431,0.0761530922481432
432,0.0786280921634127
433,0.0812373386381535
434,0.0847577344430167
435,0.0862897514531017
436,0.0873053731456308
437,0.0888547752161598
438,0.0904041772866887
439,0.0919535793572176
440,0.0922765021739466
441,0.0939419905626643
442,0.0963783011951076
443,0.0968486560423529
444,0.0984240651253312
445,0.0999994742083095
446,0.101574883291288
447,0.103074436458387
448,0.103534682888752
449,0.107586959249311
450,0.107100948738769
451,0.106370999228206
452,0.106206060558578
453,0.10604112188895
454,0.105876183219322
455,0.1059100558892
456,0.106097539659721
457,0.10723100997921
458,0.107782168915288
459,0.10977612289592
460,0.109768528113586
461,0.10861441462974
462,0.111669030758498
463,0.108824303072249
464,0.107762013306515
465,0.107203739773613
466,0.105798871266462
467,0.105376913102825
468,0.104670178076995
469,0.104050391542744
470,0.106136055751504
471,0.106087917351621
472,0.10683525148649
473,0.10824934121302
474,0.108730739009724
475,0.110556110767173
476,0.107937292006322
477,0.108164499700386
478,0.10839170739445
479,0.108618915088514
480,0.108467861856063
481,0.105724246401055
482,0.104223466655872
483,0.103792651796109
484,0.100973301280381
485,0.098942039685784
486,0.0998062427023186
487,0.100448039133088
488,0.101621746604234
489,0.104651854654955
490,0.105182136311975
491,0.105969316553466
492,0.108633760965639
493,0.107597130792854
494,0.109480167999056
495,0.108110663189612
496,0.109049410281328
497,0.107176551126159
498,0.107646450262758
499,0.105659602053512
500,0.106229346262412
501,0.105123826879829
502,0.106913657169417
503,0.107569346781091
504,0.106668803927974
505,0.109752560939497
506,0.109741794703674
507,0.110201660248599
508,0.111045869465427
509,0.111223005086776
510,0.109470225898745
511,0.111131842041326
512,0.11084425404811
513,0.107617952059484
514,0.106966590720525
515,0.105326889062486
516,0.104483222416033
517,0.104459653942797
518,0.104077147385367
519,0.106354176827972
520,0.108200205917154
521,0.109586212427973
522,0.110972218938792
523,0.112358225449611
524,0.112125311756522
525,0.11220415886001
526,0.112862852243279
527,0.112354938326916
528,0.112991263196435
529,0.11479428981318
530,0.114837216466699
531,0.115449232756249
532,0.115171728494333
533,0.116117511389478
534,0.116689986483991
535,0.115524044132525
536,0.116752534148128
537,0.116141784079665
538,0.115308079313559
539,0.114647016782063
540,0.115336143408261
541,0.114583782417386
542,0.114138472720734
543,0.114428254347437
544,0.115290834993161
545,0.114958123776276
546,0.115823473947048
547,0.115845453111083
548,0.115867432275118
549,0.115889411439153
550,0.114915589971862
551,0.115844868343387
552,0.11727221607105
553,0.116228010461648
554,0.115955780311681
555,0.117232485357392
556,0.115721709529743
557,0.115679924506163
558,0.114977306434706
559,0.114130468347688
560,0.115605079611988
561,0.113714459389909
562,0.115746107844328
563,0.11415723162298
564,0.114704556715487
565,0.113286047845343
566,0.112770794211257
567,0.111777179376706
568,0.112198848676432
569,0.111088250888223
570,0.111047774263372
571,0.111536161615758
572,0.111639171928218
573,0.111335891760483
574,0.112445337922447
575,0.110982787505143
576,0.111383284588199
577,0.111783781671256
578,0.112184278754313
579,0.112584775837369
580,0.112985272920426
581,0.114229190870986
582,0.11382891726794
583,0.114206297515982
584,0.112406032409123
585,0.111793318328801
586,0.108429228209736
587,0.106353263606866
588,0.104990410307515
589,0.103627557008164
590,0.102264703708813
591,0.102479531966502
592,0.103863100197638
593,0.103824680594205
594,0.105654734379922
595,0.105397293466636
596,0.106522923261578
597,0.107083659945667
598,0.107487138623238
599,0.107861838504317
600,0.109025147614436
601,0.109721648243937
602,0.110335599470508
603,0.10992606796997
604,0.11127042289159
605,0.110640058052237
606,0.110942564057643
607,0.110548430824463
608,0.109023089707596
609,0.109199040134776
610,0.108326899662422
611,0.107876916807871
612,0.106862437951251
613,0.106573671000596
614,0.105185483892592
615,0.106582051809631
616,0.105224796240296
617,0.10613652925768
618,0.105977469413372
619,0.106347348604891
620,0.106078238424111
621,0.106790872736522
622,0.104859520936026
623,0.104839319149587
624,0.104089001842134
625,0.103338684534681
626,0.102588367227228
627,0.102449946960813
628,0.101963821843757
629,0.101879559304532
630,0.102451225079108
631,0.101145221887633
632,0.10200701334934
633,0.102626515551404
634,0.102759670263545
635,0.103398370972968
636,0.102533315957004
637,0.103806454901385
638,0.103047022445151
639,0.103370941356529
640,0.102827458787993
641,0.10253279655232
642,0.102096409491408
643,0.101220075214218
644,0.100343740937029
645,0.0994674066598393
646,0.0996105786871721
647,0.0992060653072666
648,0.0972132201545913
649,0.099106273255077
650,0.0979201511004848
651,0.0990323461930139
652,0.0979838875064917
653,0.0963643033675362
654,0.0949139801110023
655,0.0959901453735734
656,0.0948942420244031
657,0.0962323076761043
658,0.0973188918597346
659,0.0999974222164621
660,0.10086443162816
661,0.101371430344922
662,0.101950827187137
663,0.101552117646568
664,0.100978959385496
665,0.101515237740345
666,0.101865573122648
667,0.102046070614457
668,0.102036140754755
669,0.10039171826128
670,0.100580927182244
671,0.100484603478494
672,0.100151483239859
673,0.10048625066532
674,0.100626687830339
675,0.100569099752694
676,0.100559076643654
677,0.101458025875618
678,0.0999190656492349
679,0.10021468744504
680,0.102468660294576
681,0.100630327630128
682,0.0985763024805317
683,0.0965878537510666
684,0.0934089544393537
685,0.0908258755423745
686,0.0887495712252746
687,0.0866797289082171
688,0.0859116851563319
689,0.0858744960567911
690,0.0870895397009456
691,0.088862256705917
692,0.0885895342741486
693,0.0896216599157617
694,0.0905240027754001
695,0.0908996616396291
696,0.0923768720497522
697,0.0930159062751602
698,0.0923121566308374
699,0.0922650522012965
700,0.0938135570404082
701,0.093384731538705
702,0.0950193945212357
703,0.0958291302728925
704,0.0973884819892371
705,0.0977295522659377
706,0.0997268645159036
707,0.100558123886481
708,0.101109662579502
709,0.102479136554603
710,0.101690997741363
711,0.10181588361799
712,0.102048992274893
713,0.0978483726702961
714,0.0951336062550483
715,0.0895217720740127
716,0.084560557061503
717,0.0812196905908145
718,0.0802620660664255
719,0.0805030513544672
720,0.0818711509851755
721,0.0811432564833076
722,0.0836831586726659
723,0.0833050900091171
724,0.0830597577572452
725,0.0833245943835621
726,0.0832098290363995
727,0.0844563263314133
728,0.0859267395465369
729,0.0883474276169698
730,0.0910594511181416
731,0.094768434661109
732,0.0983407219247209
733,0.101974746069295
734,0.104393298289129
735,0.105634186644035
736,0.108108823283731
737,0.10930608041193
738,0.110503337540128
739,0.111700594668326
740,0.114388335123609
741,0.115156427299291
742,0.116337030106228
743,0.117517632913164
744,0.1186982357201
745,0.11921050480561
746,0.119526987253804
747,0.120516469319094
748,0.119275825748059
749,0.120136449039116
750,0.120486977870656
751,0.119728662492874
752,0.121596425440697
753,0.120574184888929
754,0.119302798980647
755,0.111721205737857
756,0.104139612495067
757,0.0965580192522769
758,0.0842819366017539
759,0.073275428905087
760,0.0652375004825906
761,0.0632488928356843
762,0.0658405419636364
763,0.0708071639577934
764,0.0780847693220283
765,0.0857172007855424
766,0.0945731776247658
767,0.103246919892957
768,0.108200207530916
769,0.11207235704686
770,0.115179602751891
771,0.116390215526409
772,0.117918190444553
773,0.119756710177056
774,0.118667241570434
775,0.119150907237564
776,0.119826108193199
777,0.118326058023363
778,0.120161689350174
779,0.118892831488662
780,0.120306223294703
