"wavelength","measurement"
380,0.00296996974158765
381,0.00289943853724815
382,0.00281308586658516
383,0.00289366541420734
384,0.00287179462788082
385,0.0030608033713287
386,0.00319178608168226
387,0.00346084734180983
388,0.00358226956699361
389,0.00370426837466723
390,0.00363336824595021
391,0.00366043063480212
392,0.00379358578443762
393,0.00390642955921544
394,0.00411733763153221
395,0.00438354456166773
396,0.00491265868910053
397,0.00558913674126028
398,0.00626561479342002
399,0.00694209284557976
400,0.00737919563120001
401,0.00800346181744607
402,0.00852588235885645
403,0.00868125865706596
404,0.00912368718531256
405,0.00928521916902187
406,0.00965250187113822
407,0.00988509802192865
408,0.010196334196119
409,0.0105081843466189
410,0.0110994023620927
411,0.0112895757282531
412,0.0118117304656608
413,0.012222720834581
414,0.0123162590678719
415,0.0125955137502916
416,0.0126210807902415
417,0.0126671630185245
418,0.0129653359290705
419,0.0128624750872887
420,0.0132767645568871
421,0.0133371270901448
422,0.0134872126955218
423,0.0136852165916953
424,0.0138523464395403
425,0.0136260653785342
426,0.0135930690002462
427,0.0133302086967345
428,0.0129858175543602
429,0.0129414547796572
430,0.0130115499854293
431,0.013549066994895
432,0.0139887152928443
433,0.0145469298377937
434,0.0151524916894528
435,0.0155061841348039
436,0.0157134185897378
437,0.015999011621248
438,0.0162846046527581
439,0.0165701976842683
440,0.0166337457893936
441,0.0169963742685021
442,0.0175228642995325
443,0.0175277578034553
444,0.0178516840519876
445,0.0181756103005199
446,0.0184995365490523
447,0.0187858885444423
448,0.0188154582598124
449,0.0195776271692668
450,0.0194738736503495
451,0.0193125823523494
452,0.0192312837700079
453,0.0191499851876663
454,0.0190686866053247
455,0.0189476149665791
456,0.018923931988307
457,0.0190471371538135
458,0.01915050082167
459,0.0193241951865496
460,0.0192716037328343
461,0.0191388406318821
462,0.0195724719915408
463,0.0189967711729788
464,0.0188115554453568
465,0.0187018667696743
466,0.0184255822817424
467,0.0183606232453649
468,0.0181425871021318
469,0.0179872705596278
470,0.0182875061459848
471,0.0182725950385627
472,0.0183072833016145
473,0.0184840917138651
474,0.0185579987021987
475,0.0187545336694599
476,0.018367721397208
477,0.0183672569441248
478,0.0183667924910416
479,0.0183663280379584
480,0.0182817667228654
481,0.017829914751314
482,0.0175119134488204
483,0.0174606632106025
484,0.0170580355214934
485,0.0166393389962
486,0.0167953898037826
487,0.0168281102256158
488,0.0169814260603464
489,0.0174349106243934
490,0.0176423059692382
491,0.0177330216158803
492,0.0181929197798622
493,0.0179973988902761
494,0.0182986222055969
495,0.0180602634015175
496,0.0181899992787243
497,0.0178991624973956
498,0.0180207826165009
499,0.0176641982930294
500,0.0177923684764058
501,0.0176367924595529
502,0.0179616188271116
503,0.0180219034661956
504,0.0179227183360818
505,0.018502072723493
506,0.0184474645976314
507,0.0185234718236078
508,0.0186454717812836
509,0.0187188114116489
510,0.0184095544689893
511,0.0186985905283541
512,0.0186426088191129
513,0.0181585013021074
514,0.0180911453147525
515,0.0178047225354739
516,0.0177254471986634
517,0.0177377513068936
518,0.0177077134327303
519,0.0180508713798527
520,0.0184184889369395
521,0.018684390939869
522,0.0189502929427985
523,0.0192161949457279
524,0.0191470311184763
525,0.0192555952568077
526,0.0193314416220946
527,0.0192851395193333
528,0.0194345678742042
529,0.0197468021575847
530,0.0197827812397716
531,0.0199157782998278
532,0.0198665782885836
533,0.0200705346379604
534,0.0201713509806038
535,0.020009632405444
536,0.020187927514546
537,0.0200819833576115
538,0.019945925988476
539,0.0198668678552142
540,0.0200351453807428
541,0.0198997590783546
542,0.0197247798271758
543,0.0199414944372631
544,0.0200567052882993
545,0.0199599451476333
546,0.0201155360391466
547,0.0201223122536079
548,0.0201290884680692
549,0.0201358646825305
550,0.0200411647938787
551,0.0201937759683229
552,0.0203533111074278
553,0.0201806185653657
554,0.0201536593278538
555,0.0203280025657652
556,0.0200444391271134
557,0.0199977197260692
558,0.0199214586994278
559,0.0197784651952272
560,0.0199540549180773
561,0.0196250755698231
562,0.0199843098087603
563,0.0196831064846138
564,0.0197713852135141
565,0.0195090494109361
566,0.019435993882471
567,0.0191635049689196
568,0.019297710341771
569,0.0190462271188679
570,0.0190648028497516
571,0.0191067984350539
572,0.0190969867802404
573,0.019106910110678
574,0.0192524034753528
575,0.0190145793375847
576,0.0191089214776261
577,0.0192032636176676
578,0.019297605757709
579,0.0193919478977504
580,0.0194862900377919
581,0.0198033203354395
582,0.0197158797958264
583,0.0198617252194282
584,0.0196633994510425
585,0.0196702217352828
586,0.0192129096462102
587,0.0190132017408711
588,0.0189084895402982
589,0.0188037773397254
590,0.0186990651391526
591,0.0188701266871067
592,0.0192289400900152
593,0.0193801816359047
594,0.0198169449912771
595,0.0198928445249227
596,0.0201921897290426
597,0.020394331177287
598,0.0205962906419132
599,0.0207796630727315
600,0.0210964986617358
601,0.0213270199357757
602,0.0215967145880902
603,0.0215693191144535
604,0.0219722572712419
605,0.0219096907402274
606,0.0219700465970889
607,0.0220279791605652
608,0.0218180200900984
609,0.0219074459998668
610,0.0217844842181469
611,0.021727571689147
612,0.0216155248970641
613,0.0216114795973499
614,0.0214203659606353
615,0.0216882964000953
616,0.0214813739176869
617,0.0216354112216542
618,0.0216841846627557
619,0.0217468339185364
620,0.0216910497125045
621,0.0218088716295136
622,0.0214602515366199
623,0.0214600941462635
624,0.0213318174874703
625,0.0212035408286772
626,0.0210752641698841
627,0.0210577750745251
628,0.0209977850210009
629,0.0209503265945927
630,0.0210903710471779
631,0.0207942873694045
632,0.0209403042738645
633,0.0210835318638253
634,0.0210843764639052
635,0.0211907348067214
636,0.020969516170176
637,0.0211346534040637
638,0.0210234691851954
639,0.0210979798181892
640,0.0209376000122459
641,0.020900313420466
642,0.0207731885172625
643,0.0205759045535053
644,0.020378620589748
645,0.0201813366259908
646,0.0202241833153151
647,0.0201707830698426
648,0.0197379939488179
649,0.020095501851667
650,0.0198636083209762
651,0.0200569607546669
652,0.0198127422983472
653,0.0195201417953614
654,0.0192036259953743
655,0.0194094587731934
656,0.0191565548425921
657,0.0193685075371676
658,0.0195324936113586
659,0.020017878243293
660,0.0201427476293935
661,0.0202594838007262
662,0.0203432315138304
663,0.0202155168076733
664,0.0200795836485634
665,0.0201355972877938
666,0.0201765016091396
667,0.0201733516020086
668,0.0202152815566424
669,0.0197803527902064
670,0.0199195249614231
671,0.0198175579614624
672,0.0197125179957129
673,0.0197588232065887
674,0.0197828601448518
675,0.0197679361434119
676,0.0197004946840005
677,0.019905212062443
678,0.0196131530801723
679,0.0195975164939311
680,0.0200869958885548
681,0.0196919329961355
682,0.0193146807540663
683,0.0190128427963425
684,0.0183818121386317
685,0.0179172576318416
686,0.0175279230490995
687,0.0172203411719438
688,0.0171115878208779
689,0.0171703296981425
690,0.0174146079795951
691,0.0178577923492187
692,0.017900877003127
693,0.0182131001889972
694,0.0185995402999708
695,0.0187240424832277
696,0.0191784477651909
697,0.0194108629624945
698,0.0193726543849936
699,0.0196124760409982
700,0.0201071844379751
701,0.0202429075005761
702,0.0207234837206619
703,0.0211133638813143
704,0.0217670154584859
705,0.0220061058811634
706,0.0226491039340561
707,0.0231729189841803
708,0.0235119157131339
709,0.0241126130925913
710,0.0241873981486668
711,0.0244757898958281
712,0.0248353910648099
713,0.0241490103442084
714,0.023748871468274
715,0.0226748991175931
716,0.021801823690433
717,0.021216817592643
718,0.021252889569189
719,0.0216802162986086
720,0.0222363123995897
721,0.022422768469714
722,0.0234243573187563
723,0.0235953735625178
724,0.0237965944118243
725,0.0242201160389896
726,0.0243406127988435
727,0.0251675646372825
728,0.0259149630165467
729,0.0269997849898365
730,0.0280908065421192
731,0.0294398682453402
732,0.0308186488213553
733,0.0322948533492661
734,0.0334788466816352
735,0.0341838559482026
736,0.035119979489914
737,0.0358045577293637
738,0.0364891359688133
739,0.037173714208263
740,0.0384690316444768
741,0.0390813403107857
742,0.0397175958316686
743,0.0403538513525515
744,0.0409901068734343
745,0.0415822583095144
746,0.0417896610434325
747,0.0422386038658851
748,0.0420366082945947
749,0.0425556220842182
750,0.0427107493052168
751,0.0427369114374603
752,0.0435789910377186
753,0.043305740489184
754,0.04307911516535
755,0.0404431169584526
756,0.0378071187515552
757,0.0351711205446578
758,0.0307231587494059
759,0.0268360770549428
760,0.0239846559635303
761,0.0234858640666848
762,0.0243185221115344
763,0.0263206558356536
764,0.0290476660035597
765,0.0318683147999432
766,0.0350720890778375
767,0.0384559470915949
768,0.0403844442861513
769,0.0417132122676286
770,0.0428636394230222
771,0.0433891088368622
772,0.0440318287480823
773,0.044661195008863
774,0.0445532965257808
775,0.0446356340332085
776,0.0448202688436713
777,0.0444529855595555
778,0.0449598459165456
779,0.0446461423609583
780,0.0450816580956259
