"wavelength","measurement"
380,0.00360248164610504
381,0.00365459007621315
382,0.00353597053836056
383,0.00366446386986761
384,0.00373161451510985
385,0.00392950373650044
386,0.00418267724586383
387,0.00446991559125591
388,0.00475150960664848
389,0.00487638572423262
390,0.00494766057036263
391,0.00490670158446731
392,0.00500235168866006
393,0.00517011981416151
394,0.00534172543267032
395,0.0056228754482505
396,0.00628539965875917
397,0.00703266999120201
398,0.00777994032364484
399,0.00852721065608768
400,0.00890374306740631
401,0.00951928606167532
402,0.00987372663177513
403,0.0100862862706787
404,0.0102059553950897
405,0.0101604690145955
406,0.0103892482972468
407,0.0104559782769951
408,0.0105672029167703
409,0.0107468503765392
410,0.0112224544029047
411,0.0112881718557862
412,0.011595470487508
413,0.0118342415515345
414,0.0118055553839821
415,0.0119613686184482
416,0.0118730109461256
417,0.0117901455778233
418,0.0118971820995129
419,0.0116431429707811
420,0.0119207131048107
421,0.0118479551006196
422,0.0119373725845347
423,0.0120382647835869
424,0.012092220480098
425,0.0118546747001045
426,0.0117171093816558
427,0.0114292028024717
428,0.0110536133164713
429,0.0110195288571185
430,0.0110363930678916
431,0.0114919351474203
432,0.0119824224456524
433,0.0124729780788197
434,0.0130689608250873
435,0.0133688094771941
436,0.0134332217016067
437,0.0135373531959606
438,0.0136414846903146
439,0.0137456161846685
440,0.013756595951865
441,0.0139546185895238
442,0.0143080673340908
443,0.0144069691440322
444,0.0146432434234
445,0.0148795177027678
446,0.0151157919821356
447,0.0153785705568834
448,0.0153942556613676
449,0.0160366496539553
450,0.0160008515738735
451,0.0158952418054466
452,0.0158568146437318
453,0.015818387482017
454,0.0157799603203021
455,0.0158635895228525
456,0.0157755273427762
457,0.0160556129467268
458,0.0161054073464719
459,0.0163924368424741
460,0.0163841700820132
461,0.0162354414472624
462,0.0167333515326384
463,0.016262818027794
464,0.0160937590337735
465,0.0159512252558689
466,0.0157509156658375
467,0.0157258569070736
468,0.0155868000643979
469,0.0154829424001917
470,0.0158375972675235
471,0.0158020285617579
472,0.0158515267190305
473,0.0160174033243699
474,0.0160841522923812
475,0.0163040221565284
476,0.0159949330934682
477,0.0160191984841565
478,0.0160434638748448
479,0.016067729265533
480,0.0160037581435571
481,0.0157028871725047
482,0.0154445154841725
483,0.0154688467734943
484,0.0150811854518643
485,0.0148113960263968
486,0.0149455103395357
487,0.0150416206022544
488,0.0152035707227335
489,0.0155906341350543
490,0.015680132900611
491,0.0157303865823244
492,0.0161388675604329
493,0.0159168018346196
494,0.0161809453693539
495,0.0159283032528842
496,0.0159657407090511
497,0.0156663672765262
498,0.0157087873155204
499,0.0153465992385516
500,0.0154151920038537
501,0.0152450561185921
502,0.0154786749227396
503,0.0154966534556777
504,0.0153681644556289
505,0.0158180964501131
506,0.0157643653173952
507,0.0158653489401746
508,0.0159701659732506
509,0.0160109655530015
510,0.0157724819087242
511,0.016046559079173
512,0.0159293965556458
513,0.0155141108180457
514,0.0154488963105235
515,0.0152138365632082
516,0.0150856885247514
517,0.015074965083361
518,0.0150535856362719
519,0.0153346565636892
520,0.0156763696193388
521,0.0158623652577943
522,0.0160483608962498
523,0.0162343565347053
524,0.0162171515944635
525,0.0162776197006579
526,0.0163566600790906
527,0.016271974183858
528,0.01637016042335
529,0.01663430101453
530,0.0166516286214413
531,0.0167517958540044
532,0.0166848230007954
533,0.0168807307662328
534,0.0169514574354744
535,0.0167945750965353
536,0.01700668925853
537,0.017031567395544
538,0.0170713107701071
539,0.0172249778876478
540,0.0175669138882845
541,0.0177948007128364
542,0.0179456466049502
543,0.0182363068182426
544,0.0183520286367313
545,0.0181038366753104
546,0.0180161612458677
547,0.0177620901638594
548,0.0175080190818511
549,0.0172539479998428
550,0.0169404806342131
551,0.0169669337655317
552,0.017029838644234
553,0.016792993144391
554,0.0166466581226968
555,0.0167230378822369
556,0.0164716760138513
557,0.0163851487934972
558,0.0162139104388333
559,0.0160674872909805
560,0.0162509867213099
561,0.0159358901603071
562,0.0161783897051998
563,0.0158963418529776
564,0.0159638216679525
565,0.0156677894699435
566,0.0155597074067747
567,0.0153423520679683
568,0.0154427674793058
569,0.015113890562258
570,0.015099768067077
571,0.0150899390703016
572,0.0150617352443249
573,0.0150213887861868
574,0.0151662891239405
575,0.0149386609409828
576,0.0150019322177408
577,0.0150652034944988
578,0.0151284747712569
579,0.0151917460480149
580,0.0152550173247729
581,0.0154583574854318
582,0.015378636452888
583,0.0154070284100883
584,0.0151415258027763
585,0.0150269821220275
586,0.0144836277613585
587,0.0141427823948887
588,0.0138730238020814
589,0.0136032652092741
590,0.0133335066164668
591,0.0133058459077499
592,0.0134079473369739
593,0.0133724467302487
594,0.0135687420658939
595,0.0134950518126818
596,0.0136273426592152
597,0.0136941446643798
598,0.0137259551943936
599,0.0137755397573782
600,0.0139177935166335
601,0.01396798064163
602,0.014055872099101
603,0.01399123720834
604,0.014073683037986
605,0.0139946650001695
606,0.0141073491698526
607,0.0142576935728609
608,0.0143804470888801
609,0.0147023401881053
610,0.0147739394905102
611,0.0148256192654584
612,0.0145960642175065
613,0.0142852014218729
614,0.0138053247365559
615,0.0136300962984362
616,0.0133412945760768
617,0.0132942029611368
618,0.0131873361915647
619,0.0131920149948562
620,0.0130508828555446
621,0.0130921209407682
622,0.0128144453801536
623,0.01271128554639
624,0.012559935101984
625,0.012408584657578
626,0.0122572342131719
627,0.0122176971638366
628,0.012127824510565
629,0.012076356941235
630,0.0121497659125349
631,0.0119048272196699
632,0.0119456938955394
633,0.0119600006734445
634,0.0118791741435937
635,0.0119290747195915
636,0.0117922803303928
637,0.0118256377704726
638,0.0117179965770666
639,0.0117575223436728
640,0.0116355645289945
641,0.0115707135082638
642,0.0114499215310321
643,0.0112795769013106
644,0.011109232271589
645,0.0109388876418674
646,0.0109095676491131
647,0.0108051073112311
648,0.0105630400671174
649,0.0107518687022965
650,0.0106046551385175
651,0.0106912904363795
652,0.0105014871812113
653,0.0103260306981937
654,0.0100967549031612
655,0.0101743714299352
656,0.0100427990062877
657,0.0101690715636247
658,0.0102488080634482
659,0.0104718440916055
660,0.0105806828816938
661,0.0105709448459517
662,0.0106372462441895
663,0.0105549362112078
664,0.0104485487507057
665,0.0104348963612313
666,0.0104084049524156
667,0.0104538731414586
668,0.0104110278458824
669,0.010161108229001
670,0.0101834427084745
671,0.0101209144580187
672,0.0100392061761427
673,0.0100515043632002
674,0.0100400141461295
675,0.00999429080336649
676,0.0099842007063111
677,0.0100060589123826
678,0.00985186553645958
679,0.00977534390066138
680,0.00999845981439499
681,0.0097673262705187
682,0.00951535015556359
683,0.00932478586735731
684,0.00894436733056258
685,0.00865896918667482
686,0.0084179027256314
687,0.00821521002434789
688,0.00810385455967666
689,0.00813083729868497
690,0.00823271228066152
691,0.00838503327971063
692,0.00839660708638213
693,0.00846746685870073
694,0.00862451237126221
695,0.00871219032052304
696,0.00889603213233062
697,0.0089904731632899
698,0.00890250492209166
699,0.00894964223305227
700,0.00916024446402062
701,0.00914578705392006
702,0.0094125388419517
703,0.00952713624861418
704,0.00979244359990717
705,0.00990084833866397
706,0.0101362352178901
707,0.01033195968671
708,0.0104076128330288
709,0.010624581240727
710,0.0105428950443624
711,0.0106124773534551
712,0.0106093047326179
713,0.0101391066558574
714,0.00980699179240233
715,0.0092036276752104
716,0.00864526134701651
717,0.00828039243764924
718,0.00816666410998794
719,0.00827353452836081
720,0.00840428824464037
721,0.00832711763953999
722,0.00866633433344962
723,0.00861367639878998
724,0.0085885431892409
725,0.00862721015102627
726,0.00862185426313728
727,0.00879109572980732
728,0.00899928759032791
729,0.00931260311331891
730,0.00968166226266291
731,0.0101245628728346
732,0.0105482269558687
733,0.0109819720534411
734,0.0113240504592963
735,0.0114929468070499
736,0.01177390452044
737,0.0119516078239582
738,0.0121293111274763
739,0.0123070144309944
740,0.01260518698427
741,0.0127603875031656
742,0.0128780634174813
743,0.012995739331797
744,0.0131134152461127
745,0.0132214063099146
746,0.0132432144934441
747,0.0132759383458427
748,0.0131606954028037
749,0.0131928528291884
750,0.0131681923688378
751,0.0130904721449893
752,0.0132214788410885
753,0.0129725379558982
754,0.0129030784842824
755,0.0120635020300951
756,0.0112239255759078
757,0.0103843491217205
758,0.00894938120195837
759,0.00769426383872275
760,0.00671975636593421
761,0.00643160000967214
762,0.00663318342516862
763,0.00711621791861167
764,0.00789901870002976
765,0.00866322348855434
766,0.00969056392748108
767,0.0105043623031148
768,0.0111193619849243
769,0.0114397942812314
770,0.0117528659972433
771,0.0118926287030228
772,0.0120269430472872
773,0.0121682818252247
774,0.0120127445870545
775,0.0120108588433767
776,0.0120211135092092
777,0.0118683781727589
778,0.0119052370546688
779,0.0117922789541558
780,0.0118921839955732
