"wavelength","measurement"
380,0.014244665084776
381,0.0136833682827494
382,0.0135147288534412
383,0.0131108560313451
384,0.013224176101798
385,0.0139453497902257
386,0.0147797643885708
387,0.0154099118014758
388,0.0161647718015183
389,0.0168220170775084
390,0.0164709366455689
391,0.0166918422387437
392,0.0167706856082833
393,0.0171134629411585
394,0.0174925807181195
395,0.0184672350566728
396,0.0207539152937432
397,0.0233012646651923
398,0.0258486140366414
399,0.0283959634080905
400,0.0301799140225407
401,0.032168152352407
402,0.0334714984904362
403,0.0339253410555608
404,0.0347317827376658
405,0.0350896187727575
406,0.0360208241568225
407,0.0366251926628302
408,0.0368722013111929
409,0.0380685385440092
410,0.0401163821044562
411,0.0404921947117022
412,0.0421579021237247
413,0.0430737951092726
414,0.0433712263825357
415,0.0440478017956669
416,0.0439262027633276
417,0.0440201276609633
418,0.0445777930043836
419,0.0440426421556127
420,0.0451882886423784
421,0.0451743008868789
422,0.0457085953371163
423,0.0460272484810488
424,0.0464403105601309
425,0.0456203042305436
426,0.0449170199404929
427,0.0440990880628463
428,0.0427974453054916
429,0.0425555133632831
430,0.0424487395034798
431,0.0440219719310882
432,0.0453717136543429
433,0.0467589311748977
434,0.0487762669479821
435,0.0499511985422714
436,0.0501446717498447
437,0.0509330742278099
438,0.0517214767057751
439,0.0525098791837404
440,0.052699685557198
441,0.053664633229375
442,0.0547781418737244
443,0.0550195862859645
444,0.0556597416258343
445,0.0562998969657041
446,0.0569400523055739
447,0.0576304168788834
448,0.0576811297631598
449,0.0597129234389953
450,0.059219313399023
451,0.0588319369245968
452,0.0585528569695639
453,0.058273777014531
454,0.0579946970594982
455,0.0577918312852621
456,0.0576286116494008
457,0.0580483255558922
458,0.0585053721984755
459,0.0592522366332565
460,0.0589589402557389
461,0.058479201101799
462,0.0600727340156737
463,0.0583741646831419
464,0.0578513469186719
465,0.0574966313699025
466,0.0565887769831434
467,0.0564424532452419
468,0.0560567202094781
469,0.0555971956048087
470,0.056562245403962
471,0.056713985447028
472,0.0569893762348324
473,0.057750196337398
474,0.0577783395172168
475,0.0586873052703515
476,0.0573493268491283
477,0.0573760407636741
478,0.05740275467822
479,0.0574294685927658
480,0.057611416981056
481,0.0560281155490456
482,0.0549967108586811
483,0.0546957106422609
484,0.0533222566177084
485,0.0520814776519994
486,0.0523091147953261
487,0.052623004581791
488,0.0529682112769987
489,0.0543542104091012
490,0.0544523386488162
491,0.0550683435207143
492,0.0562768011715164
493,0.0555843321098621
494,0.0565224585900695
495,0.0556075107929193
496,0.0559425150800809
497,0.0546972139584344
498,0.0551233168420579
499,0.0537036048689984
500,0.0538866667809642
501,0.0532183986739278
502,0.054100696001298
503,0.0540893994748551
504,0.0536483836281747
505,0.0552613646980372
506,0.0549019183394833
507,0.0551791470160426
508,0.0554987933761849
509,0.05554374102731
510,0.0544548692269493
511,0.0552656971558736
512,0.0549984673235289
513,0.053409652131415
514,0.0529099070496925
515,0.052162183941256
516,0.0517140313120087
517,0.0513871659698285
518,0.0511119516129007
519,0.0521308391155123
520,0.0529736926699775
521,0.0536243620313808
522,0.054275031392784
523,0.0549257007541872
524,0.0546083028753898
525,0.0546646387041168
526,0.0547731553593613
527,0.0544647368339886
528,0.054728961564687
529,0.0555013069331369
530,0.0553937448016689
531,0.0555161626699525
532,0.0552488276579333
533,0.0557424285652875
534,0.055884938087842
535,0.0552154010523574
536,0.0557572208486477
537,0.0553861663348143
538,0.0547655520326337
539,0.0544449157687527
540,0.0546338847260497
541,0.0543566490869195
542,0.0536930947006044
543,0.0541664032611031
544,0.0544057490866752
545,0.05393904691814
546,0.0542954045389168
547,0.0542621985569531
548,0.0542289925749894
549,0.0541957865930257
550,0.0537542106888705
551,0.0541527058714165
552,0.0545685894751355
553,0.0538553486007365
554,0.0538719702286609
555,0.0541263963467358
556,0.0532806347415612
557,0.05307041915509
558,0.0527966309290702
559,0.0522837341920868
560,0.0526035758103672
561,0.0516755003788951
562,0.0525184960981485
563,0.0515855606727881
564,0.0518022269416427
565,0.0510541691494725
566,0.0505837922216337
567,0.0497282081807774
568,0.0501832519912166
569,0.0493954629116484
570,0.0493627581717126
571,0.0492313915131471
572,0.0491985564762815
573,0.0490409338292487
574,0.0494703676292027
575,0.0486775365130085
576,0.0488271190154331
577,0.0489767015178578
578,0.0491262840202824
579,0.049275866522707
580,0.0494254490251317
581,0.050030261271493
582,0.0497996259506071
583,0.0499919398082876
584,0.0492598578178966
585,0.048955109251696
586,0.0474539037390498
587,0.0466811231921784
588,0.0460699879040374
589,0.0454588526158964
590,0.0448477173277554
591,0.0450796228086728
592,0.0456734008815955
593,0.0455982357007538
594,0.0464739449403746
595,0.0464676760909607
596,0.046930802717028
597,0.0472517057535643
598,0.0474885658295242
599,0.0477704192277165
600,0.0481628284469482
601,0.0485562787996051
602,0.048929244697099
603,0.0486774269217989
604,0.0494651841588848
605,0.049013571581464
606,0.0493349786009954
607,0.0488914051701799
608,0.0482807262086546
609,0.0484395132082512
610,0.0479623362712874
611,0.0478109931320245
612,0.0474128023029146
613,0.0472574934173469
614,0.0465518376501686
615,0.0472347727107287
616,0.0465186671850351
617,0.0469447603636662
618,0.0469171114930409
619,0.047030533805085
620,0.0468801966942369
621,0.0472055951637769
622,0.0464300080359906
623,0.046421133678314
624,0.0460408468617827
625,0.0456605600452513
626,0.04528027322872
627,0.0453105731959339
628,0.0450148744677833
629,0.0449974783410381
630,0.0453972596276385
631,0.0447999216808385
632,0.0451088531117602
633,0.0455213592221961
634,0.0454743475212909
635,0.0457424910013495
636,0.0452183488356826
637,0.0458025805543997
638,0.0455017020063478
639,0.0456213555255532
640,0.0453351996271736
641,0.0451479270462604
642,0.0450531048020516
643,0.0445509348369272
644,0.0440487648718028
645,0.0435465949066784
646,0.043700072446944
647,0.0434671625399302
648,0.0424804400719581
649,0.0433277205303384
650,0.0429030392016037
651,0.0433988992053006
652,0.042730637102344
653,0.0422929168933919
654,0.0414722633867843
655,0.0419683407187098
656,0.0415873769457676
657,0.0420691172485515
658,0.042538342833662
659,0.0436546120009325
660,0.0441209802892243
661,0.0444218777966383
662,0.0446717016158406
663,0.0444420132478705
664,0.0441482450119957
665,0.0443025753947999
666,0.0444492028823058
667,0.0444453601081145
668,0.0445066623189942
669,0.0438107751634922
670,0.0439499204807919
671,0.0438182186392518
672,0.043664505648882
673,0.043856651993042
674,0.0437741274222091
675,0.0439228589559843
676,0.0436485669129734
677,0.0439710440439655
678,0.0435532864382199
679,0.0434715584395353
680,0.0447774599405074
681,0.0437845668359306
682,0.0430533687412277
683,0.042280070961097
684,0.0408874386237902
685,0.0397565095667724
686,0.0389367981577508
687,0.0379878915679549
688,0.0376545511912156
689,0.0379677231145119
690,0.0385331623250502
691,0.0394124105927953
692,0.0397630005408405
693,0.0402657910712722
694,0.0411725080637397
695,0.0416322833179071
696,0.042492248680045
697,0.0432917560395758
698,0.0431261576334969
699,0.0435778827541274
700,0.0446364568109375
701,0.0446606091922414
702,0.0460757222425346
703,0.0466356521641185
704,0.0481013584407452
705,0.0486245252701897
706,0.0501171234154493
707,0.0511822462645796
708,0.0518177525233363
709,0.0531613956645075
710,0.0532577445606589
711,0.0538761177524432
712,0.0545682932033049
713,0.0526517839054401
714,0.0518170913028226
715,0.0491975320388831
716,0.0470566994783846
717,0.0455492821075391
718,0.0455384764867886
719,0.0462484700725514
720,0.0476199179014282
721,0.0476391222280148
722,0.049926604701591
723,0.0501791581375816
724,0.0504862463391399
725,0.0511819274977293
726,0.0514722061529342
727,0.0528930834951822
728,0.0544271267168495
729,0.0568536852271462
730,0.0589484530392488
731,0.0618373374853038
732,0.0646343831972415
733,0.0679591300191037
734,0.0699412090269668
735,0.0717182986860833
736,0.0736199733134636
737,0.0751266231996922
738,0.0766332730859208
739,0.0781399229721495
740,0.0803444958510175
741,0.0815613045494291
742,0.0829149990136371
743,0.0842686934778452
744,0.0856223879420532
745,0.0866347566725146
746,0.0870955912891619
747,0.0881671858117926
748,0.087799725200725
749,0.0887788848585457
750,0.0891813298277368
751,0.0887931420965306
752,0.0907975887009147
753,0.090153596369732
754,0.0896549416411543
755,0.0841685001425674
756,0.0786820586439804
757,0.0731956171453935
758,0.0639079429832183
759,0.0553786520278792
760,0.0490490234131611
761,0.0477145948478245
762,0.0493304889606448
763,0.0531721434068861
764,0.0590766150107918
765,0.0649106607074032
766,0.0722509698071262
767,0.0789457813929612
768,0.0829829567956932
769,0.0860353543541972
770,0.0887812330597244
771,0.0897637135579016
772,0.0910775603406373
773,0.0926051680967714
774,0.0921664022238305
775,0.092668585085066
776,0.092697850214097
777,0.091763349446107
778,0.0930069124689435
779,0.0920675910326649
780,0.0934636180793158
