"wavelength","measurement"
380,0.00371057415267273
381,0.00363764234636841
382,0.00361774110993258
383,0.00366765667472626
384,0.00374109892396149
385,0.0040012845647497
386,0.00427491890926288
387,0.00455468894355267
388,0.00476301103289273
389,0.00500147795912428
390,0.005015743882151
391,0.00502016445078496
392,0.00508159712108573
393,0.00519101780048101
394,0.00538690745807683
395,0.00566805633472677
396,0.00636321979555361
397,0.00711904087741975
398,0.00787486195928589
399,0.00863068304115203
400,0.00900021049407137
401,0.00965129097796573
402,0.0100307771315151
403,0.01018750061861
404,0.0103374489118633
405,0.0102865927664931
406,0.010557082376848
407,0.0106154859129233
408,0.0106796479916615
409,0.0109178875490656
410,0.0114093915357847
411,0.0114394236290292
412,0.011746558198772
413,0.0119845970919784
414,0.0120247803141296
415,0.0121424743806877
416,0.0119985808194447
417,0.0119387375573821
418,0.0120816286754311
419,0.0117962064895992
420,0.0120669507679721
421,0.0120304075816123
422,0.0121141686754022
423,0.0122046041029566
424,0.0122476376705836
425,0.0120123697195911
426,0.0118906891408125
427,0.0115753010732628
428,0.0112230937383361
429,0.0111802270738419
430,0.0112138070453653
431,0.011597615497804
432,0.0120733609969707
433,0.0125705822604429
434,0.0131374219260934
435,0.0134147097493829
436,0.0135231869712269
437,0.0136498410047783
438,0.0137764950383296
439,0.0139031490718809
440,0.0139585556013012
441,0.0141662150718382
442,0.0145550161719393
443,0.0146158380673789
444,0.0148545993247772
445,0.0150933605821755
446,0.0153321218395738
447,0.0156207928545208
448,0.0156328951414085
449,0.0162756720591053
450,0.0161922700642122
451,0.0161069306124939
452,0.016085297288849
453,0.0160636639652041
454,0.0160420306415592
455,0.0160726379895907
456,0.016054430057296
457,0.0162875431222058
458,0.0163405945477824
459,0.016652572198355
460,0.0166238161769785
461,0.0164588798692503
462,0.016929054185242
463,0.0165072306446779
464,0.01630963158356
465,0.016206567693053
466,0.0159741508809276
467,0.0159484256138873
468,0.0158412356121561
469,0.0156745020851677
470,0.0159810982144051
471,0.015998557888416
472,0.0160898812132104
473,0.0162377942953406
474,0.0163302804007139
475,0.0165686817730477
476,0.0162085401813224
477,0.0162344593139995
478,0.0162603784466766
479,0.0162862975793537
480,0.0162584274489076
481,0.0158867558647324
482,0.0156404108744078
483,0.0156289756562375
484,0.0152591127047356
485,0.0149549876130814
486,0.0150696595529828
487,0.0152081995007704
488,0.0153627626436026
489,0.0157156872472093
490,0.0158235548989493
491,0.0159377938473692
492,0.0162767719245639
493,0.0161239455634127
494,0.016323102368999
495,0.0160930696064304
496,0.0161384221721138
497,0.0158366678037226
498,0.0159528005938205
499,0.0155248940038266
500,0.0155968870744571
501,0.0154422741981182
502,0.0156388562934514
503,0.0156851328345948
504,0.0155477400568508
505,0.0160352274547164
506,0.0159767864802812
507,0.0160657460614575
508,0.0161687836288085
509,0.0162005178274052
510,0.0159560621442703
511,0.0162425458555273
512,0.0161372204370704
513,0.0156938157984468
514,0.0156229935096243
515,0.0153744225563799
516,0.0152929566604344
517,0.0152732736053889
518,0.0152306896440055
519,0.0155268265145119
520,0.0158503114655628
521,0.016049774782008
522,0.0162492380984533
523,0.0164487014148986
524,0.016369525773275
525,0.0164398410336668
526,0.0165244525108088
527,0.0164324652127026
528,0.0165734152096469
529,0.0168154269713526
530,0.016840046870329
531,0.0168908696832538
532,0.0168715762887241
533,0.0170228526896674
534,0.0171083622273634
535,0.0169327603372188
536,0.0171566799061913
537,0.0171549321638824
538,0.0171365222394101
539,0.0172189302422097
540,0.0175069246983848
541,0.0176395184619147
542,0.0177384581810567
543,0.0179307197357389
544,0.0180696831696199
545,0.0178251778002066
546,0.0178304201700325
547,0.0176305696731465
548,0.0174307191762605
549,0.0172308686793745
550,0.0169927764084037
551,0.0170417638840887
552,0.0170964723169284
553,0.0169019667257029
554,0.0167639676875517
555,0.0168717871783827
556,0.0166168966960658
557,0.0165381329195761
558,0.0163956146365027
559,0.0162417520599652
560,0.0163908505804558
561,0.0160854373764462
562,0.0163390134326353
563,0.01605643935661
564,0.0161192029087227
565,0.01583541689648
566,0.0156968724441095
567,0.0154914535396633
568,0.0155248711588515
569,0.0153021406653487
570,0.015254651375163
571,0.0152554831977969
572,0.015197234330546
573,0.0151825273712493
574,0.0152637915290242
575,0.015064549598947
576,0.015119286869726
577,0.0151740241405051
578,0.0152287614112841
579,0.0152834986820631
580,0.0153382359528422
581,0.0155202129529756
582,0.0154087986066489
583,0.0154681981514327
584,0.0151939098806697
585,0.0150619026401552
586,0.0145106913103867
587,0.0141937629872464
588,0.0139273210106107
589,0.0136608790339751
590,0.0133944370573394
591,0.0133849881269422
592,0.01349146520844
593,0.0134762609712625
594,0.0136795401100451
595,0.0136175092916573
596,0.0137100530611258
597,0.0137955995980623
598,0.0138724019584329
599,0.0138846961111443
600,0.0140129165646763
601,0.0140793390234832
602,0.0141583329879016
603,0.0140549389012202
604,0.0142121156891692
605,0.0141142344161289
606,0.0141808128062316
607,0.0143088264656129
608,0.0143278916779381
609,0.0145455965922497
610,0.0146014987935903
611,0.0145742503911935
612,0.01439389274993
613,0.0141099128985051
614,0.0137066648046162
615,0.0135952664822348
616,0.0133170108213262
617,0.0133172921160589
618,0.0132542312755334
619,0.0132095616288476
620,0.0131163787137027
621,0.0131367953007507
622,0.0128755956470606
623,0.012762201672709
624,0.0126143344680924
625,0.0124664672634759
626,0.0123186000588593
627,0.0122750031611002
628,0.0121730335245743
629,0.0121229980444923
630,0.0122142792430609
631,0.0120062927487177
632,0.012001320943421
633,0.012041408770791
634,0.0120010607704788
635,0.0120301981337137
636,0.0118688210692251
637,0.011960668414517
638,0.011798155372334
639,0.0118647724075664
640,0.0117480795626825
641,0.0116641315794913
642,0.0115385781611199
643,0.0113748415294954
644,0.011211104897871
645,0.0110473682662465
646,0.0110289829500911
647,0.0108992028452299
648,0.0106270176731723
649,0.0108079074090601
650,0.010690032847621
651,0.0107532355108509
652,0.0106025255234917
653,0.0103927041307661
654,0.0101679430484598
655,0.0102637107438158
656,0.0101085027689152
657,0.0102261867237701
658,0.0103113428601383
659,0.0105967974951503
660,0.0106433453766945
661,0.0106800846054315
662,0.0107103875693782
663,0.0106168566990809
664,0.0105087138665418
665,0.0105182205023242
666,0.010514269008568
667,0.0105132415977391
668,0.01049144645907
669,0.0102505722304473
670,0.0102568220450419
671,0.0101775798447454
672,0.0101152939067796
673,0.0101220448873864
674,0.0100892087103793
675,0.0100699726449341
676,0.0100180216327595
677,0.0100546799920569
678,0.0098957707323816
679,0.00983873203787211
680,0.0100709956032484
681,0.00982276204842032
682,0.00962140263170476
683,0.0093807944444902
684,0.00902077313219569
685,0.00871150266317765
686,0.00847369842676079
687,0.0082599583451776
688,0.00812715504646252
689,0.00815353646560758
690,0.00824808673415124
691,0.00841438556027123
692,0.00843985501356354
693,0.00852759413418957
694,0.00869524543288719
695,0.00873515528308739
696,0.00897020264608559
697,0.00902587066009358
698,0.00895649276771176
699,0.00901716564459948
700,0.0092043568376475
701,0.00920793996023513
702,0.00943295785829706
703,0.00958026980330451
704,0.00986558719877896
705,0.00995049315515318
706,0.0102122707641237
707,0.0103888354921681
708,0.0104776615640201
709,0.0106578696523226
710,0.0105679385161483
711,0.0106455788794372
712,0.0106615671919815
713,0.0101884716315227
714,0.00984937490047145
715,0.0092648774064541
716,0.00869155678805436
717,0.00831452091616489
718,0.0082339508953918
719,0.0083728338076337
720,0.00843533349530358
721,0.00841969577907807
722,0.00870121622258466
723,0.00864307981311065
724,0.00867001901552174
725,0.0086991221455857
726,0.00867158034953109
727,0.00886626840569275
728,0.00906968411651584
729,0.00935827195193204
730,0.00972886073720855
731,0.0102086569511273
732,0.0106339365080977
733,0.0110683773634304
734,0.0114285680729997
735,0.0115958408981064
736,0.01186012196412
737,0.0120340225299242
738,0.0122079230957285
739,0.0123818236615327
740,0.0127176638200317
741,0.0128568587956162
742,0.012986068710116
743,0.0131152786246159
744,0.0132444885391157
745,0.0133310165912805
746,0.0133365072597782
747,0.0133979769454227
748,0.0132148360218158
749,0.0132895642064014
750,0.013250272028368
751,0.013230089799433
752,0.0133409714125546
753,0.0131298263913539
754,0.013028215063798
755,0.0121908110433345
756,0.011353407022871
757,0.0105160030024075
758,0.00911076126388935
759,0.00783374207581246
760,0.00687145757349798
761,0.00653470976991541
762,0.00673939880100151
763,0.00719662723681486
764,0.0079596026154402
765,0.00875064994297895
766,0.00971144802890031
767,0.0106380254445737
768,0.0111698759184336
769,0.0115248569319002
770,0.0118393322024247
771,0.011949335746089
772,0.012063768885606
773,0.0122074009572334
774,0.0120865002107901
775,0.012061454534188
776,0.0121099904522325
777,0.0119169830947555
778,0.0119944927697253
779,0.0118390737034462
780,0.0119562926447949
