"wavelength","measurement"
380,0.0182843365246264
381,0.0178426369881427
382,0.0176925119757329
383,0.0172149471012066
384,0.0183154906632177
385,0.0192703985120475
386,0.0204344197291832
387,0.0212722366082673
388,0.0224379374599245
389,0.0229330217591067
390,0.0233153231905781
391,0.0237655685212165
392,0.0239965132285832
393,0.0249704765650094
394,0.025736999764566
395,0.0271905847508614
396,0.0309530984490745
397,0.034837406945243
398,0.0387217154414114
399,0.0426060239375799
400,0.0451497059987512
401,0.0483256461533033
402,0.0509553659995476
403,0.0513672262971546
404,0.0530923431625367
405,0.0537970131200106
406,0.0553192191796757
407,0.0561987449817359
408,0.0568837139077395
409,0.0588720453343009
410,0.0620354735330798
411,0.063350555485631
412,0.0656112831315572
413,0.0681161534328909
414,0.0689749386786836
415,0.0711537403836425
416,0.0716682841309293
417,0.0724399015997806
418,0.0738970888234152
419,0.0742969532036676
420,0.0770163888640207
421,0.0779927438216599
422,0.0793818353355804
423,0.0810482353497335
424,0.0821777878413446
425,0.0814032532088723
426,0.0810305949689778
427,0.0797456691120033
428,0.0777281986187058
429,0.0782943876348387
430,0.0788348272130532
431,0.0820911011211707
432,0.0858810219836618
433,0.0882591078047059
434,0.0925557684286737
435,0.0952157873389741
436,0.0957018418578069
437,0.0976868798845301
438,0.0996719179112532
439,0.101656955937976
440,0.102593437609486
441,0.103939406464157
442,0.10629321071123
443,0.1072313930837
444,0.108750313824633
445,0.110269234565567
446,0.1117881553065
447,0.113009028245769
448,0.113456767007053
449,0.117471408100435
450,0.116563668162175
451,0.116172294244625
452,0.115760003616654
453,0.115347712988683
454,0.114935422360712
455,0.115017492456374
456,0.114898604530246
457,0.115996949715161
458,0.117089804135968
459,0.118396415289699
460,0.118746657256639
461,0.117763895351255
462,0.121439764759649
463,0.117719135466941
464,0.116967844704191
465,0.116470201905891
466,0.115299643540407
467,0.115241949810116
468,0.114357872818631
469,0.11362624643735
470,0.115967471862043
471,0.11571878569135
472,0.116532891051397
473,0.118087062829951
474,0.118656428311193
475,0.120271272917466
476,0.117727658534888
477,0.117929832220688
478,0.118132005906488
479,0.118334179592288
480,0.118301424284198
481,0.115036000636782
482,0.112985886436232
483,0.112923997353445
484,0.110071488137742
485,0.107803729343827
486,0.108607159721405
487,0.109369921162491
488,0.110659287270325
489,0.113763728100334
490,0.11459445636576
491,0.115639061205464
492,0.118480683408634
493,0.11716685961593
494,0.119705860643661
495,0.118249731214068
496,0.119245319137742
497,0.117100422004401
498,0.11808649006848
499,0.115598068175683
500,0.116598735236807
501,0.115845242682155
502,0.117918553769599
503,0.118837568653776
504,0.118042488239148
505,0.121724662475233
506,0.121695415308468
507,0.122429883208274
508,0.123425345107249
509,0.123771175841749
510,0.122297663669707
511,0.124110334937942
512,0.123637318202466
513,0.120304412309299
514,0.120157752043025
515,0.118290840738977
516,0.117994481368297
517,0.117621318624802
518,0.11776222407799
519,0.120535158485574
520,0.122912296592135
521,0.124790292491204
522,0.126668288390273
523,0.128546284289342
524,0.128325949458448
525,0.128990786351224
526,0.129503509971773
527,0.129187823134487
528,0.130356140869199
529,0.132639201621019
530,0.133056271326688
531,0.133469104113541
532,0.133615627730345
533,0.135099095624536
534,0.135856541131297
535,0.13433259032877
536,0.136089074694172
537,0.135638977138766
538,0.134766925639426
539,0.134511341671826
540,0.135188271490191
541,0.134673271361097
542,0.134271886539609
543,0.134969789266715
544,0.13627281486508
545,0.135538644481664
546,0.136821393493228
547,0.136945885276093
548,0.137070377058958
549,0.137194868841823
550,0.136252354131659
551,0.137766604377801
552,0.139252279547992
553,0.13834281875894
554,0.137916125717628
555,0.13957928580273
556,0.137815758143762
557,0.137637162901716
558,0.137006032631987
559,0.135995075828795
560,0.138007540356521
561,0.135780924691114
562,0.138635370729813
563,0.136609633933298
564,0.137510548107155
565,0.135879415167313
566,0.135460115424884
567,0.133861900199114
568,0.135300701862416
569,0.133675714785648
570,0.133801033236051
571,0.134565982324107
572,0.134527753317748
573,0.134589590831709
574,0.1354004235366
575,0.133989523088463
576,0.13446415119752
577,0.134938779306578
578,0.135413407415635
579,0.135888035524693
580,0.136362663633751
581,0.138048385532086
582,0.137390137185317
583,0.138204071861028
584,0.136149977369088
585,0.135453930235601
586,0.131750322348037
587,0.129774849587174
588,0.128311161608231
589,0.126847473629288
590,0.125383785650345
591,0.12580056276798
592,0.12735962778143
593,0.12746767599844
594,0.129713193775609
595,0.1291433598413
596,0.130726702191633
597,0.13144154272949
598,0.132047410911601
599,0.132085013821521
600,0.133709286377731
601,0.134474209219493
602,0.13532072113835
603,0.135078989897964
604,0.136458410991172
605,0.135930575922148
606,0.136128741562273
607,0.135782027884189
608,0.134172733855306
609,0.134399542653923
610,0.13347939410559
611,0.133000317640486
612,0.132033137468817
613,0.131360893781154
614,0.130536059921478
615,0.13229765430972
616,0.130609826393482
617,0.131701578105008
618,0.131778259072444
619,0.132520808579822
620,0.132135842372353
621,0.133140290936567
622,0.130952481954461
623,0.130962760221746
624,0.130240103460364
625,0.129517446698982
626,0.128794789937601
627,0.128799529584101
628,0.128627511220266
629,0.12814214564414
630,0.129497659631065
631,0.127877198312132
632,0.128821226772881
633,0.129835260189304
634,0.130159130589477
635,0.131086582444918
636,0.129547712479009
637,0.131310052590969
638,0.130527277977308
639,0.131035305107068
640,0.130583483143218
641,0.130172572253936
642,0.129581382990958
643,0.1287536042871
644,0.127925825583242
645,0.127098046879385
646,0.127486128784707
647,0.127021553477974
648,0.12495368054078
649,0.126979565817308
650,0.125903463499084
651,0.127157132790479
652,0.126033950979931
653,0.124242089974061
654,0.122176024429689
655,0.123397477507898
656,0.121981049267092
657,0.123617152035886
658,0.125364034458591
659,0.128622806067958
660,0.129927028442673
661,0.130494382156084
662,0.13140842578912
663,0.131038003995078
664,0.130489774387372
665,0.130884577585938
666,0.13108768286258
667,0.131576792487008
668,0.131560805612602
669,0.129572803393417
670,0.130397379077558
671,0.130291731478081
672,0.129774561941681
673,0.130231439340436
674,0.130564948384168
675,0.130690963297723
676,0.130838267569345
677,0.131905755261359
678,0.130564224220595
679,0.130688354296922
680,0.133577346068261
681,0.130973636096347
682,0.129095406637337
683,0.126516859507591
684,0.122886606390448
685,0.119564204578156
686,0.117403109782876
687,0.114920470760731
688,0.114204709407004
689,0.114669007729174
690,0.116642410069689
691,0.118831111189697
692,0.119256036211331
693,0.120827377831737
694,0.122349562026119
695,0.123150196072367
696,0.125813593106966
697,0.126992255969687
698,0.125748806379412
699,0.126226260650795
700,0.12902596830744
701,0.128359710330628
702,0.13100832898763
703,0.132024264153581
704,0.135258681399534
705,0.135682052830011
706,0.138847269408463
707,0.141299345609224
708,0.141929528634121
709,0.144459354373652
710,0.1433713111716
711,0.144269696103024
712,0.145118803587682
713,0.139973197788809
714,0.137188772546818
715,0.130240647055507
716,0.123989084895348
717,0.119943938334113
718,0.118627609422745
719,0.119802279622237
720,0.122150073528821
721,0.122106137073192
722,0.126342674859528
723,0.125986832726669
724,0.126342140642841
725,0.126955241835303
726,0.126973277982392
727,0.13008154866765
728,0.1324486355352
729,0.136599316034458
730,0.14063103011089
731,0.146165005455243
732,0.152000594413345
733,0.157845644669163
734,0.161976652472949
735,0.164220144233174
736,0.167626567126884
737,0.169787831124583
738,0.171949095122281
739,0.174110359119979
740,0.178082243458817
741,0.179538243712347
742,0.181727151686564
743,0.18391605966078
744,0.186104967634997
745,0.187456642570292
746,0.188161638901192
747,0.189516655881327
748,0.18814179009985
749,0.189733380113371
750,0.190412350068978
751,0.189357926666732
752,0.19246364388449
753,0.191551635030461
754,0.189508161749842
755,0.177844741647963
756,0.166181321546085
757,0.154517901444206
758,0.135649007080707
759,0.118662829781303
760,0.106025771107597
761,0.103614004912276
762,0.10749461437839
763,0.11532546614384
764,0.127255841518886
765,0.13933283969231
766,0.152597725852681
767,0.166640877652971
768,0.174648780511063
769,0.180271704524937
770,0.185401286028837
771,0.187171086880768
772,0.189640177170098
773,0.192145491929496
774,0.191140866297144
775,0.191491561736585
776,0.192504541210075
777,0.190087567302906
778,0.193366441376917
779,0.191092941102345
780,0.193329827021009
