"wavelength","measurement"
380,0.00288631548766746
381,0.00277953665083444
382,0.00280857952092269
383,0.00260985867227939
384,0.00273921563933056
385,0.00284935659611532
386,0.00305879919600408
387,0.00324666473316953
388,0.00333985577536069
389,0.0034537079041905
390,0.00347996780781843
391,0.00355242377916141
392,0.0035245301248419
393,0.00369279986363463
394,0.0038547710735789
395,0.00410696959059666
396,0.00464995999768449
397,0.00531037601494818
398,0.00597079203221187
399,0.00663120804947556
400,0.00693642101199873
401,0.00760686535337674
402,0.00796908130150726
403,0.00827833712328338
404,0.00846418641580875
405,0.00866039842863565
406,0.00904048486121875
407,0.00924717035376964
408,0.00944824555470808
409,0.00980609459773849
410,0.0103288875224559
411,0.0105442825213415
412,0.0110018166963888
413,0.0113644287648653
414,0.0114613959060676
415,0.0117463599923984
416,0.0117866716094869
417,0.0117552001335743
418,0.0120190604401886
419,0.0119276105448161
420,0.0123048111537875
421,0.0123848072886518
422,0.0125956547478743
423,0.0128144340165573
424,0.0129086058584808
425,0.0126502495749535
426,0.0126128615097257
427,0.0123220406064882
428,0.012028593805296
429,0.0120576207029427
430,0.0120135104056186
431,0.0125929890739768
432,0.0129578963626371
433,0.0134830693118739
434,0.01409142632871
435,0.0144488918299296
436,0.0146342607157492
437,0.0148700485322932
438,0.0151058363488372
439,0.0153416241653811
440,0.0154776366144152
441,0.0157191302457062
442,0.0162274235503895
443,0.0162191057051908
444,0.0165390113222272
445,0.0168589169392636
446,0.0171788225563
447,0.0173988030789182
448,0.0174705214560627
449,0.0181768060414438
450,0.0180524604466529
451,0.0179304806304584
452,0.0178778146756085
453,0.0178251487207585
454,0.0177724827659086
455,0.0176918591574531
456,0.0175928634309821
457,0.0177396532157339
458,0.0177779088607833
459,0.0180090524311579
460,0.0179780043791777
461,0.0177843948616882
462,0.018179681308704
463,0.0177088385567975
464,0.0174948230668738
465,0.0173090866255141
466,0.017091543808123
467,0.0170479452569634
468,0.0168679111968902
469,0.0167081042222486
470,0.0170046478507931
471,0.0169785009904694
472,0.0169861332040481
473,0.017166095868122
474,0.0171924188923597
475,0.0174677365478774
476,0.0170758568052965
477,0.0170622959465527
478,0.0170487350878088
479,0.0170351742290649
480,0.0170235510115813
481,0.0165367057454708
482,0.0163171467377824
483,0.016214365250438
484,0.0158181000565085
485,0.0154594382355502
486,0.0155646323017815
487,0.0157055352135402
488,0.0158188387848369
489,0.0162994919827386
490,0.0163506509773381
491,0.0165147207188402
492,0.0169156107026247
493,0.0167539412436263
494,0.0170232228191561
495,0.0168531430716105
496,0.0169133121819105
497,0.0166520396322213
498,0.0167565937342587
499,0.016382885002662
500,0.0165661397059488
501,0.0163979589958437
502,0.0167242618028429
503,0.0167758118990947
504,0.0166635247252145
505,0.0172049691342563
506,0.0171491499380312
507,0.0172435628392266
508,0.0173821151189716
509,0.0174252740435496
510,0.0171558459874598
511,0.017462871474512
512,0.0173951627938141
513,0.0168911015972469
514,0.0168619858418871
515,0.0166150738801741
516,0.0165362643115207
517,0.0165362736226029
518,0.0165183087818984
519,0.0168520933423305
520,0.0171882015472388
521,0.0174217365899532
522,0.0176552716326675
523,0.0178888066753819
524,0.0178491642636742
525,0.0179331484576634
526,0.0180295872329442
527,0.0179533493030271
528,0.0181309198331709
529,0.0183890076405413
530,0.0184149626031847
531,0.0185625250754771
532,0.0185111697569107
533,0.0187176035458983
534,0.0187957688094882
535,0.0186488772889321
536,0.0188038451491075
537,0.0187136944158267
538,0.0186716451135371
539,0.0185577598960786
540,0.0186612963562847
541,0.0185494059503175
542,0.0184486830726314
543,0.0185230683338719
544,0.0187272064200398
545,0.0185552023118042
546,0.0187665736627639
547,0.0187841427109249
548,0.0188017117590859
549,0.0188192808072468
550,0.0186330989783923
551,0.0187558140565326
552,0.0189759949183589
553,0.0188191590865173
554,0.0187616195153486
555,0.0189444037431417
556,0.0187120056067136
557,0.018707378219583
558,0.0185547243106635
559,0.0184323664183847
560,0.0185815227451126
561,0.0183143306598359
562,0.0186312551529635
563,0.0183814488404086
564,0.018432221091409
565,0.0181756245099315
566,0.0180994349961576
567,0.0178476860173872
568,0.0180442464455159
569,0.0178097609579519
570,0.0177853328457065
571,0.0178195089600285
572,0.0178645279299856
573,0.0178268821160557
574,0.0179185736308607
575,0.0177692091922803
576,0.0178462273230645
577,0.0179232454538487
578,0.0180002635846329
579,0.0180772817154171
580,0.0181542998462014
581,0.0184606515280693
582,0.0183488520674607
583,0.0185713041569729
584,0.0183332083854439
585,0.0183175601344899
586,0.0179185627365693
587,0.0176826551545586
588,0.0175863287302954
589,0.0174900023060322
590,0.017393675881769
591,0.0175766635658602
592,0.017827456519557
593,0.0180169467969576
594,0.0183545414728097
595,0.0184374516200305
596,0.0187608583224635
597,0.0189304536547741
598,0.0191381213120731
599,0.019241973945118
600,0.0195141652258315
601,0.0197294929475911
602,0.0199868361629503
603,0.0199188004072504
604,0.0202834609534224
605,0.020190437793772
606,0.0203227298854002
607,0.0203302819103169
608,0.0201236436618102
609,0.0202088712686145
610,0.0201013527827444
611,0.020048221119308
612,0.0199638816309688
613,0.0199547342045715
614,0.0197520614790321
615,0.0199713240927919
616,0.0197641500945399
617,0.0199567289375727
618,0.0199712079746851
619,0.0199746578390353
620,0.0199873131363413
621,0.0200983210857977
622,0.0197566881386757
623,0.019709346082488
624,0.0195924154077804
625,0.0194754847330728
626,0.0193585540583652
627,0.0193754363878036
628,0.0192963884303118
629,0.0192533600007964
630,0.0193824737645493
631,0.0191742027008176
632,0.0192227456063064
633,0.0193814678066607
634,0.0194509563526428
635,0.0195470016180495
636,0.0192952412710916
637,0.0194947018581109
638,0.01935045999586
639,0.0194162522614605
640,0.0192703643688029
641,0.0192142889208303
642,0.0190898379639034
643,0.0189502326596707
644,0.0188106273554381
645,0.0186710220512055
646,0.0186459606519887
647,0.0185629375048183
648,0.018125768125552
649,0.0185082676166353
650,0.018248903636358
651,0.0184772923944676
652,0.0182196729209219
653,0.0179947077840367
654,0.017653500056253
655,0.017865488732038
656,0.0176738621800936
657,0.0178609695940281
658,0.0180333314896691
659,0.018490783305368
660,0.0185973410898464
661,0.0186108992184054
662,0.0187580158848047
663,0.018620108051863
664,0.0185090870641467
665,0.0185727693585609
666,0.0186322180879887
667,0.0186253252628295
668,0.0185576004700519
669,0.0182859874856305
670,0.0183475584919658
671,0.0183037979576852
672,0.0181711025668639
673,0.0182386421150126
674,0.0182777396530566
675,0.0182532222173309
676,0.0182501783508799
677,0.0183589181270784
678,0.0181469517068937
679,0.0181241504260105
680,0.0184956811446725
681,0.0182667754294409
682,0.0178230085468265
683,0.0176263844601184
684,0.0170411051729361
685,0.0165820592769189
686,0.0162399319419052
687,0.0159713768414071
688,0.0158254791434855
689,0.0159344134872003
690,0.0161451448184994
691,0.0165427183587128
692,0.0166558394328624
693,0.0168939584548179
694,0.0172483332023585
695,0.0174426103104407
696,0.0178525923406269
697,0.0181042313587679
698,0.0180141386436565
699,0.0182614471765873
700,0.0187489547543118
701,0.0187970535572571
702,0.0193291225790018
703,0.0196224935836165
704,0.0202279113795318
705,0.0204955022998563
706,0.0210707807324701
707,0.0215623931829375
708,0.0218919329445908
709,0.0225041608289228
710,0.0225211563828803
711,0.0227987400633036
712,0.0231314986545487
713,0.0224541665107192
714,0.0221442407918538
715,0.0211810563608748
716,0.0203298050599656
717,0.019799818809707
718,0.019829269182419
719,0.020261395522093
720,0.0208829411404391
721,0.0209274752957607
722,0.0219103388208501
723,0.0219941879336132
724,0.0222792654397216
725,0.022638943092334
726,0.0228253637105173
727,0.0236216504378604
728,0.0242352692912259
729,0.0252398042518196
730,0.0262467321514142
731,0.0276155127853955
732,0.0288965314104528
733,0.0303545396918016
734,0.0313086900326967
735,0.0320415245009471
736,0.0328387263673105
737,0.0335415434895964
738,0.0342443606118822
739,0.0349471777341681
740,0.0360654918574517
741,0.0365852986766882
742,0.0372135944131891
743,0.0378418901496901
744,0.0384701858861911
745,0.0390069382673006
746,0.0391731746163639
747,0.039731982751714
748,0.0394571211242452
749,0.0400029692035252
750,0.0401948825301582
751,0.0402050893059753
752,0.0408808540184218
753,0.0407415747062512
754,0.0405191676117347
755,0.0380333321041477
756,0.0355474965965607
757,0.0330616610889737
758,0.0288749579384843
759,0.0252225124164573
760,0.0225342379433035
761,0.0220439779577084
762,0.0229416096480544
763,0.0246884840708253
764,0.0273785175859722
765,0.0300003640344029
766,0.0331504166177024
767,0.036264902662339
768,0.0379346073092155
769,0.0393252152957047
770,0.0403581502681051
771,0.0407947768911905
772,0.0415056718158434
773,0.0420366873355926
774,0.0418259711422697
775,0.0419597155850225
776,0.0421303796728669
777,0.0418188654267302
778,0.0422766905342373
779,0.0419335199941844
780,0.0425079322189195
