"wavelength","measurement"
380,0.0173549047615923
381,0.016799580055224
382,0.0164277747394007
383,0.0161542870701126
384,0.0166348392834916
385,0.0172084063047658
386,0.0183530848420127
387,0.0191398932162952
388,0.0203395565955401
389,0.0209939533162719
390,0.0203906050361355
391,0.0205872396113859
392,0.0208687344263554
393,0.0212242362666434
394,0.0214789465203952
395,0.0236758355247625
396,0.0262055753647605
397,0.0293623407606364
398,0.0325191061565123
399,0.0356758715523881
400,0.037747760972028
401,0.0404599158276081
402,0.0419444933405282
403,0.0424641530969474
404,0.0432482968070542
405,0.0437070621571185
406,0.0443614493327026
407,0.0448105539557533
408,0.0453599539479016
409,0.0461808409200927
410,0.048492853299518
411,0.048367489325586
412,0.050224203210988
413,0.0513051656066252
414,0.0509042195073585
415,0.0515530003382487
416,0.0514593966116075
417,0.0508921200289153
418,0.0518984665948743
419,0.050945764086893
420,0.0520839564438759
421,0.0520278393754576
422,0.0522605771033147
423,0.0532687266689361
424,0.0533306783230677
425,0.0522095182069918
426,0.0518990189851887
427,0.0507058431593735
428,0.049191731483499
429,0.0492043282360049
430,0.0493477972509723
431,0.0509651968435054
432,0.052975929887349
433,0.0550740864177186
434,0.0569652058211759
435,0.058905273112021
436,0.0593771030314552
437,0.0604592836882324
438,0.0615414643450097
439,0.0626236450017869
440,0.0631627632417448
441,0.0645932278816048
442,0.0661490665497749
443,0.0668444529204347
444,0.0680786398915787
445,0.0693128268627228
446,0.0705470138338668
447,0.0718700996200821
448,0.0720673757261585
449,0.0749359174565785
450,0.0745444614760578
451,0.0743930150231191
452,0.0743937509380687
453,0.0743944868530182
454,0.0743952227679678
455,0.0743512771972722
456,0.074799577320619
457,0.0754029091557734
458,0.0762893168898526
459,0.0778000930930542
460,0.0777804691026803
461,0.0772169154112902
462,0.0796559223670043
463,0.0774204176380894
464,0.0768030434091071
465,0.0765559602581251
466,0.0757196301099474
467,0.0759865574392723
468,0.0753179745469537
469,0.0748582287805477
470,0.0762814332165257
471,0.076594501379364
472,0.0771873138681548
473,0.0784055091804485
474,0.0786635545880412
475,0.0800798231649418
476,0.0784186614927257
477,0.0787032625478074
478,0.078987863602889
479,0.0792724646579707
480,0.0794038087831593
481,0.0775733671211482
482,0.076357544725248
483,0.076219614930822
484,0.0743860263582122
485,0.0729059887705109
486,0.0738964434178883
487,0.0742872918507123
488,0.0754036610144239
489,0.0771640132104591
490,0.0779058382628847
491,0.0788673456771924
492,0.0810083130886596
493,0.0801144506218312
494,0.081644525539472
495,0.0809289471973352
496,0.0815451903956777
497,0.0803478387126299
498,0.0809779437778251
499,0.0791401875549634
500,0.079848770020282
501,0.0793814593068564
502,0.0806718503667255
503,0.0813171554961724
504,0.0805211043449368
505,0.0835230517310667
506,0.0832392747736268
507,0.0839133813395593
508,0.084650772840594
509,0.0848107730340132
510,0.083519342877471
511,0.0850345164873833
512,0.0848314357451623
513,0.0823960885936977
514,0.0821057686567077
515,0.0807914336783953
516,0.0806138603412485
517,0.080521392307999
518,0.0804404417553402
519,0.0820397615824763
520,0.083743119309474
521,0.0849835595571652
522,0.0862239998048564
523,0.0874644400525476
524,0.087206518269059
525,0.0873567148170348
526,0.0880391913484663
527,0.0878237495955622
528,0.0882470170961243
529,0.0898442809437525
530,0.0900076097848458
531,0.0904293608890942
532,0.0903599591736012
533,0.0911630431797702
534,0.0918663255891783
535,0.0908490279137294
536,0.0918020022696556
537,0.091524264447356
538,0.0909489055045067
539,0.0907418148242831
540,0.091389238360821
541,0.0908411536923017
542,0.0903348170981071
543,0.0910849843185849
544,0.0919415641236842
545,0.091219534607896
546,0.0921592415251663
547,0.092266847363065
548,0.0923744532009636
549,0.0924820590388622
550,0.0919202585920564
551,0.0925453659135839
552,0.0938907388551025
553,0.0928220481643459
554,0.0928631141958762
555,0.0936300505832253
556,0.0927093115389873
557,0.0925995353395258
558,0.0922435346311068
559,0.0914617423532419
560,0.0927274252673628
561,0.0915188363670743
562,0.0932129512997673
563,0.0918486386463725
564,0.0925554539708866
565,0.0915185214894367
566,0.0910537519916124
567,0.0901345145486533
568,0.0908958644598704
569,0.0900673061810072
570,0.0901007665190789
571,0.0904102847779905
572,0.0906703629647753
573,0.0907557060444484
574,0.0914198925847629
575,0.0901725328627849
576,0.0905340740300083
577,0.0908956151972317
578,0.0912571563644551
579,0.0916186975316785
580,0.0919802386989018
581,0.0932702915526109
582,0.0925976128173686
583,0.093039295651184
584,0.0917019210761578
585,0.09131008197368
586,0.0887189441699023
587,0.0872685259119365
588,0.0862075497632619
589,0.0851465736145874
590,0.0840855974659128
591,0.0844449689076318
592,0.0856424284990366
593,0.0857369357734707
594,0.0872219687500777
595,0.0868505669185126
596,0.0876889821672394
597,0.0882718503919798
598,0.088592088050981
599,0.0888506799240159
600,0.0895886175196001
601,0.0901026155191031
602,0.0906922330616742
603,0.090480921989284
604,0.0915931710019823
605,0.09080700452073
606,0.091369913977084
607,0.0909349034579996
608,0.0899409670578931
609,0.0900226382229703
610,0.0893323672644019
611,0.0888206005255319
612,0.0881996033950828
613,0.0879658349745547
614,0.087046291497881
615,0.0880362886992224
616,0.0869096801188397
617,0.0874772181308698
618,0.0876891093335987
619,0.088010995563519
620,0.0877639756332029
621,0.0884007392255629
622,0.0868557878840331
623,0.0865622175276823
624,0.0860520439523723
625,0.0855418703770623
626,0.0850316968017523
627,0.0850577972885564
628,0.0847306738029522
629,0.0844567516678469
630,0.0851771446988154
631,0.084164879903225
632,0.0846828617346625
633,0.0853495448579668
634,0.0851546352647802
635,0.0858913313532068
636,0.0851182158220379
637,0.086219202210158
638,0.0857497094525323
639,0.0859772845924184
640,0.0855865481918849
641,0.0852360616223308
642,0.0847657821989466
643,0.0841144450366818
644,0.0834631078744169
645,0.0828117707121521
646,0.0831011100042348
647,0.0828863938541693
648,0.081338629398997
649,0.0827174820276319
650,0.081819620437345
651,0.0828246262023908
652,0.0815726894704766
653,0.0807623930120572
654,0.0793082710582474
655,0.0801505962240105
656,0.07912799672155
657,0.0801554225271679
658,0.0812264540734001
659,0.0833653216758109
660,0.0840964863697049
661,0.0845829225729504
662,0.085109385394429
663,0.0848912516084282
664,0.084396269436224
665,0.0845641567356786
666,0.0846348199127354
667,0.0849259200542173
668,0.085376926324127
669,0.0837464048605387
670,0.0841716009680748
671,0.0840912978571846
672,0.0837401200430932
673,0.0837869296989592
674,0.0842599455631698
675,0.083813376389822
676,0.0839991788780387
677,0.0847879934157904
678,0.0836176995127211
679,0.0835828621723076
680,0.0856017562194021
681,0.0840960848345212
682,0.0821373023847431
683,0.0807716748477886
684,0.0779902899372533
685,0.0760124426127893
686,0.0743307623837223
687,0.0726709041045527
688,0.0721057328086387
689,0.0721406088501742
690,0.0730579502404171
691,0.0743033364938229
692,0.0744528750491098
693,0.0751023782839388
694,0.0759828098172606
695,0.0762400484229295
696,0.0774781335922085
697,0.0779017706713514
698,0.0770236388006273
699,0.0770152095136426
700,0.07844686312133
701,0.077742604540326
702,0.0791825085887848
703,0.0796957326202778
704,0.0811037145082119
705,0.0811439720035214
706,0.0825264733574065
707,0.0838389010496089
708,0.083703921553767
709,0.0848052845762005
710,0.0841399840716136
711,0.0842606721124819
712,0.0842790717929165
713,0.0807010806932871
714,0.0786458837376764
715,0.0740514122568086
716,0.0701037061936071
717,0.0672954280917286
718,0.0665075888195011
719,0.0665786236946302
720,0.0673502177458413
721,0.0670305455671826
722,0.0689650234964827
723,0.0686253271807796
724,0.0682263954303571
725,0.0684408029739957
726,0.0680901880742197
727,0.0692750941724579
728,0.0703056705439269
729,0.0722145254466085
730,0.0742782654728039
731,0.0769822733719382
732,0.0795387944893097
733,0.0822953746167147
734,0.0840154895468129
735,0.084743003233623
736,0.0865487388312441
737,0.0873168899768125
738,0.0880850411223808
739,0.0888531922679492
740,0.0908701048057264
741,0.091668118604155
742,0.0924714667287189
743,0.0932748148532829
744,0.0940781629778469
745,0.0944501280052716
746,0.0942181666525478
747,0.0947896543835197
748,0.0938589074351874
749,0.0947515994387557
750,0.0945003100199702
751,0.0940376323867115
752,0.0955560803458949
753,0.094908094056187
754,0.0937049195381213
755,0.0878412550238055
756,0.0819775905094897
757,0.0761139259951739
758,0.0666541644729167
759,0.0578591179436901
760,0.0516855928969269
761,0.0505151090307421
762,0.0521634975822
763,0.0560298874693098
764,0.061632996794819
765,0.0677314702554231
766,0.0743900383544478
767,0.0811489619276236
768,0.0850364121849576
769,0.0879436100124256
770,0.0900990067819035
771,0.0910001633623882
772,0.0922031019223088
773,0.0937168055109233
774,0.0930074268462348
775,0.0932843387797416
776,0.0937291680143428
777,0.0925022386732913
778,0.0936808880588998
779,0.0930086734108446
780,0.0937778281803116
