"wavelength","measurement"
380,0.0037188476178016
381,0.00363617086512796
382,0.00358162443174219
383,0.00365842047678688
384,0.00376064907751946
385,0.00406040012721285
386,0.00426867735696487
387,0.00453228515955722
388,0.00476547947905974
389,0.00504763271193479
390,0.00502948285755134
391,0.00501451922044388
392,0.00506546792255576
393,0.00517811198254726
394,0.00544542655451943
395,0.00568196932233125
396,0.00635638763110604
397,0.0070964905577454
398,0.00783659348438476
399,0.00857669641102412
400,0.00900183872320952
401,0.00966192437100926
402,0.0100607127171093
403,0.0102099043140721
404,0.0103071734706513
405,0.0103235530423683
406,0.0105649665199746
407,0.0105797200347758
408,0.0107115611845335
409,0.0108606150616488
410,0.011361973576933
411,0.0114454314539957
412,0.01175150389002
413,0.0119851785781785
414,0.0119596531490001
415,0.0121007739314475
416,0.0120465789471124
417,0.0118890732949927
418,0.0120197797729152
419,0.0117783310464349
420,0.0120233281676134
421,0.0119997493694344
422,0.0121171033137192
423,0.012179452459618
424,0.0121683978878077
425,0.0119722230747951
426,0.0118638324554072
427,0.0115811810006411
428,0.0111917847700499
429,0.0111320147952864
430,0.0112102282043697
431,0.0116387983578229
432,0.0121077921971852
433,0.0125618553705396
434,0.0132061688391893
435,0.0135094147102688
436,0.0135835182599623
437,0.0136814457879894
438,0.0137793733160165
439,0.0138773008440436
440,0.0139209937607423
441,0.0141588502414898
442,0.0144845519291296
443,0.01459965703936
444,0.014843087046477
445,0.015086517053594
446,0.015329947060711
447,0.015554650069415
448,0.0155700220560693
449,0.0162739185214293
450,0.0161576513486965
451,0.0160493833631681
452,0.0160089753114991
453,0.01596856725983
454,0.0159281592081609
455,0.0160129664344349
456,0.0159415016889789
457,0.0162917037904771
458,0.0163110403649494
459,0.0165919388824639
460,0.016566161609515
461,0.0164183197770098
462,0.0168608758851825
463,0.0164208221019628
464,0.0162390084830527
465,0.0161142742494789
466,0.0159257273796032
467,0.01592933970381
468,0.0157816775948998
469,0.0156438805854938
470,0.0159597263589985
471,0.0159161173128733
472,0.0160410505915315
473,0.0161854096520143
474,0.0163177819861957
475,0.0165207960387721
476,0.0161576010905579
477,0.0161850122571131
478,0.0162124234236683
479,0.0162398345902235
480,0.0162430195790396
481,0.0158293780172467
482,0.0156375537211281
483,0.0155886636102254
484,0.0152627193456148
485,0.0149383861079585
486,0.0150885482572889
487,0.015217360721334
488,0.0153002606327549
489,0.0157543969497311
490,0.0158338452898383
491,0.0159018963262475
492,0.0162863088345214
493,0.0161049133924333
494,0.016341480661784
495,0.0161141770035498
496,0.016136795008858
497,0.0158944396762686
498,0.0159060121349291
499,0.0155113802335845
500,0.0155668023433139
501,0.01540543813656
502,0.0156313089166437
503,0.0156730592238502
504,0.0155076880089276
505,0.0160037424787206
506,0.0159606934812
507,0.0160123128737951
508,0.0161493438195537
509,0.0161884705180315
510,0.0159330916487502
511,0.0162098620704633
512,0.0161510971170314
513,0.0156679939988166
514,0.0155992892128268
515,0.0153577218697738
516,0.0152645729599411
517,0.0152515920046861
518,0.0152171907972162
519,0.0155032584721009
520,0.0158470823360585
521,0.0160490301966363
522,0.016250978057214
523,0.0164529259177918
524,0.0163855257808172
525,0.0164459938870115
526,0.0165269261102347
527,0.0164649905244618
528,0.016571650652078
529,0.0168116614636385
530,0.0168285161093522
531,0.0169296292643105
532,0.0168702237902635
533,0.0170528886421674
534,0.0171359123025472
535,0.0169790299636081
536,0.0172252586416166
537,0.0172085610807609
538,0.0172395141649172
539,0.0174036346007794
540,0.0177457501515004
541,0.0179252679350546
542,0.0180739373298053
543,0.0183556419352353
544,0.0184818652440194
545,0.0181892379211913
546,0.0181771913958471
547,0.0179204664760077
548,0.0176637415561683
549,0.0174070166363289
550,0.0171146880086708
551,0.0171363020462544
552,0.0171573629967782
553,0.01696115165168
554,0.0167918309347448
555,0.0168963803508008
556,0.0166450951196462
557,0.0165263309954404
558,0.0163919803297383
559,0.0162765536574111
560,0.0164140269563792
561,0.0161023725018703
562,0.0163597790830287
563,0.0160845804096314
564,0.0160984316799203
565,0.0158371095786924
566,0.0157487342320912
567,0.0154889700392313
568,0.0155477823822594
569,0.0152924158972791
570,0.0152359808919923
571,0.0152602313770679
572,0.0152308517170026
573,0.0152029533348297
574,0.0152939776991227
575,0.0150928462914077
576,0.0151538114444003
577,0.0152147765973929
578,0.0152757417503855
579,0.0153367069033781
580,0.0153976720563707
581,0.0155907866207661
582,0.0155153923073265
583,0.0155832064562027
584,0.0152823281030167
585,0.015183059317243
586,0.0146255161206453
587,0.0142710731197438
588,0.0139936289074751
589,0.0137161846952065
590,0.0134387404829378
591,0.0134328491271226
592,0.0135163342780958
593,0.0135436236496253
594,0.0136993975967372
595,0.0136700474558022
596,0.0137585893915554
597,0.0138280102003883
598,0.0138844234712193
599,0.0139155362718745
600,0.0140668376036695
601,0.0141025074474612
602,0.0141603965237756
603,0.0140799962597605
604,0.014224373730673
605,0.0141488153164317
606,0.0142537919703017
607,0.0143901665008987
608,0.0145124382971795
609,0.0148135955513053
610,0.0148802331404056
611,0.0149175620464222
612,0.01466411807872
613,0.014328950332653
614,0.0138834509195706
615,0.0137930182932062
616,0.0134370954942175
617,0.0134306062843123
618,0.0133334987187114
619,0.0132960883546849
620,0.013191785879003
621,0.0132364726396259
622,0.0129500363486794
623,0.0128852520609785
624,0.0127132241617443
625,0.0125411962625102
626,0.012369168363276
627,0.0123123058256249
628,0.0122463012905695
629,0.0122002793439177
630,0.0122483783222393
631,0.0120617102006295
632,0.0120534064290276
633,0.0120821297649195
634,0.0120186976968924
635,0.012034177207952
636,0.0119059968435286
637,0.0119698559015847
638,0.011849094414215
639,0.0118692462888001
640,0.0117400933329395
641,0.0116778392195254
642,0.011550163029306
643,0.0113900220994961
644,0.0112298811696862
645,0.0110697402398763
646,0.0110144073812528
647,0.0109068290028828
648,0.0106764544105992
649,0.0108608774998078
650,0.0107078395064655
651,0.0107980220133096
652,0.0106187421447885
653,0.0104114100477229
654,0.0102079883700095
655,0.0102801658430108
656,0.0101727319575234
657,0.0102201119595348
658,0.0103411581165544
659,0.010595286964185
660,0.0106873881830019
661,0.0106792091675038
662,0.0107384073892365
663,0.0106118010366812
664,0.0105541066831826
665,0.0105238831347099
666,0.0105379875620235
667,0.0105013444320348
668,0.0105182323840101
669,0.0103045731256132
670,0.0103275031858541
671,0.0102269453516931
672,0.0101420139268407
673,0.0101474848314252
674,0.0101315299482343
675,0.0101008647265641
676,0.0100468549271851
677,0.0101010759411309
678,0.0099667162806156
679,0.00989308058397697
680,0.0100738708497937
681,0.00985438616504405
682,0.00962526984130737
683,0.00938365201937994
684,0.00906523519217726
685,0.00877514247047605
686,0.00851668811651448
687,0.00830340414989346
688,0.00816775687259989
689,0.00819747227630558
690,0.00829830937120957
691,0.00845154125849114
692,0.00844197632719111
693,0.00857839377662462
694,0.00872507793554189
695,0.00877528684770218
696,0.00901644892909941
697,0.00907497556393181
698,0.00900401640876659
699,0.00906367843292351
700,0.00926647680413108
701,0.00924862983878089
702,0.00949962610691673
703,0.00961593909273817
704,0.00989427915258787
705,0.0100036517100917
706,0.0102462424890409
707,0.0104085531251028
708,0.0105102629299943
709,0.01069891497562
710,0.0106424468075564
711,0.0107069601112209
712,0.0106902599242776
713,0.0102776404940574
714,0.0098985448183051
715,0.00927780375637089
716,0.00872686029141746
717,0.00834703617381054
718,0.00827922887502212
719,0.0083468873066958
720,0.00851464585741898
721,0.00842950498028459
722,0.00873890760166261
723,0.00867642258434124
724,0.00870383842933728
725,0.00871173882729028
726,0.00873818520067105
727,0.00888264437643973
728,0.00910627316493829
729,0.00938659526512476
730,0.00979411754593839
731,0.0102382969030518
732,0.0106359875336498
733,0.0110748870324222
734,0.0114667270872458
735,0.0116603225197642
736,0.0118861014267649
737,0.0120617158183269
738,0.0122373302098889
739,0.0124129446014509
740,0.012783861214483
741,0.0129083192555331
742,0.013027237422871
743,0.0131461555902088
744,0.0132650737575467
745,0.0133856639821408
746,0.0133380694891895
747,0.0134440541552458
748,0.0132374027022256
749,0.0134009163427092
750,0.0133238754297219
751,0.0133083408448201
752,0.0133966496550228
753,0.0131441878364724
754,0.0130876209367622
755,0.0122254445280638
756,0.0113632681193654
757,0.010501091710667
758,0.0090879588328618
759,0.00780999700585397
760,0.00684749530272545
761,0.00653030000478342
762,0.00671804054670875
763,0.00716625655642959
764,0.00801537591318562
765,0.00878814655451158
766,0.00979550876210912
767,0.0107018673958257
768,0.0111883354929109
769,0.0115984990386559
770,0.0119283608771834
771,0.0120179984545556
772,0.0121162276111495
773,0.0122815823076774
774,0.0121492201681907
775,0.0121295326905469
776,0.0121653798122951
777,0.011996165281524
778,0.0120671999892325
779,0.0119301077298297
780,0.012019388661382
