"wavelength","measurement"
380,0.0278445443105945
381,0.0269130538012476
382,0.0266037641709771
383,0.0263413298079337
384,0.0265206120221999
385,0.0277598036205416
386,0.0295683115816413
387,0.0310906732434868
388,0.032590104095765
389,0.0333633811422482
390,0.0325917984207261
391,0.033168366504931
392,0.033370502063593
393,0.0333366374352063
394,0.0341621484502522
395,0.0371424405196484
396,0.0417895564489164
397,0.0467787672228965
398,0.0517679779968765
399,0.0567571887708565
400,0.0595352426821381
401,0.0638870984659254
402,0.0664763609787597
403,0.0677360909370592
404,0.0680591120598115
405,0.0684110017126823
406,0.0696800998923395
407,0.071089523364865
408,0.0717595098380466
409,0.0738889267287221
410,0.0777381059554871
411,0.0780730641385346
412,0.0805569051635307
413,0.0824662694301559
414,0.0820427532902885
415,0.0831664861051121
416,0.0825275130837052
417,0.0817401625157242
418,0.0829617174947032
419,0.0815863240362797
420,0.083166843145085
421,0.0831435124063261
422,0.0836889817723792
423,0.0840848022045396
424,0.0846781434217925
425,0.0827852967859419
426,0.0816052380446781
427,0.0792061555299096
428,0.076221040971984
429,0.0760211777965361
430,0.076238661746045
431,0.0784512996349341
432,0.0816868304493994
433,0.0843246263336691
434,0.087618898005338
435,0.0893032638648009
436,0.0902041288435741
437,0.0914021991390152
438,0.0926002694344562
439,0.0937983397298973
440,0.0943327985170235
441,0.0958961114811961
442,0.0981391233738975
443,0.0986398082176516
444,0.10004331472767
445,0.101446821237689
446,0.102850327747708
447,0.104280702304044
448,0.104298389529542
449,0.108014447474005
450,0.107520296830121
451,0.106555368715292
452,0.106050929089464
453,0.105546489463636
454,0.105042049837808
455,0.105018894850426
456,0.105013605560003
457,0.105942613221721
458,0.10686989563007
459,0.107892313793472
460,0.10827955037427
461,0.107386445949206
462,0.11033271205303
463,0.106734619711927
464,0.105668828909381
465,0.104621043921309
466,0.103131168483505
467,0.10288010377257
468,0.102464588700535
469,0.101649908719172
470,0.103588822560211
471,0.103861949956571
472,0.104625547254075
473,0.10600087919727
474,0.106338450433333
475,0.108679117520021
476,0.106199160342175
477,0.106214221839395
478,0.106229283336614
479,0.106244344833834
480,0.10585754690597
481,0.103561841062892
482,0.101168931486709
483,0.101334417787393
484,0.0979853159311108
485,0.0959191840935261
486,0.0970865827650389
487,0.0976752192497581
488,0.099220046598617
489,0.101636852061635
490,0.102268156597139
491,0.103095414369439
492,0.105051769664246
493,0.103844245875987
494,0.105514478323208
495,0.10419922164437
496,0.10436462637712
497,0.102491300210516
498,0.102743558089542
499,0.100392999993861
500,0.100869422090033
501,0.0997291223260986
502,0.101543028152604
503,0.101718771441484
504,0.100696766852982
505,0.103678240190602
506,0.103359357968751
507,0.103621579281604
508,0.104266379987166
509,0.104223315481091
510,0.102643759248001
511,0.103889798174249
512,0.103108558024879
513,0.100160686982219
514,0.0987761119651734
515,0.0970105950784466
516,0.0965688048053994
517,0.0964755737836671
518,0.0960873966411721
519,0.0982870962357218
520,0.0996705526584182
521,0.100783933356374
522,0.101897314054329
523,0.103010694752284
524,0.102693860390487
525,0.10275822011815
526,0.103369176999048
527,0.102434534961639
528,0.103517628162059
529,0.104675764946947
530,0.104778694456517
531,0.104706779871752
532,0.104290443722388
533,0.105105830900992
534,0.105440053058267
535,0.104643456368913
536,0.105252177018175
537,0.104509495940969
538,0.103456127021715
539,0.102618149744857
540,0.103302634188864
541,0.1027886311787
542,0.101483599890786
543,0.102238316540711
544,0.103242282087214
545,0.102362100052441
546,0.103533198828684
547,0.103522251221093
548,0.103511303613502
549,0.10350035600591
550,0.102611660963476
551,0.103600780887533
552,0.104630874036567
553,0.103235715619266
554,0.102684488173781
555,0.103562065393065
556,0.101337694456781
557,0.101356061649584
558,0.101180355306027
559,0.100703434731155
560,0.101766423978503
561,0.100257836547261
562,0.10182788341315
563,0.0998688949263537
564,0.100377502269012
565,0.098883948529818
566,0.0979575011508463
567,0.0970114499985177
568,0.0976822424217082
569,0.0963549697532645
570,0.0963985151506368
571,0.0969039483872401
572,0.0967812129347277
573,0.0963418639772114
574,0.0972557502354231
575,0.0959855617735224
576,0.0963406397207631
577,0.0966957176680038
578,0.0970507956152446
579,0.0974058735624853
580,0.0977609515097261
581,0.099030564408121
582,0.0983795473953827
583,0.0986866972534686
584,0.0966994499473158
585,0.0958930646627409
586,0.0927739652074895
587,0.0911201542799001
588,0.0899105621585458
589,0.0887009700371916
590,0.0874913779158373
591,0.0882038261438828
592,0.0887446967186006
593,0.0891144993925947
594,0.0906820223569898
595,0.0906597782481293
596,0.0917974175417533
597,0.0928828620410159
598,0.0935791237443294
599,0.0939954089513837
600,0.0949900055386014
601,0.0962974307804667
602,0.0968343249768057
603,0.0965737092933379
604,0.0972482292115497
605,0.0962758987679602
606,0.0965173137509386
607,0.0962261815102641
608,0.0952011562279841
609,0.0950498125262676
610,0.0942858558480533
611,0.0940987662219409
612,0.0933631426265524
613,0.0929698030215291
614,0.0918912824112905
615,0.0928079304903694
616,0.0917959306447538
617,0.0929932372831257
618,0.0928271506325467
619,0.0931637836487427
620,0.0928366667106757
621,0.0935158684137951
622,0.0918046886961005
623,0.0914239395020276
624,0.0909633442981203
625,0.0905027490942129
626,0.0900421538903056
627,0.0899194006939168
628,0.0898861545702206
629,0.0895450372253983
630,0.0905751533060259
631,0.0888820662128081
632,0.0890067923872486
633,0.0900575849038274
634,0.0902841615213387
635,0.0903398267462837
636,0.0897461636785333
637,0.0910082901983245
638,0.0905896366211369
639,0.0906879072544392
640,0.0900641367300918
641,0.0896607010921628
642,0.0895451601731765
643,0.0886583124692536
644,0.0877714647653306
645,0.0868846170614077
646,0.0868687524783317
647,0.0868056425920491
648,0.0851020435952772
649,0.0863597524771801
650,0.0855451261697658
651,0.0865830759654186
652,0.0856810446477793
653,0.084437281720628
654,0.0830183388056177
655,0.0840380192799408
656,0.0831016496535584
657,0.0841082158903732
658,0.0852900330770053
659,0.0880448752061466
660,0.0889812272356336
661,0.0895282237149984
662,0.0902268591662799
663,0.0899819947964354
664,0.0891235068431427
665,0.0895238315000418
666,0.090019426706027
667,0.0898942484707726
668,0.0902488752910026
669,0.0889537800352912
670,0.0891204238892556
671,0.0890000349118681
672,0.0886278053847808
673,0.0890643363609078
674,0.0893435141532843
675,0.0895189359997805
676,0.0896281520512507
677,0.0904394383372508
678,0.0895138126709571
679,0.0891104691479794
680,0.0906235485709825
681,0.0895372121782063
682,0.0881939195966593
683,0.0862158937514161
684,0.0833510987276997
685,0.0810982709312411
686,0.079430515641397
687,0.0777239112645776
688,0.0768704052168983
689,0.0771346892224021
690,0.0775583884154438
691,0.0789460822364364
692,0.0791234219496122
693,0.0796898101683925
694,0.0811771966302634
695,0.0813270298201795
696,0.0830495412867584
697,0.0839745425278246
698,0.0833306626330239
699,0.0831731272589841
700,0.0849676525233743
701,0.0846283981190181
702,0.0867515492584779
703,0.0883176272500731
704,0.0900225863826283
705,0.0913707466337507
706,0.093190532441503
707,0.0951272230667568
708,0.0961092178318372
709,0.0982947104886663
710,0.0982332967117394
711,0.0991198938605291
712,0.0998746864695251
713,0.0956712705678479
714,0.0935271706355974
715,0.0876157026400059
716,0.0824953971612767
717,0.0786608613961552
718,0.0786059535845465
719,0.0799514368072577
720,0.0821224826666561
721,0.0822843279387569
722,0.0858139487261438
723,0.085777833752185
724,0.0856036456628654
725,0.086068242376267
726,0.0859000792478722
727,0.0885643311102319
728,0.0903956276967711
729,0.0941001163052924
730,0.0981642600602715
731,0.103216197830624
732,0.107931049788787
733,0.112639906419743
734,0.116680856486423
735,0.119294912720106
736,0.121869249749842
737,0.123998072978268
738,0.126126896206694
739,0.12825571943512
740,0.132276247338046
741,0.133810023686409
742,0.135715311368091
743,0.137620599049774
744,0.139525886731456
745,0.140749515658152
746,0.141956574001994
747,0.143746044080579
748,0.142872052803149
749,0.143919031613081
750,0.144670861749531
751,0.14330462908684
752,0.146976187873536
753,0.145881366405062
754,0.145151762621922
755,0.13666974489848
756,0.128187727175038
757,0.119705709451597
758,0.105073854199836
759,0.0914398589248226
760,0.0805352937099584
761,0.0771226924449863
762,0.0806660908657866
763,0.0871915114734756
764,0.0960118001974643
765,0.10540163932513
766,0.11640733853409
767,0.127275920703408
768,0.133655586314925
769,0.138190486131964
770,0.141789084049867
771,0.143531677710193
772,0.144834835072293
773,0.147646383475902
774,0.146981423010238
775,0.147557894981295
776,0.1479952830103
777,0.146551587038346
778,0.149209136535498
779,0.14740655630236
780,0.149156285922821
