"wavelength","measurement"
380,0.0185369570450856
381,0.0182940019871004
382,0.0176420522632955
383,0.0173834695189361
384,0.0177837592879096
385,0.0184204656201416
386,0.0197024740533005
387,0.0206099834038269
388,0.0215855271304022
389,0.0219624558681289
390,0.0221200845272168
391,0.0219856103100105
392,0.0222141210835742
393,0.0227098205319073
394,0.0231579064082532
395,0.0245554846295342
396,0.0273480629086028
397,0.0304333794926668
398,0.0335186960767308
399,0.0366040126607948
400,0.0389039634702092
401,0.0419264246921141
402,0.0432694541143052
403,0.0442667381247074
404,0.0449845669087425
405,0.0450695226406408
406,0.0465653639376109
407,0.0473397727123148
408,0.0478765266713648
409,0.0493076953331275
410,0.0524129427841532
411,0.0528161583487493
412,0.0550707443312037
413,0.0563715109803293
414,0.0573317055988734
415,0.0580025215487896
416,0.0580650455129247
417,0.057781419684144
418,0.059180316584271
419,0.0590513404243409
420,0.0607575227792553
421,0.060966159962285
422,0.061669194024852
423,0.0622397607220906
424,0.0630387448847352
425,0.0613102116511796
426,0.0614658272848698
427,0.0597776865945033
428,0.0584730332684266
429,0.0581244808656065
430,0.0586426255188255
431,0.060224368267268
432,0.0621830037571314
433,0.0641451587395468
434,0.0666622826108687
435,0.0686518222663694
436,0.0689391746272787
437,0.0698360371775153
438,0.0707328997277519
439,0.0716297622779885
440,0.0721840485282535
441,0.0727811745724493
442,0.0744511660819739
443,0.0747932647129545
444,0.0755419513902371
445,0.0762906380675196
446,0.0770393247448021
447,0.0775300801769975
448,0.0777420815651053
449,0.080535995011935
450,0.0793457061563303
451,0.0789729560410897
452,0.0785027902394935
453,0.0780326244378973
454,0.0775624586363011
455,0.0770929847742789
456,0.077087695483856
457,0.0774190993874923
458,0.0779620572358465
459,0.0786155573139901
460,0.0789806219681016
461,0.0778242342867311
462,0.0800985101533673
463,0.0775519432053446
464,0.0767417491679053
465,0.0760003018345608
466,0.0750205146798694
467,0.0746877202950756
468,0.0742513813628946
469,0.0733405113914397
470,0.0749298322253131
471,0.0745857628468067
472,0.0748913859366104
473,0.0760095637210564
474,0.0761481904790041
475,0.0772900998618724
476,0.075151429591769
477,0.0751763434179411
478,0.0752012572441131
479,0.0752261710702852
480,0.075093161321364
481,0.0731481202402158
482,0.0714893626775484
483,0.0712984905191176
484,0.0692817807888236
485,0.067844501059166
486,0.0680689062536472
487,0.0682731344475305
488,0.0693410979109683
489,0.0705112516291383
490,0.0713865478351923
491,0.0717154061497766
492,0.0732909870722459
493,0.0723817125394774
494,0.0735524067895458
495,0.0724644291054023
496,0.0730519712459246
497,0.0717587323454733
498,0.0719618234746897
499,0.0701451499671213
500,0.070573661276098
501,0.0696329088523334
502,0.0707509695250615
503,0.0709241757694602
504,0.0701470671445912
505,0.0723109255664286
506,0.0719187621125725
507,0.0726670911956877
508,0.0729036538130779
509,0.0729460952417886
510,0.0717018642805651
511,0.0728936456218723
512,0.0726263453742993
513,0.0707533103908428
514,0.0698942971163195
515,0.0689646484687032
516,0.068515422896979
517,0.0681636645307063
518,0.0680031347986065
519,0.0693296221989786
520,0.0707346811786421
521,0.0716272636489925
522,0.072519846119343
523,0.0734124285896935
524,0.0730547503236772
525,0.0734446555609825
526,0.0737083638982616
527,0.0732710830561402
528,0.0737060995475495
529,0.0748069644372225
530,0.0748285075693821
531,0.0751183102175531
532,0.0750564569564668
533,0.0756258764166739
534,0.075996270297243
535,0.0751635018845948
536,0.075861044209945
537,0.0754381479605235
538,0.0748208492609761
539,0.0743389959968786
540,0.0746032855886251
541,0.0740471157269546
542,0.0735751058295582
543,0.0740916919678003
544,0.0748036043410436
545,0.0740583126910531
546,0.0747932575167481
547,0.0747175134023681
548,0.074641769287988
549,0.0745660251736079
550,0.0744477878373284
551,0.0746597180956177
552,0.0757995991233147
553,0.0749330586242306
554,0.0746834547871271
555,0.0753300353623778
556,0.0742812454331374
557,0.0740407587311195
558,0.0736583962989953
559,0.0729766365948048
560,0.0738207534238907
561,0.0725937025722834
562,0.0737323681455595
563,0.0726026499076066
564,0.0730559279105604
565,0.0718347338508327
566,0.071234635797577
567,0.0703890616543973
568,0.0705212973085492
569,0.0696686110466526
570,0.0697182520492467
571,0.0697663139402037
572,0.0698275016529386
573,0.0697375614947378
574,0.0701951984005722
575,0.0692908299828148
576,0.0695354502046644
577,0.069780070426514
578,0.0700246906483636
579,0.0702693108702132
580,0.0705139310920628
581,0.0713230243651914
582,0.070818033939083
583,0.0712594880660648
584,0.0698937915385077
585,0.0696323935515571
586,0.067381415455353
587,0.0657626710039566
588,0.0648399184154985
589,0.0639171658270404
590,0.0629944132385823
591,0.0633148671616011
592,0.0638397953842006
593,0.0640154764765189
594,0.0655898988622088
595,0.0654912922263951
596,0.0661530724046894
597,0.0668398911163215
598,0.0671466369475008
599,0.067555486855878
600,0.068350904518626
601,0.0690291762215366
602,0.0694994541608098
603,0.069463136654099
604,0.0701837420271738
605,0.0699710177727508
606,0.0702345376977419
607,0.0696910407024215
608,0.0687268040106767
609,0.0689411966222625
610,0.0683890789716708
611,0.0680166511290989
612,0.0672057618807737
613,0.0671693166122477
614,0.0663106731903635
615,0.066996425102418
616,0.0662746363515611
617,0.0671077222048518
618,0.0667567159920183
619,0.0671838620472893
620,0.0667779543878813
621,0.0671907664204945
622,0.065864807182793
623,0.0661067475067529
624,0.0656169246572953
625,0.0651271018078378
626,0.0646372789583802
627,0.0642499530507338
628,0.0642397998929737
629,0.0639751455521138
630,0.064638118641311
631,0.0637819045572952
632,0.0642536783213364
633,0.0645790268318594
634,0.0645164976017126
635,0.0650598112443941
636,0.0645279415372704
637,0.0652126266854822
638,0.0651533458776842
639,0.0650368301577624
640,0.0648806126493216
641,0.0645153247825329
642,0.0640869235763089
643,0.0634160595766358
644,0.0627451955769627
645,0.0620743315772897
646,0.0621815513304212
647,0.0617123133731584
648,0.0605715195969664
649,0.0616382551768134
650,0.0610293387994635
651,0.0616851745293227
652,0.061033029533437
653,0.0603680141789839
654,0.0592241103303508
655,0.060040224384138
656,0.0593820421037528
657,0.0599496912722684
658,0.0608339960348103
659,0.0626857842980567
660,0.0632354003193292
661,0.0637986405818397
662,0.0641430275911983
663,0.0637549834833164
664,0.0635549213709772
665,0.063892347420149
666,0.0639551211630567
667,0.0640264424653613
668,0.0640578682394953
669,0.0632150869866364
670,0.0634613421241831
671,0.0633858998622217
672,0.0630683298281114
673,0.0630780009770371
674,0.063412658824632
675,0.0633641676562396
676,0.0632761808310867
677,0.0637483237188726
678,0.063058819024079
679,0.0629976667019265
680,0.0643819680915369
681,0.0637126112867291
682,0.0623370990775817
683,0.0611960467185497
684,0.0593447297937829
685,0.057646200164463
686,0.0566232393346644
687,0.0552554769250318
688,0.0547791280773615
689,0.0551191047630909
690,0.055349586667539
691,0.0567341322089117
692,0.0564705453136052
693,0.057382909367222
694,0.0584645696661491
695,0.0586746555692183
696,0.0606102452798659
697,0.0611822038031188
698,0.0607653684566584
699,0.0610516902705344
700,0.0626667468504162
701,0.0630194106233965
702,0.064737120284772
703,0.0656613343957551
704,0.0671240099669156
705,0.0684127548132946
706,0.0698436945956402
707,0.0716427317183599
708,0.0724582695716167
709,0.0740960285592383
710,0.0742885369305991
711,0.0750418513267527
712,0.0757543766072333
713,0.0729605861592438
714,0.0710379375551577
715,0.0674566988634135
716,0.0635716242428259
717,0.0610997576757832
718,0.0607564138632441
719,0.0616068468618782
720,0.0633292628754263
721,0.0634351759457675
722,0.0661835544946844
723,0.0658370995318008
724,0.06633073188379
725,0.0667014998168147
726,0.0674583950193183
727,0.068955321735553
728,0.0706999569017013
729,0.0735513622102112
730,0.076814905156291
731,0.0803956920510202
732,0.0841075490115219
733,0.0881650131921646
734,0.0915837091411847
735,0.0935714586845059
736,0.0963109129326092
737,0.0981207886416599
738,0.0999306643507106
739,0.101740540059761
740,0.104501588653005
741,0.10621183612177
742,0.107836971573721
743,0.109462107025671
744,0.111087242477622
745,0.112109649447329
746,0.113018944174558
747,0.114029097824015
748,0.113148006171272
749,0.114254735309311
750,0.114639958331712
751,0.114311988096894
752,0.116163238401174
753,0.115774435383654
754,0.115023932382611
755,0.108241416284252
756,0.101458900185893
757,0.0946763840875341
758,0.083011916346971
759,0.072508148322649
760,0.0647826086925865
761,0.0624397191593512
762,0.0646751748597226
763,0.0697613460421929
764,0.0759795649140817
765,0.0833859208964736
766,0.0923842904166541
767,0.100464468120406
768,0.105999289546661
769,0.109363632207115
770,0.1125062654575
771,0.11410658367287
772,0.115594819685822
773,0.116923729342429
774,0.117102407337916
775,0.116530092171037
776,0.117507443647208
777,0.11666918864005
778,0.11817902275403
779,0.116999299500606
780,0.118593390233895
