"wavelength","measurement"
380,0.0783079012679022
381,0.075690312896542
382,0.0740243886556671
383,0.0722447837678638
384,0.0726223420488805
385,0.0756382699939399
386,0.0791885748143238
387,0.0822185196537858
388,0.0850283028670065
389,0.0862674295019828
390,0.0855882263901464
391,0.0849728790179207
392,0.0844753082882863
393,0.0848705753163287
394,0.0840780414480714
395,0.0888309057904595
396,0.0973354878429352
397,0.107070506821537
398,0.116805525800138
399,0.126540544778739
400,0.132559161735136
401,0.138639298344216
402,0.142812223675648
403,0.142828925573057
404,0.14287956524771
405,0.141827748785886
406,0.141900540425488
407,0.142488554084957
408,0.141781960138504
409,0.1438220269701
410,0.149164054287743
411,0.148821460788523
412,0.151657358225378
413,0.153307116800942
414,0.152726077197693
415,0.154325827280447
416,0.151595889312981
417,0.149416678541832
418,0.151441894111961
419,0.148624716164699
420,0.151068078879102
421,0.149985803060241
422,0.150313832429372
423,0.150346914681776
424,0.151303976287819
425,0.147800305172985
426,0.146321741629885
427,0.142518448599426
428,0.137103795314936
429,0.136403878176684
430,0.13787170613796
431,0.141764031940089
432,0.146031046069086
433,0.151369773826976
434,0.157571336677739
435,0.160912492743452
436,0.162031168469612
437,0.164752456824588
438,0.167473745179564
439,0.17019503353454
440,0.170684821205586
441,0.17414605181947
442,0.177990192761302
443,0.179603647169406
444,0.18239135618501
445,0.185179065200613
446,0.187966774216217
447,0.190748441452849
448,0.19163673191353
449,0.199107913309565
450,0.198097264788515
451,0.197273979319982
452,0.196701638935094
453,0.196129298550207
454,0.19555695816532
455,0.196280510233361
456,0.195985794339864
457,0.198784159341629
458,0.19981258440411
459,0.203033332298797
460,0.203607058744334
461,0.201918522660812
462,0.207558237815776
463,0.201923094931589
464,0.199709616713948
465,0.198278101779222
466,0.196029519016505
467,0.195216770040208
468,0.192935906323806
469,0.191815679956453
470,0.196212766037872
471,0.195780813635117
472,0.197081342643582
473,0.200168027091464
474,0.200182707300288
475,0.204276565352739
476,0.199468632297226
477,0.19989618409153
478,0.200323735885835
479,0.20075128768014
480,0.200294391569047
481,0.195104135857864
482,0.191496105645965
483,0.191121051337578
484,0.186373986208242
485,0.182332059540029
486,0.183528629693278
487,0.184668290309979
488,0.186791391724086
489,0.192258339779721
490,0.193780091887445
491,0.195602394517318
492,0.200187095078523
493,0.197655490896562
494,0.201611827701708
495,0.199231367619545
496,0.200410648650451
497,0.197389287599125
498,0.197919892347689
499,0.193969139052426
500,0.194872375767935
501,0.192971255665389
502,0.196548038660902
503,0.197679275890228
504,0.195778871125167
505,0.201879534126886
506,0.201361025899183
507,0.202681771079705
508,0.204445158924993
509,0.204728825030281
510,0.201967437904273
511,0.204442778405562
512,0.203812021047786
513,0.197940274824415
514,0.197499268161218
515,0.194136380154284
516,0.193452131622696
517,0.192559935389558
518,0.192477569211079
519,0.196870653417259
520,0.200667275400181
521,0.203394340090404
522,0.206121404780627
523,0.208848469470851
524,0.207964783449938
525,0.209172047545061
526,0.209635842142679
527,0.208689669722842
528,0.21055780225848
529,0.213783562120236
530,0.213904369813535
531,0.21462027113241
532,0.21421294892749
533,0.215889693651018
534,0.217786739393074
535,0.215188145986477
536,0.218004568714864
537,0.216239386352147
538,0.214627521359086
539,0.213349307809052
540,0.214349200399661
541,0.213198616311425
542,0.211816657816294
543,0.213461702442528
544,0.215218874942285
545,0.214023260664056
546,0.215627364900861
547,0.215668947785965
548,0.215710530671068
549,0.215752113556172
550,0.215332915732029
551,0.216654648243421
552,0.218928997931025
553,0.216678634521312
554,0.216842025094106
555,0.21912769565859
556,0.216152709823936
557,0.216092766120774
558,0.214629561151441
559,0.213524104236162
560,0.216248688913114
561,0.213132878384238
562,0.217044774772483
563,0.213958601318281
564,0.215077928366297
565,0.212172010352523
566,0.211520394605006
567,0.208755197107729
568,0.210450133876062
569,0.208307850371121
570,0.208153091287836
571,0.208646312214493
572,0.209142009579743
573,0.209175989963327
574,0.210831802988127
575,0.208411549055813
576,0.209170537191043
577,0.209929525326274
578,0.210688513461504
579,0.211447501596735
580,0.212206489731966
581,0.214761836083602
582,0.213085446995991
583,0.215071311640032
584,0.211111558626241
585,0.210341069364317
586,0.203565339075102
587,0.199267255296131
588,0.196492440855648
589,0.193717626415165
590,0.190942811974682
591,0.191363361691985
592,0.194143911862988
593,0.195140238100305
594,0.198637522888593
595,0.199033868099624
596,0.201135829195884
597,0.203030891455411
598,0.203929804307575
599,0.2052382451797
600,0.20723345504609
601,0.210180276924859
602,0.211263653019916
603,0.210641124748562
604,0.213236613269997
605,0.212632396809962
606,0.21364408261107
607,0.212306927054827
608,0.209849252311921
609,0.209629416806467
610,0.208909375983572
611,0.207494370342003
612,0.205489023384057
613,0.205376761928086
614,0.203182448781617
615,0.205374965320787
616,0.20280834190594
617,0.204895933997337
618,0.204596514881728
619,0.205327446130385
620,0.204887339909565
621,0.206087529535137
622,0.202779700517483
623,0.202552488495497
624,0.201254183574885
625,0.199955878654273
626,0.198657573733661
627,0.198412904979407
628,0.197951557476551
629,0.197291707104215
630,0.199085282226938
631,0.196302016111827
632,0.197386105481327
633,0.198780035272229
634,0.1994448801555
635,0.200667684469711
636,0.198792280730447
637,0.200988890214087
638,0.200086052781377
639,0.200626162398874
640,0.199712203380429
641,0.199067794611557
642,0.197770625399215
643,0.196069703688816
644,0.194368781978416
645,0.192667860268017
646,0.192170951811929
647,0.191271824240898
648,0.187102022711744
649,0.190910584596588
650,0.189858205705896
651,0.191665462988574
652,0.190000148045024
653,0.187688694374663
654,0.184140080134343
655,0.186417914648591
656,0.184427909551624
657,0.186792037077198
658,0.189061154979026
659,0.19422068955132
660,0.196432529597562
661,0.197694516324085
662,0.199139144653175
663,0.198477359320399
664,0.197339433902538
665,0.19837059199084
666,0.198731241391914
667,0.198687404215186
668,0.200009981954247
669,0.195467005884678
670,0.19687837688895
671,0.196961871940423
672,0.196021627331229
673,0.196176253708851
674,0.196848778411234
675,0.19726342316629
676,0.196912233660574
677,0.198879645938227
678,0.196005079076089
679,0.196161636516935
680,0.200586639625287
681,0.197991427146009
682,0.19352088193311
683,0.189840388707691
684,0.184594196509945
685,0.179699882357826
686,0.176109552347224
687,0.17174123381148
688,0.170501687018137
689,0.170513192174016
690,0.171703525901263
691,0.174957988017621
692,0.17512617431078
693,0.176494680835981
694,0.179317292704463
695,0.180501611361588
696,0.183928539299746
697,0.186051659820245
698,0.184377368491721
699,0.185346741457488
700,0.189009205911861
701,0.188895708769465
702,0.192932535644496
703,0.195504919645456
704,0.199722231666837
705,0.201728795865146
706,0.206166494147072
707,0.209847977754075
708,0.211611343049837
709,0.215480313019919
710,0.215409069783926
711,0.215733866775506
712,0.21744544393217
713,0.207906012787615
714,0.202541016125609
715,0.190848223405329
716,0.179588623058721
717,0.172115072518407
718,0.170210688908978
719,0.172203220981703
720,0.174546460904003
721,0.175160914722794
722,0.181852874706984
723,0.180382016481877
724,0.180702199694748
725,0.181312027213748
726,0.181644447087249
727,0.185473522814422
728,0.189177759374283
729,0.196384421069617
730,0.20317156025992
731,0.212273806768648
732,0.221469429849478
733,0.232310940077825
734,0.237867523106953
735,0.242751726815799
736,0.248731239281095
737,0.25279178055162
738,0.256852321822145
739,0.260912863092671
740,0.26743438147879
741,0.27104309857263
742,0.274561121047375
743,0.27807914352212
744,0.281597165996865
745,0.282857041220513
746,0.283266933641552
747,0.286916550916018
748,0.284076445280638
749,0.285895720480172
750,0.287202712455655
751,0.286015443593542
752,0.291280043534574
753,0.289605527192729
754,0.287376393276426
755,0.270255659415664
756,0.253134925554901
757,0.236014191694139
758,0.207447891111124
759,0.181735375070465
760,0.161006304065626
761,0.157049265430303
762,0.162215634465318
763,0.173704364846645
764,0.190565773347434
765,0.208101330468346
766,0.229254086554635
767,0.250262674767642
768,0.262951708465751
769,0.271132851621053
770,0.27797942555058
771,0.281525398976226
772,0.284754049199101
773,0.289652255654552
774,0.287643082289328
775,0.288436189685666
776,0.289552266033436
777,0.286868854300053
778,0.291603595002884
779,0.287677481022409
780,0.292255085782021
