"wavelength","measurement"
380,0.00131514459206579
381,0.0013233398564524
382,0.00133357130451659
383,0.00132232643414022
384,0.0013356945455004
385,0.0014397766955561
386,0.00152652684445486
387,0.00162075008502919
388,0.00168308755963553
389,0.00177752549418811
390,0.00175168178761723
391,0.00179816679744058
392,0.00177995555142723
393,0.00184723276865139
394,0.00194381570978155
395,0.00201543981712851
396,0.00223861344697504
397,0.0024828014130982
398,0.00272698937922136
399,0.00297117734534452
400,0.0031800405295117
401,0.00341585236915678
402,0.00358773151843678
403,0.00366851940463129
404,0.00370039374161731
405,0.00370425507020133
406,0.00374674810379812
407,0.00379710463023474
408,0.00385194031688367
409,0.00389506439125023
410,0.00409481046518771
411,0.00409279798847388
412,0.00423456409439797
413,0.00433522339923001
414,0.00432357801230976
415,0.00436588879012885
416,0.00433893747831067
417,0.00431552614497572
418,0.00441806197164667
419,0.00427548353053876
420,0.00444016043567344
421,0.00438378779279763
422,0.0044648123544035
423,0.00447006631809076
424,0.0044738687781262
425,0.00439107892381154
426,0.00434506057109974
427,0.00425144415762005
428,0.00408964735128294
429,0.00408758743992577
430,0.00410886352090019
431,0.00432543394546638
432,0.0045833184771157
433,0.0048418665172106
434,0.00513235832887444
435,0.00523004555717632
436,0.00524367303612154
437,0.0051954818772543
438,0.00514729071838706
439,0.00509909955951982
440,0.00507144845299324
441,0.00512535674187749
442,0.0052403968798406
443,0.00524840677337722
444,0.00533170664762775
445,0.00541500652187829
446,0.00549830639612882
447,0.00556539446215222
448,0.00564086879563223
449,0.00578554461729363
450,0.00576065391604484
451,0.00570055853131263
452,0.00568294501027778
453,0.00566533148924293
454,0.00564771796820809
455,0.00565789930920827
456,0.00559631293566677
457,0.00574694023545315
458,0.00569553158957845
459,0.00584105128337754
460,0.00581504576353993
461,0.00573830684515989
462,0.00591494592951692
463,0.00571785604019365
464,0.00565172124868448
465,0.00561550530162693
466,0.0055098201720375
467,0.00548842835277864
468,0.00543352061190497
469,0.00538540608915049
470,0.00550550071802307
471,0.00548312538584745
472,0.00550704108639394
473,0.00554296872481409
474,0.00557856163087087
475,0.00563537041196585
476,0.00549770186774437
477,0.00550445920222546
478,0.00551121653670656
479,0.00551797387118765
480,0.00550021162212386
481,0.00539232686270047
482,0.00531962954236059
483,0.00533339022066682
484,0.00525136827253091
485,0.00520985349580716
486,0.00526298339736445
487,0.0053218276114363
488,0.00535298868382149
489,0.0054491857085039
490,0.005480036023202
491,0.00549300921850569
492,0.0055749018909992
493,0.00550795862360612
494,0.00555494177318849
495,0.00545553813749715
496,0.0054397880600663
497,0.00533768940254989
498,0.00532974248026848
499,0.00516743904776553
500,0.00518957370193936
501,0.00509943521810688
502,0.0051762249097812
503,0.00514492300062215
504,0.00510042513405307
505,0.0052673352872502
506,0.00524355187652668
507,0.00527509956762865
508,0.00529084531425877
509,0.00529135224008769
510,0.00521922812115092
511,0.00530702275447086
512,0.00526789302876998
513,0.00513221566448078
514,0.00509992718287304
515,0.00501726359141346
516,0.00498473748252428
517,0.00498908040540568
518,0.0049801722726063
519,0.00506098411634768
520,0.00517734547377086
521,0.00524348707822915
522,0.00530962868268744
523,0.00537577028714574
524,0.00534449231152163
525,0.00538320087845533
526,0.00537789914697266
527,0.00532866733719845
528,0.00541525311964034
529,0.00548797387117385
530,0.00550061479689496
531,0.00551879334080095
532,0.00550717025355133
533,0.00559759006417272
534,0.00562845043144869
535,0.00562994694477329
536,0.00571846429431076
537,0.00581734419174834
538,0.00595734892577394
539,0.0061937614433668
540,0.00651118181256626
541,0.00681113944059089
542,0.00707215244002349
543,0.00721712618895524
544,0.00731559192432092
545,0.00709502058385575
546,0.00694608374498728
547,0.0066732048449916
548,0.00640032594499591
549,0.00612744704500022
550,0.00592526588976097
551,0.00586139825338578
552,0.00579682427586379
553,0.00567865217761921
554,0.00556457082214161
555,0.00555185945550093
556,0.00544889682262816
557,0.00539049806846409
558,0.00532901616039637
559,0.00527509765469008
560,0.00531605530931685
561,0.00522511015456673
562,0.00529054462372636
563,0.00522019003801666
564,0.00518398855996829
565,0.0050875968661594
566,0.00505669433269206
567,0.00498729684653642
568,0.00499816374993381
569,0.00491912782813802
570,0.00489467211860789
571,0.00489251930637549
572,0.0049086377879481
573,0.00489444046485216
574,0.0049547324218302
575,0.0049398953050287
576,0.00498372808037129
577,0.00502756085571388
578,0.00507139363105647
579,0.00511522640639906
580,0.00515905918174165
581,0.0052282655066986
582,0.00519302817765823
583,0.00522640601668
584,0.00513163597402853
585,0.00509883824586417
586,0.00491540894638933
587,0.00476957996931821
588,0.00465243347186232
589,0.00453528697440642
590,0.00441814047695053
591,0.00440576158384798
592,0.00440131295065986
593,0.00438540575347361
594,0.00440956722383827
595,0.00436703639675515
596,0.00441621768922474
597,0.00440314027824172
598,0.00445512999152872
599,0.00445190019763579
600,0.00448327039475437
601,0.00449733327350502
602,0.00451915579122806
603,0.00447697182328158
604,0.00453206769011148
605,0.00453628694074359
606,0.00462793301555944
607,0.00487900252270988
608,0.00515665226731059
609,0.00550172237651752
610,0.00570041327003563
611,0.00578241058454916
612,0.00566307177687526
613,0.00536425996929259
614,0.0049762563050423
615,0.00473766291160679
616,0.00456612854401211
617,0.00449343546533611
618,0.00441739650472896
619,0.00437657028187645
620,0.00432911551856213
621,0.00433826254525166
622,0.00422007997090748
623,0.00415859038088775
624,0.00409884842153971
625,0.00403910646219166
626,0.00397936450284362
627,0.00395684982461004
628,0.00393157224958334
629,0.00392951382978856
630,0.0039493905032701
631,0.00385125054658105
632,0.003797044519043
633,0.00378078205922224
634,0.00370190559117727
635,0.00368788904193785
636,0.00366962689695605
637,0.00368480004922917
638,0.00360543215163181
639,0.0036215570954851
640,0.0035976529500693
641,0.00357304291230991
642,0.00352297446279148
643,0.00347224758762696
644,0.00342152071246244
645,0.00337079383729793
646,0.00331874660479744
647,0.00330897658694502
648,0.00323849829338257
649,0.00331416878800222
650,0.00325110422656368
651,0.0032812679666284
652,0.00322782245517781
653,0.00316658784411829
654,0.00306545224752577
655,0.00309143696076288
656,0.00305678531202881
657,0.00305085783063468
658,0.00312682577216413
659,0.00320829214220013
660,0.00324278983268595
661,0.00323895092804587
662,0.00324585269521312
663,0.00319830539420865
664,0.00317197311571976
665,0.00318583321129817
666,0.00316070916217231
667,0.00316263090168207
668,0.00315260663180563
669,0.00308569755340987
670,0.0030909136836061
671,0.00304781798893928
672,0.00303455271743186
673,0.0030242989227832
674,0.00303332249414703
675,0.00303984249740496
676,0.00300855232602698
677,0.00298734958182007
678,0.00297943791459041
679,0.00292885836109234
680,0.0025137975647524
681,0.0029257514850076
682,0.00286704475043988
683,0.00279969112421296
684,0.00270225833012464
685,0.00261592681946766
686,0.00254970323091584
687,0.00251279269645906
688,0.00244590640201288
689,0.00245126111333305
690,0.0024759253426867
691,0.00250987583534194
692,0.00250949476136849
693,0.00251208199867157
694,0.00256892240400481
695,0.00258754832805789
696,0.00265016247958272
697,0.00266674201992912
698,0.00263955617312739
699,0.00267056530226825
700,0.00272623910343641
701,0.00272920329947157
702,0.00282999894582566
703,0.00289606602470242
704,0.00301775829532785
705,0.00302673028247732
706,0.00315054474238439
707,0.00321382996120339
708,0.00322611267632921
709,0.00328550409306781
710,0.00325217324311892
711,0.00327717936404366
712,0.00326881318113619
713,0.00310611768744651
714,0.00297175497890377
715,0.00275548545496533
716,0.00258591228491395
717,0.00243589389686876
718,0.00245751483130483
719,0.00251183646128658
720,0.00248750586731451
721,0.00247866624387387
722,0.0026013740668471
723,0.00258076519487282
724,0.00257119267080009
725,0.00256051545885395
726,0.00258288140505067
727,0.00263062958956168
728,0.00267696756138569
729,0.0027343587799357
730,0.0028747604547478
731,0.00304318668929874
732,0.00315598591784602
733,0.00329584291816203
734,0.00341488283425016
735,0.00348729312721456
736,0.00354670217137365
737,0.00360884246389016
738,0.00367098275640667
739,0.00373312304892319
740,0.00382687294319999
741,0.00386746929726148
742,0.00389780525819536
743,0.00392814121912924
744,0.00395847718006312
745,0.00401219790967412
746,0.00400802172219456
747,0.00402899970558296
748,0.00397351513738982
749,0.00398783512001114
750,0.00397965031987212
751,0.00397319364352315
752,0.00399498036787725
753,0.00387585467978285
754,0.00392805322646565
755,0.00369900205839445
756,0.00346995089032324
757,0.00324089972225203
758,0.002845185858347
759,0.00250527019442356
760,0.0022287472222424
761,0.00208818009534307
762,0.00217843405709183
763,0.00230284038917539
764,0.00251281782242558
765,0.00271035064311367
766,0.0029882778445341
767,0.0032573491019184
768,0.00340306649755557
769,0.00350738655022245
770,0.003584565247112
771,0.00360980756003227
772,0.00366482294695564
773,0.0036711364865182
774,0.00364284755273956
775,0.00359407394415038
776,0.00365366554647205
777,0.00359691323276127
778,0.00359482744454449
779,0.00356830035910015
780,0.00358983746102388
