"wavelength","measurement"
380,0.00116282045232857
381,0.00118962671552156
382,0.00116743665356318
383,0.00110793239876269
384,0.00117093791565246
385,0.00125508792097478
386,0.00131550145051904
387,0.00141108501262797
388,0.00147677722667509
389,0.00154383040242532
390,0.00152192223814968
391,0.00151828120676913
392,0.00154969093764887
393,0.00159749885095283
394,0.00166422654650225
395,0.00173470928835025
396,0.00193827124591494
397,0.00215762201885474
398,0.00237697279179454
399,0.00259632356473434
400,0.0027638082763742
401,0.00292031769835467
402,0.00307685226304352
403,0.00316068141483245
404,0.00313112269505715
405,0.00317399624209362
406,0.00322703673526603
407,0.00328732011726626
408,0.00331770161802547
409,0.00335550445164784
410,0.00350313369026508
411,0.00348588120258276
412,0.00360427475139218
413,0.00372971737894472
414,0.00369075618884629
415,0.0037512402003938
416,0.00368708472411433
417,0.00365787197086773
418,0.00369930496906821
419,0.00356789443025284
420,0.00366892925415904
421,0.00362188352127978
422,0.00365522744763379
423,0.00368927037935611
424,0.00371251432683731
425,0.00365223012551486
426,0.00359388334107766
427,0.00349257942952333
428,0.00335765272360231
429,0.00335898374389316
430,0.00334174939947947
431,0.00347992719828294
432,0.00359763622862946
433,0.00374599845784011
434,0.00393170297716314
435,0.00404129388066685
436,0.0040426529432244
437,0.00406784619045954
438,0.00409303943769469
439,0.00411823268492983
440,0.00411832436574597
441,0.00420355635475704
442,0.00426258348377591
443,0.00434943364949054
444,0.00440311419493865
445,0.00445679474038676
446,0.00451047528583488
447,0.00457386440588746
448,0.00462926012011451
449,0.00479223145857626
450,0.00473712108735903
451,0.00469056331711141
452,0.00467742046466806
453,0.00466427761222471
454,0.00465113475978136
455,0.00463649058739202
456,0.0045940758771774
457,0.0047215814416564
458,0.00471523688789641
459,0.00479878971796382
460,0.00479010819702822
461,0.00471941375201457
462,0.00488448653386793
463,0.00471108680309775
464,0.00468277576806644
465,0.00461282519658792
466,0.00458478610720352
467,0.00452848479186492
468,0.00451171482147672
469,0.00445452079722304
470,0.00454973677270672
471,0.00453476717931598
472,0.00454293910819892
473,0.00460546892496551
474,0.00461065004508584
475,0.00467565082175107
476,0.00454493349122684
477,0.00454548201804351
478,0.00454603054486018
479,0.00454657907167685
480,0.00453207328742775
481,0.00442001766781087
482,0.00435023286146419
483,0.00435339963409147
484,0.00426084292351162
485,0.00418778120818063
486,0.00423474626505419
487,0.00424760459216393
488,0.00429680638815128
489,0.00441611928697973
490,0.00445396593566836
491,0.00446425904727903
492,0.00456085510908593
493,0.00449219979045498
494,0.0045699334026109
495,0.00447014551184726
496,0.00450571246392671
497,0.00441548088888612
498,0.00441899388246873
499,0.00433740175071241
500,0.00433940906935742
501,0.00430863391283424
502,0.00435821843561261
503,0.00436319439798371
504,0.00434456402862508
505,0.00448229254079217
506,0.00445010672799992
507,0.00445858975700761
508,0.00447192564054532
509,0.00446061908866081
510,0.00439658420617895
511,0.00445518017345116
512,0.0043873349248836
513,0.00428547106442045
514,0.00425117285131784
515,0.00419764975773333
516,0.00414288385259592
517,0.00414840709738178
518,0.00411685759207461
519,0.0041994826369604
520,0.00426018614557628
521,0.00430301508502001
522,0.00434584402446373
523,0.00438867296390746
524,0.00436331659311785
525,0.00437964501571706
526,0.0043581739639201
527,0.00432149546763872
528,0.00437079944427184
529,0.00442334399823778
530,0.00443443129436323
531,0.00442430495883451
532,0.00440756538713655
533,0.00445661900308596
534,0.00448301043535646
535,0.0044187756550859
536,0.00450366906081054
537,0.00452125069068032
538,0.00455013920875258
539,0.00460399113752633
540,0.00473888917567006
541,0.00482523712838849
542,0.00488809475303122
543,0.00496501937175661
544,0.00498291584534613
545,0.00488686553142737
546,0.00486021859596981
547,0.00475334377190175
548,0.00464646894783369
549,0.00453959412376563
550,0.00446426824814225
551,0.00444926234200455
552,0.00444179714834999
553,0.00439815830053736
554,0.00434188046358534
555,0.00435442846659354
556,0.00430193181164242
557,0.00426815817542101
558,0.00423267521456924
559,0.00419424094331689
560,0.00422218638432557
561,0.00415220541309751
562,0.00420108109575899
563,0.00415246144639103
564,0.00414493996224575
565,0.00408737162287087
566,0.00407558168020503
567,0.00402794661081217
568,0.00405013047627103
569,0.00399293785092045
570,0.00398370135696399
571,0.00398876587299739
572,0.00398906418801751
573,0.00397769480243457
574,0.00400271471082838
575,0.00396862347452464
576,0.00399092085414206
577,0.00401321823375947
578,0.00403551561337688
579,0.00405781299299429
580,0.0040801103726117
581,0.00416527021913367
582,0.00412184416353764
583,0.00415287915147205
584,0.00407376523084215
585,0.00410240888065568
586,0.0040139348305034
587,0.00394748112200306
588,0.00390335708655142
589,0.00385923305109979
590,0.00381510901564816
591,0.0037983056431063
592,0.0038239245894449
593,0.00378616170921189
594,0.00382771379157629
595,0.00378669535176636
596,0.00380088876381662
597,0.00378793406778731
598,0.0037708025695375
599,0.00375264859783328
600,0.0037526980812376
601,0.00376220264281158
602,0.00377479953614061
603,0.00371922100580839
604,0.00374482335362463
605,0.00372414089081241
606,0.00377410511301829
607,0.00383432133624009
608,0.00390327321421881
609,0.00402214804860556
610,0.00406800815387523
611,0.00408047141391624
612,0.00402675906205401
613,0.00393019012344645
614,0.00375527815189234
615,0.00369649276324314
616,0.003611204290029
617,0.00361738627373701
618,0.00357447779798206
619,0.0035670334268701
620,0.00354102376276728
621,0.00355532087591734
622,0.00346640544411217
623,0.00346153528230655
624,0.00341513823577068
625,0.00336874118923482
626,0.00332234414269895
627,0.00331965249125808
628,0.00330020805980562
629,0.00329747062700662
630,0.00333492075396876
631,0.00326587411819101
632,0.00324856552972768
633,0.00324235495164012
634,0.00323375732143354
635,0.00322659226045461
636,0.00322289811643406
637,0.00321179632276238
638,0.00316316363084857
639,0.00319186335353904
640,0.00316525991573366
641,0.00314761285906395
642,0.00312773472141649
643,0.00311224668180468
644,0.00309675864219287
645,0.00308127060258106
646,0.00310584895570557
647,0.00311649291759437
648,0.00303396105251833
649,0.00310580229418677
650,0.0030323005052142
651,0.0030504661183525
652,0.00300844480610195
653,0.00294330176537341
654,0.00287003736726052
655,0.00288529953393102
656,0.002838007522774
657,0.00285986932838953
658,0.00287536854439609
659,0.00294365913012978
660,0.00296241363664795
661,0.002956441943262
662,0.00296618537617804
663,0.00292306267406753
664,0.00290002192488505
665,0.00289745882844869
666,0.00290512230956228
667,0.00290308600125445
668,0.00287724185598756
669,0.00284971614052929
670,0.00284556706573808
671,0.00282137568354978
672,0.00281134269595385
673,0.00280800463067855
674,0.00281201467112678
675,0.00279913486409463
676,0.00277835176140021
677,0.00278878998173787
678,0.00274984364278521
679,0.00273759420561944
680,0.00279959728321989
681,0.00272582735001764
682,0.00267476709339615
683,0.00258687989876461
684,0.00250342570352025
685,0.00242539352295506
686,0.00235267115380288
687,0.00230741623667029
688,0.00226434251075582
689,0.00229021518007773
690,0.00233986274338512
691,0.00241737477398642
692,0.00243105458234116
693,0.00247579224741934
694,0.00251883859016374
695,0.00252161828086741
696,0.00256764954401256
697,0.00253758313200558
698,0.00251790011230881
699,0.00251902203083023
700,0.00255691192729719
701,0.0025395037802946
702,0.00256109139599677
703,0.00256718180893724
704,0.00262997709684388
705,0.00260466385207709
706,0.00265549755754218
707,0.0026690633868544
708,0.00264646786969628
709,0.00265941731142263
710,0.0026177122865324
711,0.0026216062040803
712,0.0026363032506735
713,0.00255597213363807
714,0.00251819286096711
715,0.00242105710671395
716,0.00235878193074463
717,0.00228209785219373
718,0.0022990867407347
719,0.00226485183087327
720,0.00230117345109697
721,0.00225217555399258
722,0.00233625307226927
723,0.00231974344801431
724,0.00230693138643338
725,0.00231412210040017
726,0.00228742828303423
727,0.00231582551270692
728,0.00230504499077572
729,0.00230206572514666
730,0.00233171520261441
731,0.0023844375196652
732,0.00239397518870107
733,0.00243575392198812
734,0.00248663771224629
735,0.00251072768783618
736,0.00246525277383453
737,0.00246430671041178
738,0.00246336064698904
739,0.00246241458356629
740,0.00247072390737423
741,0.00246183953313697
742,0.00246110674374149
743,0.00246037395434601
744,0.00245964116495052
745,0.00245101640734787
746,0.00245605347209734
747,0.00245714039382543
748,0.00239732520267935
749,0.00242084293967322
750,0.00240167224931685
751,0.00239231754553407
752,0.00239592655222879
753,0.0022731333609424
754,0.00234010610784008
755,0.00223461559413189
756,0.00212912508042371
757,0.00202363456671552
758,0.00181152194602011
759,0.00160733347486161
760,0.00142864673995407
761,0.00132315928975409
762,0.00136357363033942
763,0.00138629791892748
764,0.00150301564259909
765,0.00163458983258286
766,0.00181064615619311
767,0.00192589929267967
768,0.00205688626813982
769,0.0021135390720141
770,0.00213542780878938
771,0.00217102370499948
772,0.00217211916839904
773,0.00217322663438843
774,0.00216114142113339
775,0.00212149810716235
776,0.00216777925378105
777,0.00211785424057455
778,0.00214503851159951
779,0.00211893078350669
780,0.00212608026641387
