"wavelength","measurement"
380,0.0351349528797458
381,0.0341292948727339
382,0.0333567351105521
383,0.0326550319580302
384,0.0333324321540746
385,0.0351434189373346
386,0.0364255452089742
387,0.0378287721043198
388,0.0395523736340802
389,0.0404501009865377
390,0.0401573621870598
391,0.0400899009841885
392,0.0409869761632767
393,0.0408295623327024
394,0.0422216388524249
395,0.0467966667732983
396,0.0518037626153152
397,0.0578280808301198
398,0.0638523990449243
399,0.0698767172597289
400,0.0729464769522871
401,0.076777221711546
402,0.0804713316952912
403,0.0814355094559647
404,0.082673360716801
405,0.0828955538423161
406,0.0858257362743124
407,0.0866949534067308
408,0.0880984782175965
409,0.0901064374490356
410,0.0945662043731555
411,0.0949554469457387
412,0.0982172411157293
413,0.0996136490717313
414,0.0995759369804877
415,0.100178128993214
416,0.0993818744004819
417,0.0985282430040325
418,0.0997566609864683
419,0.0982812298439976
420,0.100139967449357
421,0.0998720769964678
422,0.100341504095836
423,0.100212724277357
424,0.100342281984062
425,0.097949294386358
426,0.0964368967341763
427,0.0936571699971922
428,0.0906672805660858
429,0.09055722498305
430,0.0908626122056283
431,0.094192914958545
432,0.0979272530123542
433,0.101329114352434
434,0.104411897260621
435,0.106646993261163
436,0.108051266958136
437,0.109445334628559
438,0.110839402298982
439,0.112233469969405
440,0.112832721002791
441,0.114540564137362
442,0.116542587565992
443,0.117429953970875
444,0.119132287494099
445,0.120834621017322
446,0.122536954540546
447,0.124099608854754
448,0.124404566486302
449,0.128600320693793
450,0.127127930538275
451,0.125787316045974
452,0.125208333316944
453,0.124629350587914
454,0.124050367858884
455,0.123886885515123
456,0.123455090978399
457,0.125192566548179
458,0.12580411810165
459,0.127466100653304
460,0.127662531452743
461,0.1265265722069
462,0.128915265429971
463,0.125610273462443
464,0.124210747475539
465,0.122591176455916
466,0.121597212045075
467,0.120688468170166
468,0.120311383164127
469,0.119638936525569
470,0.122887671198777
471,0.122552086478855
472,0.123285744735555
473,0.125143577779227
474,0.125510631838954
475,0.127387404380044
476,0.124170466052645
477,0.124340841844674
478,0.124511217636703
479,0.124681593428732
480,0.123953599485776
481,0.121064336878199
482,0.117893781320759
483,0.118058447501501
484,0.115487024121351
485,0.113175594079155
486,0.114913744596602
487,0.115572285507427
488,0.11752135483805
489,0.119776505203506
490,0.120924763336493
491,0.121568134810289
492,0.12420748365261
493,0.122358797298025
494,0.124270584189182
495,0.121748385325831
496,0.122081521990646
497,0.120161204872719
498,0.120325791102303
499,0.117784779187137
500,0.118463375866711
501,0.117667882143065
502,0.119770464866465
503,0.120140675555628
504,0.11877441050595
505,0.122539907274472
506,0.12122588819135
507,0.121485712132308
508,0.121956085946984
509,0.12133309960051
510,0.119215412593595
511,0.120267901993454
512,0.118767902441697
513,0.114605243340009
514,0.11335352691324
515,0.111764855548785
516,0.110781875646001
517,0.11083772329313
518,0.110102948206542
519,0.111963010181265
520,0.113913699899991
521,0.114780955700699
522,0.115648211501407
523,0.116515467302115
524,0.115553874110513
525,0.115145120972987
526,0.115056045372354
527,0.114820623764262
528,0.115035029481844
529,0.11560580156483
530,0.1155798453251
531,0.115556000253133
532,0.115059011501634
533,0.115748370558476
534,0.116275246818265
535,0.114705530390019
536,0.115609795959563
537,0.114695063946389
538,0.113676398236888
539,0.113218688095759
540,0.113557199450635
541,0.112801213428783
542,0.111920760964805
543,0.112214695563009
544,0.112958696753251
545,0.11192323118219
546,0.112626030851074
547,0.112289900611095
548,0.111953770371115
549,0.111617640131135
550,0.111335081849937
551,0.112004825739771
552,0.112553256022798
553,0.111631657552775
554,0.110781364176733
555,0.112062731434037
556,0.110073786334907
557,0.109787820225267
558,0.109151169277898
559,0.108099336235703
560,0.108792797131405
561,0.107062969252739
562,0.10861775428415
563,0.106869125126092
564,0.107159441571447
565,0.105638425434456
566,0.104977312474606
567,0.103820503188048
568,0.104442261691978
569,0.103364794664809
570,0.103471372756979
571,0.103727399247372
572,0.103668556635057
573,0.103234481590337
574,0.104047808388553
575,0.102689516354989
576,0.103216218818815
577,0.103742921282641
578,0.104269623746467
579,0.104796326210294
580,0.10532302867412
581,0.106587735824554
582,0.106080808553976
583,0.10691452373992
584,0.105082772128565
585,0.1053618088105
586,0.103203146920062
587,0.102261143211977
588,0.101824876618551
589,0.101388610025125
590,0.100952343431699
591,0.10166431339198
592,0.102373903998079
593,0.102335970129128
594,0.103384577066098
595,0.103303561344501
596,0.103667021599718
597,0.104103554676946
598,0.103603762189103
599,0.103472752195814
600,0.103989707221129
601,0.104596401941145
602,0.105064668914016
603,0.104309449013621
604,0.105391643603476
605,0.104312614268413
606,0.104744565862075
607,0.104086407902327
608,0.102743390320441
609,0.102994487361903
610,0.10214724424064
611,0.101368629986215
612,0.100723397072025
613,0.100468086978966
614,0.099503002249505
615,0.10092067466219
616,0.0995966575191821
617,0.100738989776765
618,0.100626960405491
619,0.100713973479486
620,0.10039330173221
621,0.101066842336627
622,0.0990617319730955
623,0.0992114015317828
624,0.0985231693035521
625,0.0978349370753215
626,0.0971467048470908
627,0.0972095914215961
628,0.0968842274946617
629,0.0968444909565733
630,0.09777147988287
631,0.0964918038977503
632,0.0973555134685127
633,0.0983313497332042
634,0.0982575980958898
635,0.0989562211145648
636,0.0979866367596448
637,0.0988963347728925
638,0.0983019545341415
639,0.0988425953303285
640,0.0984563424469109
641,0.0985974960958231
642,0.0982523847216386
643,0.0979677808881703
644,0.0976831770547019
645,0.0973985732212335
646,0.098313947568467
647,0.0984937344906751
648,0.097031670563018
649,0.0985696022038264
650,0.0973417205494508
651,0.0978515415231688
652,0.0968452563751
653,0.0953595567499627
654,0.0935103768485311
655,0.0947835982760964
656,0.0938171531936905
657,0.0950787084762064
658,0.0955674380520691
659,0.0978146507751734
660,0.0984434399519184
661,0.0983704744783473
662,0.0987475900319175
663,0.0986614094453125
664,0.0978271626902873
665,0.0976995177829551
666,0.0983143873139714
667,0.0984293728515698
668,0.0985736581817466
669,0.0966934259249607
670,0.0975916593493859
671,0.0973927156948966
672,0.0969992380126246
673,0.0973864309450857
674,0.097753911619033
675,0.0973665139238756
676,0.0972137249560542
677,0.0979694241120577
678,0.0970818037916961
679,0.0968815669376563
680,0.098816170109301
681,0.0973465615324457
682,0.0944840580865197
683,0.0925498824612784
684,0.0887818820097272
685,0.0862160164513746
686,0.0842341900483184
687,0.0829979503758176
688,0.0836072204418792
689,0.0850367550168184
690,0.0870816778997549
691,0.0899174589730193
692,0.0911192752952158
693,0.0932797182487184
694,0.0948206965102539
695,0.0950161795608419
696,0.0966786981258327
697,0.0972995536339399
698,0.0968497866654918
699,0.0974150363583854
700,0.0997268588966906
701,0.0992961044815053
702,0.101025920097743
703,0.10115126014417
704,0.103399914623346
705,0.102857511521448
706,0.104370784790459
707,0.105962293871361
708,0.105757649621353
709,0.107756032011534
710,0.106606174679275
711,0.107302701641817
712,0.107781575288178
713,0.105613681295013
714,0.105062619367417
715,0.102047172746486
716,0.10016836268574
717,0.0988597162909787
718,0.0994204369884565
719,0.100623880384129
720,0.1018299299027
721,0.100877520402021
722,0.103776165302359
723,0.10424733946825
724,0.104423562736098
725,0.105043152300281
726,0.104936588446879
727,0.107265719696648
728,0.108049169065713
729,0.110017874720229
730,0.111071622993193
731,0.113462442918874
732,0.115399429983426
733,0.117809530063722
734,0.118391652699363
735,0.118467359811832
736,0.120344450155658
737,0.120580720475748
738,0.120816990795838
739,0.121053261115928
740,0.122727280707172
741,0.122648451079755
742,0.123261988053441
743,0.123875525027127
744,0.124489062000813
745,0.124699310097484
746,0.124494428625967
747,0.125492906058229
748,0.124111998076388
749,0.124698861598698
750,0.125220879623997
751,0.124682710445077
752,0.126223733210549
753,0.125670259019846
754,0.122128241230811
755,0.112650445637915
756,0.103172650045018
757,0.0936948544521218
758,0.0798042671591909
759,0.0688946482880576
760,0.0639331551559734
761,0.0637118507466897
762,0.0667920393306784
763,0.0746536166915458
764,0.0827663026112831
765,0.091384314789173
766,0.100803560923636
767,0.109185701722489
768,0.114012570252053
769,0.117939271252715
770,0.120632792558617
771,0.121982726034269
772,0.123410146633865
773,0.124825802621935
774,0.124538496934844
775,0.124448722302904
776,0.124579329434868
777,0.123639842171884
778,0.12560506359409
779,0.123821238077833
780,0.126140929242698
