"wavelength","measurement"
380,0.0332248434472736
381,0.0322856941756165
382,0.0315228088220224
383,0.031627318896811
384,0.0315864964554421
385,0.032806446330453
386,0.0345382419298723
387,0.0359565742185601
388,0.0373985044630067
389,0.0385118703110255
390,0.0382989536249019
391,0.0382241085682154
392,0.0388711571029253
393,0.0389959677975145
394,0.0404408597993918
395,0.0438784418471955
396,0.0488035201036062
397,0.0544187323581971
398,0.0600339446127879
399,0.0656491568673788
400,0.0687540585813411
401,0.0729275514757276
402,0.0763233882290347
403,0.0770581586089202
404,0.0780416134889621
405,0.0786498492212227
406,0.0808199957567399
407,0.0817879043352007
408,0.0828658620845206
409,0.0851182591075365
410,0.0896367505001675
411,0.0901627570292704
412,0.0921357535198845
413,0.0940017225390971
414,0.0940440065865461
415,0.0946626079024193
416,0.0937411152719644
417,0.0930521525548058
418,0.0941097377618524
419,0.0924171129759689
420,0.0945486289488908
421,0.0941213609488678
422,0.0946406045473758
423,0.0949009512269488
424,0.0948101481449515
425,0.0926939627383974
426,0.0915351382775221
427,0.0883439585349852
428,0.0859731912647107
429,0.0860605910811526
430,0.085987413844092
431,0.0892550475168064
432,0.0926885484059666
433,0.0955963713096019
434,0.09949147769295
435,0.100784850113567
436,0.101958479443078
437,0.103300546829757
438,0.104642614216437
439,0.105984681603116
440,0.106559309045052
441,0.108443637427527
442,0.110529357515519
443,0.111396861848478
444,0.11296435107982
445,0.114531840311162
446,0.116099329542504
447,0.118065424813028
448,0.117864186139494
449,0.121798275373147
450,0.120488470347246
451,0.119590817926857
452,0.118975735831524
453,0.118360653736191
454,0.117745571640858
455,0.117790088177485
456,0.118011171139984
457,0.119223285792143
458,0.119841685510684
459,0.121209349026404
460,0.121478351393139
461,0.120043158916627
462,0.122763497403919
463,0.119451442786032
464,0.117902300629516
465,0.116988824976293
466,0.115487375231338
467,0.114919001722596
468,0.114302076447152
469,0.113754142261697
470,0.116455006278371
471,0.11650853180412
472,0.117316940982313
473,0.118845181965536
474,0.118965871999095
475,0.120829557404513
476,0.118175742504335
477,0.118137550186803
478,0.118099357869271
479,0.118061165551738
480,0.117589356352475
481,0.114527646303931
482,0.112433800704388
483,0.112264042541029
484,0.109571828346246
485,0.107358828267927
486,0.108808227595147
487,0.109719758456422
488,0.111286855340864
489,0.1138115241159
490,0.114748338569338
491,0.115543028949232
492,0.117927080979557
493,0.116293887699677
494,0.117925820359886
495,0.115920501161492
496,0.115815649661043
497,0.114077646471557
498,0.114430620929048
499,0.112029126869908
500,0.112706730632396
501,0.111872227940976
502,0.1139297235278
503,0.114659882858996
504,0.113062076926923
505,0.116699728085915
506,0.115842044230317
507,0.115994771502702
508,0.116416187972315
509,0.115639061319197
510,0.11360437676501
511,0.114763157974436
512,0.113252957540675
513,0.109596411072372
514,0.108730377004223
515,0.107031675335333
516,0.106203375846132
517,0.105957917902979
518,0.105607679426185
519,0.108140898084343
520,0.109562421153321
521,0.110337156590903
522,0.111111892028485
523,0.111886627466067
524,0.111085511500098
525,0.111082251543893
526,0.11120996414667
527,0.11047822765062
528,0.111093332412227
529,0.111897239757846
530,0.111725629837313
531,0.111895965747624
532,0.111256733311367
533,0.11199068470829
534,0.112499664837506
535,0.110970945222928
536,0.112106455011093
537,0.111203757868324
538,0.11019695721662
539,0.109597426263647
540,0.110187634022141
541,0.109419563623295
542,0.108850456784593
543,0.109099801323426
544,0.109634857005254
545,0.108688341735664
546,0.10944361550049
547,0.109184597306465
548,0.108925579112441
549,0.108666560918416
550,0.108218359012229
551,0.108931319662256
552,0.109628684045698
553,0.108334647212603
554,0.108002513558568
555,0.108925490283877
556,0.107244495652848
557,0.106830224226791
558,0.106139482858351
559,0.105186471715786
560,0.106284565858532
561,0.104238311544929
562,0.105872775101079
563,0.104188003010246
564,0.104526591825823
565,0.102814852993276
566,0.102318736474834
567,0.10099656487553
568,0.101825411352635
569,0.100889995515347
570,0.100705582833296
571,0.100860160187393
572,0.100988609702031
573,0.10065801659929
574,0.101317412942851
575,0.100184496949236
576,0.100614890932622
577,0.101045284916008
578,0.101475678899394
579,0.10190607288278
580,0.102336466866166
581,0.103462660789672
582,0.103222306687734
583,0.103826808090116
584,0.10240918873929
585,0.102340873052458
586,0.100295247836266
587,0.0993944320730215
588,0.0989474291380077
589,0.0985004262029938
590,0.09805342326798
591,0.0986058479346359
592,0.0993312480185871
593,0.0993892948812926
594,0.100585642633383
595,0.100320876414061
596,0.100616956239403
597,0.101003804716685
598,0.100468470547166
599,0.100310933689692
600,0.100896006317606
601,0.101649277001789
602,0.102019652143229
603,0.101299809023339
604,0.102235401841311
605,0.101272512677258
606,0.101484571353574
607,0.101086274745916
608,0.099869553495138
609,0.0997558011383107
610,0.0991286847114475
611,0.0985976139578761
612,0.0976286702470108
613,0.0974132775321123
614,0.096423707675109
615,0.0980640814581622
616,0.0965214728379665
617,0.0976695414531859
618,0.097572292220002
619,0.0977888750454213
620,0.0974139240207108
621,0.0980566619411466
622,0.0962521241517786
623,0.0962663350459639
624,0.095680444146577
625,0.0950945532471902
626,0.0945086623478033
627,0.0943001952064926
628,0.0942545191811457
629,0.0940089488917846
630,0.0949311296423502
631,0.093809106319745
632,0.0945920307928429
633,0.095087282852139
634,0.0954625889145402
635,0.0959592269033075
636,0.0948496289241331
637,0.096134430004515
638,0.0953598824057286
639,0.0958584145504563
640,0.0955034622939638
641,0.0955362375314313
642,0.0952755953054555
643,0.0950440820397715
644,0.0948125687740875
645,0.0945810555084036
646,0.0949853986506999
647,0.09542225512471
648,0.0940784925938349
649,0.0955999539283697
650,0.0946038123400265
651,0.0948243851403853
652,0.0937822537581011
653,0.0920836337493514
654,0.0906313360472728
655,0.0916759498359729
656,0.0909773019244
657,0.0920765829663194
658,0.0926223694384016
659,0.0948479461921938
660,0.0951859732053143
661,0.095437019264115
662,0.0958640050120999
663,0.0951503381576698
664,0.0945156572052087
665,0.094845370009919
666,0.0950256509831412
667,0.0949753669534321
668,0.0953618201007964
669,0.0936837946806518
670,0.0941984577378771
671,0.093909181537036
672,0.093673896369352
673,0.0937581179331737
674,0.0941866937834626
675,0.0941291898173181
676,0.0941001943109946
677,0.0948506215797569
678,0.0937375451101622
679,0.0936135679497408
680,0.0959529109325877
681,0.094088635303258
682,0.0913368487487864
683,0.0892849526286035
684,0.0861559618415337
685,0.0834881463382216
686,0.0813562722181951
687,0.0803905896131553
688,0.0808479259116444
689,0.0822541713523917
690,0.0844651810672853
691,0.0873982554550544
692,0.0890709205030938
693,0.0909302785075431
694,0.0923703437599814
695,0.0929223212578009
696,0.0943351189427533
697,0.0952458177906089
698,0.0948451167973092
699,0.0954762885744865
700,0.097740585254052
701,0.0975947033517305
702,0.0994834541620886
703,0.0996917212542407
704,0.101878147101445
705,0.101715789123591
706,0.103636099454341
707,0.104904748651261
708,0.105151289826846
709,0.107111900786902
710,0.106344299474707
711,0.106749726814383
712,0.107511047320902
713,0.105033501228796
714,0.104574639529281
715,0.102045127363706
716,0.100219467267344
717,0.0993576622828917
718,0.0992831775685805
719,0.100896360280611
720,0.102118851502441
721,0.101406797232069
722,0.104097661382345
723,0.104756747021579
724,0.104894752224209
725,0.106048818543431
726,0.105986047959719
727,0.107737993829948
728,0.109134986375408
729,0.111066296494026
730,0.112592287867997
731,0.114715452523637
732,0.116541818433129
733,0.119015261236863
734,0.120008729441157
735,0.120573432216064
736,0.121637082436353
737,0.12201157255592
738,0.122386062675488
739,0.122760552795056
740,0.12420111420831
741,0.124617955966002
742,0.125283503403207
743,0.125949050840412
744,0.126614598277616
745,0.126893659618557
746,0.126905878019098
747,0.127413975223617
748,0.126078143569545
749,0.126928213164413
750,0.126715666695266
751,0.12646870774436
752,0.128616577602629
753,0.127354636469156
754,0.123958894916956
755,0.114351494338707
756,0.104744093760458
757,0.0951366931822084
758,0.0809965182886061
759,0.0699933499334895
760,0.0644085703955
761,0.0645793317747941
762,0.0678932778767022
763,0.0752131447597756
764,0.0839588581950849
765,0.0924899984115192
766,0.10190773808037
767,0.110730198067833
768,0.11585415565213
769,0.119072224777959
770,0.12233266659945
771,0.123467284052523
772,0.125122211195404
773,0.126738652521075
774,0.125838390665212
775,0.126250265797806
776,0.126580983130482
777,0.125182908658675
778,0.126860805684272
779,0.125423936530766
780,0.127398092947436
