"wavelength","measurement"
380,0.00153525828923137
381,0.00156648095829234
382,0.00155762362026366
383,0.00153830758915728
384,0.00162101354264653
385,0.00173143418740532
386,0.0018353278361926
387,0.00200361712367603
388,0.00210685207818372
389,0.00223953756344153
390,0.00220918750985538
391,0.00229127884478501
392,0.00232778710288398
393,0.00245715341593084
394,0.00257740346054985
395,0.00272584040866199
396,0.00310161775289814
397,0.00353486116140738
398,0.00396810456991661
399,0.00440134797842584
400,0.00466849150871099
401,0.00505786331865592
402,0.00533456569077175
403,0.00554785531585277
404,0.00567300920169385
405,0.00575956371704593
406,0.00599096863537031
407,0.00619526305713592
408,0.00634800078293208
409,0.00658140234469257
410,0.00697609022795107
411,0.00711828019333272
412,0.00742564826305019
413,0.00768322618720527
414,0.00777013745316793
415,0.00790718486846547
416,0.00789038892232929
417,0.00789637204987343
418,0.0080965838846562
419,0.00798348795876912
420,0.00820202944896914
421,0.00824512110055241
422,0.00834972435066786
423,0.00848994976037684
424,0.00854178375077957
425,0.00846864747140601
426,0.00839151636281447
427,0.0081994561350011
428,0.00793660858203755
429,0.00799759793656401
430,0.00804404273857197
431,0.00837734411177786
432,0.00869438751416965
433,0.00906000043905075
434,0.00947068408658608
435,0.00971608149015509
436,0.00985089348125927
437,0.0100512494490024
438,0.0102516054167455
439,0.0104519613844886
440,0.0105474417514935
441,0.0108243586689503
442,0.011093770819734
443,0.0113193100246472
444,0.0115442174750485
445,0.0117691249254498
446,0.0119940323758511
447,0.0122444101001607
448,0.012358678628542
449,0.0128822415469151
450,0.0128672198063022
451,0.0128156829884721
452,0.0128366665713366
453,0.0128576501542012
454,0.0128786337370658
455,0.0128778007094406
456,0.0129484290941964
457,0.0132003656893514
458,0.0132810317683256
459,0.0135852668504049
460,0.0136546636056095
461,0.013542653825018
462,0.0139842342833883
463,0.0136175533253349
464,0.0134906761543047
465,0.0134379684932675
466,0.0132993387275497
467,0.0132999437583609
468,0.013210040792672
469,0.0131211553937339
470,0.0134569715590217
471,0.0134887437649194
472,0.013596142348791
473,0.0138184084499372
474,0.0138972518548708
475,0.0141250329132644
476,0.0138198827754325
477,0.0138599970536903
478,0.013900111331948
479,0.0139402256102057
480,0.0139158269838758
481,0.0135405552840021
482,0.0133491226484868
483,0.0133488932553134
484,0.0130745192827402
485,0.0128221488615431
486,0.0129687362272044
487,0.0131116764363099
488,0.0132340576521061
489,0.0136409354516193
490,0.0138159830972222
491,0.0139544287256728
492,0.0143259474998905
493,0.0141915938679659
494,0.0144606297608882
495,0.0142582328284821
496,0.0143850644803556
497,0.014157559884403
498,0.0142488712519109
499,0.0139922015724202
500,0.0141340438363582
501,0.0140299910539335
502,0.0143129105867935
503,0.0144025486861608
504,0.014339678497893
505,0.0148445603565966
506,0.0147620210359721
507,0.0148525483574441
508,0.014960730665736
509,0.0149253057719421
510,0.014711352661766
511,0.0149539290954144
512,0.0147846203919916
513,0.014383629656485
514,0.0143215500752128
515,0.0141087237797613
516,0.0140148264794755
517,0.0140034967910856
518,0.0139952808947704
519,0.0142768589276407
520,0.0145876335766122
521,0.0147464835838727
522,0.0149053335911331
523,0.0150641835983935
524,0.0149966394865346
525,0.0150292172090744
526,0.015071105550969
527,0.0149775775609405
528,0.0150906462385848
529,0.0152783149628205
530,0.0152930160548251
531,0.0153153578390715
532,0.0152783057802509
533,0.0154442453642614
534,0.015489666123171
535,0.0153473021384899
536,0.0155025205295934
537,0.0154405779510623
538,0.0153288420906745
539,0.015255624955198
540,0.015363459299072
541,0.015244630346584
542,0.0151707113534864
543,0.0152508152473881
544,0.0153532849543318
545,0.0152107912068352
546,0.0153483573119084
547,0.01531328915568
548,0.0152782209994516
549,0.0152431528432232
550,0.0151859758138957
551,0.0153218144255253
552,0.015382045087822
553,0.0152707438225133
554,0.0152234853496845
555,0.0153825665578582
556,0.0151916116494104
557,0.0151725758210537
558,0.0150930652341826
559,0.0149638290189068
560,0.0151481563576007
561,0.0148997206032297
562,0.0151698297347573
563,0.0149298826077153
564,0.0149966641814628
565,0.0147747117932556
566,0.0147667176033692
567,0.0145897283268516
568,0.0147181126396986
569,0.0145437705802362
570,0.01453110697194
571,0.0145615885358157
572,0.0145750853594757
573,0.0145397325949964
574,0.0146514176130144
575,0.014442008710714
576,0.0144836132538146
577,0.0145252177969152
578,0.0145668223400159
579,0.0146084268831165
580,0.0146500314262171
581,0.0148130879716121
582,0.0147390000169803
583,0.014806640295401
584,0.0145968363200265
585,0.0145731952073023
586,0.0142752099397646
587,0.0141260993976558
588,0.01402581343405
589,0.0139255274704442
590,0.0138252415068384
591,0.0138738043054067
592,0.0139555985225353
593,0.0139605051548424
594,0.0140707098267306
595,0.0139975185113233
596,0.0140388107416009
597,0.0140456900221299
598,0.0139626070719548
599,0.013905628449386
600,0.0139600181695005
601,0.0140037458826124
602,0.0140468474425332
603,0.0139272729292822
604,0.0140372607714854
605,0.0139721062309999
606,0.0139688127633151
607,0.013871533736114
608,0.0136822225545894
609,0.0136781163719761
610,0.0135605387195911
611,0.0134642436269359
612,0.0133538025589037
613,0.0132338356506568
614,0.0130630247781668
615,0.0131740870847171
616,0.0130513536995191
617,0.0131720553341924
618,0.0131074203305506
619,0.0131400189714541
620,0.0130669932475953
621,0.0131591640232404
622,0.0128514296530149
623,0.012863183249032
624,0.0127396574979734
625,0.0126161317469148
626,0.0124926059958562
627,0.0124652238285746
628,0.0123946223783964
629,0.0123409589664749
630,0.0124525487958854
631,0.0122462933691331
632,0.0123190769446391
633,0.0123844152162166
634,0.0123594699433135
635,0.0124104701628204
636,0.0122864933016998
637,0.0123943157576144
638,0.0122420728065657
639,0.0123227870102001
640,0.0122284192346304
641,0.0122042005078956
642,0.0121463993541351
643,0.0120844898609921
644,0.012022580367849
645,0.0119606708747059
646,0.0120556299424847
647,0.0120359629369479
648,0.0117958410422763
649,0.0120116262412117
650,0.0118408104469514
651,0.0119237803276788
652,0.0117594732889219
653,0.0115045388418886
654,0.0112705568655733
655,0.0113398218178094
656,0.0111988902964111
657,0.011262244828756
658,0.0113626397861844
659,0.0116129506032388
660,0.0116740163986819
661,0.0116889511985454
662,0.0117193586689854
663,0.0116170571212362
664,0.0115245467275405
665,0.0115579908246183
666,0.0115577519854164
667,0.0115784479643467
668,0.0115691722995814
669,0.0113664190723178
670,0.0113993881636217
671,0.0113388648103842
672,0.0112957523974936
673,0.0113249962406262
674,0.011360979524417
675,0.0112902444316475
676,0.0112817752192593
677,0.0113433610171507
678,0.0112325832880871
679,0.0111666424433477
680,0.0114087614407144
681,0.0112189257522493
682,0.0109303641283358
683,0.0106712524592054
684,0.0102535738151827
685,0.00991967782307282
686,0.00963087043950065
687,0.00944221823607833
688,0.00935761896005221
689,0.00946975590671947
690,0.00972899698415373
691,0.0100460425638039
692,0.0101625364012646
693,0.0102683270445106
694,0.0104663918670774
695,0.0104491132406382
696,0.0106337447588381
697,0.010601648808732
698,0.0104727103512349
699,0.0105074990420107
700,0.0106694490049628
701,0.010563374887162
702,0.0106830857522676
703,0.0106534886787783
704,0.0108331055372159
705,0.0107225974130449
706,0.0108734089630587
707,0.0109391464454
708,0.0109119990704579
709,0.0109886926216966
710,0.0108323090238152
711,0.0108600623303815
712,0.0109168452766791
713,0.0106108557832442
714,0.0105209177762069
715,0.0101817733763348
716,0.00992760969966536
717,0.00969918203694479
718,0.00965742927279465
719,0.00967564269504272
720,0.00972908360141511
721,0.00959004662226768
722,0.00983903406228928
723,0.00982072621013849
724,0.00979548379283153
725,0.00977492133226641
726,0.00973831494715715
727,0.00981735751828118
728,0.00987170961333482
729,0.00991507319559683
730,0.0100405277939061
731,0.0101899633021575
732,0.0102593725882958
733,0.0104135488980447
734,0.0104756990343369
735,0.0105062142602316
736,0.0105157943079844
737,0.0104841060201216
738,0.0104524177322588
739,0.010420729444396
740,0.0105194872689068
741,0.0104675985368019
742,0.0104697998341013
743,0.0104720011314007
744,0.0104742024287002
745,0.010444962870011
746,0.0104066261867927
747,0.0104174414542783
748,0.010199695166208
749,0.010282476907549
750,0.0101931314766119
751,0.01014337195173
752,0.0102003350462891
753,0.0100177451249988
754,0.00990412483328648
755,0.00919142143244749
756,0.0084787180316085
757,0.00776601463076951
758,0.0066797736605959
759,0.00567232703041337
760,0.00499033268446822
761,0.00481752188236047
762,0.00504473778777671
763,0.00545814028337648
764,0.00610391517405714
765,0.00671538208602054
766,0.00744272664155156
767,0.0081051146033915
768,0.00853337987054723
769,0.00875699224969733
770,0.00895302204549594
771,0.00899939972435631
772,0.00912389193712383
773,0.00916652986960804
774,0.00910783062388542
775,0.00907304227165377
776,0.00909609245717652
777,0.00895222387497582
778,0.00898461643936077
779,0.00890746770847151
780,0.00896965602976321
