"wavelength","measurement"
380,0.00157544583117697
381,0.00163648626104408
382,0.0016748031228681
383,0.00162830015257862
384,0.00163872442195879
385,0.00178143627832774
386,0.00184208118058788
387,0.00198395049000571
388,0.00213207617334628
389,0.00229029169408573
390,0.00225892658998321
391,0.00237480668261319
392,0.00233139392334562
393,0.00243107307803356
394,0.00253400075900033
395,0.00278806673857206
396,0.00317516802931411
397,0.00355619006560995
398,0.00393721210190579
399,0.00431823413820163
400,0.00472078882033938
401,0.00500300011550827
402,0.00534651000586555
403,0.00552016022493981
404,0.005623853979366
405,0.00573370652500008
406,0.00599999382409649
407,0.00622437505387801
408,0.00630418749125487
409,0.0065677523505756
410,0.00698583412349486
411,0.00708068962595137
412,0.00736448573078767
413,0.00763773776196886
414,0.00772481781349013
415,0.00782686085653778
416,0.00782673985065063
417,0.00781003613377636
418,0.00798045815200401
419,0.00788106514572843
420,0.00813770296877822
421,0.00812561889650089
422,0.00826533088211173
423,0.00833050401141601
424,0.00844228555760012
425,0.0083508024725189
426,0.00825192055139068
427,0.00807796893055865
428,0.00782040932508712
429,0.00788933444102035
430,0.00790862716684621
431,0.00825380523206861
432,0.00856711149117117
433,0.00892672759200749
434,0.00931896486334799
435,0.00954145355774036
436,0.00967726266065488
437,0.00986445489092104
438,0.0100516471211872
439,0.0102388393514534
440,0.0103631884144092
441,0.0106077179449815
442,0.0109312183176257
443,0.0110984695798167
444,0.0113162582040015
445,0.0115340468281864
446,0.0117518354523712
447,0.0119734265193173
448,0.0121289525375397
449,0.012643973665814
450,0.0126185818089383
451,0.0125488501152243
452,0.0125694720514682
453,0.0125900939877122
454,0.0126107159239561
455,0.0126609691992828
456,0.0126331863275162
457,0.0129080336203274
458,0.0130359837052065
459,0.0133049229213339
460,0.0133732232146927
461,0.0132286193090476
462,0.0136776063938286
463,0.0132975469084863
464,0.0132480896511475
465,0.0131428963630379
466,0.0130345596531295
467,0.0130178134025251
468,0.0129079384038891
469,0.0128807234895292
470,0.0131604868441076
471,0.0131886768637343
472,0.0132547121490875
473,0.0135353317261191
474,0.0136079346999576
475,0.0137958432485462
476,0.0135009134113609
477,0.0135265894110466
478,0.0135522654107324
479,0.0135779414104181
480,0.0136010056888753
481,0.0132121254327037
482,0.0130775673174412
483,0.0130525775482714
484,0.0127518370146372
485,0.0125285080387049
486,0.0126690252148008
487,0.0127445556924615
488,0.012974616351175
489,0.0133284557448917
490,0.0134959648007942
491,0.0136023708775813
492,0.0139539958992155
493,0.0138687049513647
494,0.014110780158769
495,0.0139219342754436
496,0.0140364093849546
497,0.0138195018632949
498,0.0139550012099497
499,0.013702498030764
500,0.0137707477120471
501,0.0136920956246747
502,0.0139807343054636
503,0.014081988903958
504,0.0140212297694362
505,0.0144843843702018
506,0.0144247231970163
507,0.0144713309250488
508,0.0145872783708587
509,0.014558762556113
510,0.0143435293367943
511,0.0146275746013393
512,0.0144515554655709
513,0.0140776663128032
514,0.0139823776515843
515,0.0137736848430552
516,0.013680297649669
517,0.0136670984094673
518,0.0136503531095856
519,0.0139213526964253
520,0.0142156666274231
521,0.0143828214411024
522,0.0145499762547816
523,0.0147171310684609
524,0.0146527045238076
525,0.0146738218941897
526,0.0147193346356791
527,0.0146364794650731
528,0.0147245605302037
529,0.0149144892545889
530,0.0149543001942012
531,0.0149767468516969
532,0.014924210410316
533,0.015091749006541
534,0.015132122501639
535,0.0149421126701281
536,0.0151363574808151
537,0.0150523856383168
538,0.0149501451243733
539,0.014886055751528
540,0.0149822762123816
541,0.0148842968003558
542,0.0148393700221175
543,0.014914917585371
544,0.0149852159138756
545,0.0148627022592019
546,0.014995281725322
547,0.0149611678048026
548,0.0149270538842831
549,0.0148929399637637
550,0.0148149087585769
551,0.0149257165385854
552,0.0150374048509391
553,0.0148998230771346
554,0.0148689743372501
555,0.0150036059835124
556,0.0148302112158643
557,0.0148271127917502
558,0.014724299972695
559,0.0145903914400025
560,0.0147833680221176
561,0.0145284246820704
562,0.0147811149517798
563,0.0145707802112578
564,0.0146426559281483
565,0.0144623335910871
566,0.014379058047541
567,0.0141953398981081
568,0.0143502099966626
569,0.0141818154621638
570,0.0141581180213388
571,0.0141947730152312
572,0.0142041485880411
573,0.0141632763537535
574,0.014277660951794
575,0.0140683721868397
576,0.0141132575301366
577,0.0141581428734335
578,0.0142030282167304
579,0.0142479135600273
580,0.0142927989033241
581,0.0144171271349076
582,0.0143640889357337
583,0.0144740826752107
584,0.0142440347936201
585,0.0142360939036797
586,0.0139200205526238
587,0.013772046732575
588,0.0136671723019471
589,0.0135622978713192
590,0.0134574234406913
591,0.0134919711149134
592,0.0135775065138249
593,0.0135685630201897
594,0.0136796899727291
595,0.0136346218143898
596,0.013714463151335
597,0.0136827548161812
598,0.0136063078673191
599,0.0135739711305692
600,0.0136152254793478
601,0.0136567456192137
602,0.013704051028117
603,0.0135849501792711
604,0.0136808566366388
605,0.0135856444902596
606,0.0136097060714088
607,0.0135236110193183
608,0.0133350063756493
609,0.0133331860444193
610,0.0131851337752482
611,0.0130874261235913
612,0.0129792371069039
613,0.0129066422498263
614,0.0127372934600378
615,0.0128550627152831
616,0.0127184766935804
617,0.012795263653213
618,0.0127894635173629
619,0.0127854147704431
620,0.0127403967755194
621,0.0127797564707216
622,0.0125152466617481
623,0.012517030852862
624,0.0123961377995133
625,0.0122752447461646
626,0.012154351692816
627,0.0121071773435938
628,0.012074618243933
629,0.0120472011147555
630,0.0121276380121213
631,0.0119300816880275
632,0.0119750186063984
633,0.0120591282080012
634,0.0120028534257858
635,0.0121050316925992
636,0.0119419618100468
637,0.0120409801341211
638,0.0119203486497975
639,0.0120024116783297
640,0.0118759289815185
641,0.0118779858511451
642,0.0118070347721678
643,0.0117450279444391
644,0.0116830211167105
645,0.0116210142889818
646,0.0117299786925313
647,0.0117208798069044
648,0.0115000830829092
649,0.0116776977371102
650,0.011495514868714
651,0.0115840261641651
652,0.0114202418404767
653,0.0111795189038586
654,0.0109467317228864
655,0.0110691954107242
656,0.0109050705869772
657,0.0109505516816863
658,0.0110349066288746
659,0.0112817382109405
660,0.0113543072917839
661,0.0113547630083343
662,0.0113868766644508
663,0.01132303350046
664,0.0112069489029273
665,0.0112252785846022
666,0.0112535619604433
667,0.0112231996788953
668,0.0112571085642275
669,0.0110414714977207
670,0.0110998466637972
671,0.011028417482053
672,0.0109878864694761
673,0.0110207012256158
674,0.0110333829982773
675,0.0109802596005857
676,0.0109442497044919
677,0.0110090957410965
678,0.0109010886006436
679,0.0108778133349923
680,0.0110853886253141
681,0.0108845801436629
682,0.0106226780811729
683,0.0103860243617702
684,0.00996085617680632
685,0.00963297421822804
686,0.00937178740674768
687,0.00915816211565222
688,0.00911464401646149
689,0.00925141574709793
690,0.00941194453870411
691,0.00975221502481341
692,0.00987670759062253
693,0.0100000277180403
694,0.0101752347956248
695,0.0101416392121908
696,0.0103128617873831
697,0.0103056723041919
698,0.0102069145760355
699,0.0102291893887669
700,0.010402626977096
701,0.0102935659991715
702,0.0104031378122174
703,0.0103880605344933
704,0.0105577820712834
705,0.0104644781877359
706,0.010633121784732
707,0.0106358338701652
708,0.0106313846768109
709,0.0106901306823053
710,0.0105879750933855
711,0.010604370719102
712,0.0106414698595178
713,0.0103517682078929
714,0.0102481764079554
715,0.00994235937541655
716,0.00965609647259142
717,0.00945272375061415
718,0.00944836280753514
719,0.00943413755399269
720,0.00948164024806905
721,0.00935920555037339
722,0.00963454086157265
723,0.00956870780199031
724,0.00955072610303546
725,0.0095853985305442
726,0.00952256791102346
727,0.00959421748358479
728,0.00961795408231292
729,0.00971853999215238
730,0.00980550480606654
731,0.00998765968156379
732,0.0100191299855012
733,0.0102086984653317
734,0.0102650353687805
735,0.0102609567103097
736,0.0103544251269739
737,0.0103181786339306
738,0.0102819321408873
739,0.010245685647844
740,0.0102827872238717
741,0.0102791865454132
742,0.0102723602795483
743,0.0102655340136833
744,0.0102587077478184
745,0.0102309089500852
746,0.0101833347503242
747,0.0102038187725258
748,0.0100581730119891
749,0.0100292805708235
750,0.00998649295981397
751,0.00989607257966228
752,0.0100293130584812
753,0.0098258470139859
754,0.00968860577147526
755,0.00901340311407076
756,0.00833820045666625
757,0.00766299779926175
758,0.00655845628789815
759,0.00559111181654948
760,0.00491633798933854
761,0.00480463632960715
762,0.00497998967652581
763,0.00533804830551898
764,0.00600692678139492
765,0.006588523066419
766,0.00732263193999078
767,0.00795279138360779
768,0.00836536161269586
769,0.00858863704394721
770,0.00880309586847495
771,0.00883664693712833
772,0.00896240065937356
773,0.00901574748996979
774,0.0089690104193895
775,0.00890345307429405
776,0.00893476175003921
777,0.0088125013746099
778,0.00886316835072275
779,0.00873669273662707
780,0.00881817002819857
