"wavelength","measurement"
380,0.0137512712284673
381,0.0139039302714539
382,0.0143203949970865
383,0.0148694757499921
384,0.0153612772290093
385,0.0171011675146163
386,0.0177843512240356
387,0.0192236478315668
388,0.0209662309737099
389,0.0226866940298076
390,0.0235036062030457
391,0.0245683833578753
392,0.0261078396200629
393,0.0272166406900861
394,0.029730693994923
395,0.0334466100722358
396,0.0398445016657237
397,0.0460869905272375
398,0.0523294793887513
399,0.0585719682502651
400,0.0628372033330496
401,0.0690865755135945
402,0.0737131994934106
403,0.076639442901777
404,0.0792806248094743
405,0.0825423986117598
406,0.0862831907116003
407,0.088998248458414
408,0.0917950030486339
409,0.0960194587423927
410,0.102431081476653
411,0.103645060777006
412,0.108386058555928
413,0.11138611865827
414,0.112346678321563
415,0.113852623107347
416,0.113813836875476
417,0.113566706929127
418,0.115674492399412
419,0.113532203356631
420,0.116917123492269
421,0.117092910282958
422,0.117905113299214
423,0.117878983305229
424,0.119126303281532
425,0.116225661862135
426,0.114878458184935
427,0.111743729672022
428,0.108492442951165
429,0.108398620168563
430,0.109321898114308
431,0.114128207216922
432,0.118629348110003
433,0.122465480143528
434,0.127340147921536
435,0.130074155247202
436,0.132186211391569
437,0.134459805805299
438,0.136733400219029
439,0.13900699463276
440,0.139989601196747
441,0.142499864369718
442,0.14552253199919
443,0.147407870512829
444,0.149902188675358
445,0.152396506837886
446,0.154890825000414
447,0.156841038655893
448,0.157835621905394
449,0.162651468098247
450,0.161552499458876
451,0.160129358677293
452,0.159738598589913
453,0.159347838502534
454,0.158957078415154
455,0.158303643343551
456,0.159187793695013
457,0.161192233778644
458,0.162411600965552
459,0.16500625681444
460,0.165471445523031
461,0.164177503388556
462,0.167980203652137
463,0.164237738609365
464,0.162576009098331
465,0.162069820202587
466,0.160855838531917
467,0.161784379044904
468,0.16105559489891
469,0.161461269749
470,0.165729396146113
471,0.167494230589494
472,0.169420517082728
473,0.172936416071111
474,0.174078533657247
475,0.177790947010703
476,0.175048038442091
477,0.175852002801606
478,0.176655967161122
479,0.177459931520637
480,0.177577889373178
481,0.173472973960703
482,0.170996157350077
483,0.170698608293741
484,0.167614367002216
485,0.164924794453482
486,0.167609399218691
487,0.169531948900761
488,0.171703503336245
489,0.176046718442253
490,0.176945533307073
491,0.178907240438661
492,0.182945447040069
493,0.18039684684522
494,0.183385694605902
495,0.180384778763089
496,0.181212834959108
497,0.177652764721749
498,0.178380524507078
499,0.17461844916377
500,0.176241080408124
501,0.174552238926175
502,0.177779902941859
503,0.178862910503495
504,0.176663542789987
505,0.181993466642334
506,0.180668561911938
507,0.180921573326163
508,0.18127779467899
509,0.180123955468746
510,0.176803149108337
511,0.17800950934196
512,0.175474231460321
513,0.169755757514148
514,0.16783132352279
515,0.164772947057313
516,0.163461446923926
517,0.162634688204756
518,0.161378583493943
519,0.164065045215668
520,0.166280826619497
521,0.167010979438572
522,0.167741132257648
523,0.168471285076723
524,0.166858775849696
525,0.166287263474966
526,0.165692539912587
527,0.164661520754324
528,0.164790956789017
529,0.165644280034178
530,0.165201860156905
531,0.164643307888289
532,0.163817723107807
533,0.16512604223155
534,0.165080961514489
535,0.162667035163476
536,0.163868781068828
537,0.162748029469157
538,0.161067072214812
539,0.159919862394254
540,0.160954775948257
541,0.159582984855641
542,0.158310611909247
543,0.159340719926476
544,0.159459315066431
545,0.158409165558786
546,0.159405585032969
547,0.158865450904611
548,0.158325316776254
549,0.157785182647896
550,0.15709373913012
551,0.157763019506203
552,0.159127324838646
553,0.157004927648481
554,0.156349143821317
555,0.157485437628125
556,0.155069775578899
557,0.154580144982592
558,0.152951782426829
559,0.151568344977878
560,0.153375392239168
561,0.149927837318143
562,0.152627617491139
563,0.149714688876407
564,0.150518350807092
565,0.148383202738003
566,0.147659177280226
567,0.145962177128891
568,0.147400351528337
569,0.145897168731654
570,0.146093507480937
571,0.146612687047732
572,0.1469781188172
573,0.146996898969497
574,0.148249237325726
575,0.146650165848585
576,0.14773135163131
577,0.148812537414034
578,0.149893723196759
579,0.150974908979483
580,0.152056094762208
581,0.154713516956647
582,0.154370008617658
583,0.15603890649482
584,0.154227297143719
585,0.154588909787944
586,0.152149895247774
587,0.151376830590838
588,0.151120642906872
589,0.150864455222907
590,0.150608267538941
591,0.151765499424581
592,0.153350867850764
593,0.153300383136266
594,0.155626472201442
595,0.155590103424187
596,0.156548987323104
597,0.15673568495506
598,0.156242894758669
599,0.15640269392111
600,0.157564791966959
601,0.158432158465723
602,0.159570276157255
603,0.158436867647682
604,0.160183934558027
605,0.159280021258019
606,0.159847093888199
607,0.159186942172299
608,0.157320140549964
609,0.157468077964679
610,0.156651495755328
611,0.15577155929053
612,0.154820446522596
613,0.15472724604274
614,0.153042626262706
615,0.155968590444657
616,0.153928476536208
617,0.155854988435633
618,0.155716995001261
619,0.156565576052007
620,0.156044497859239
621,0.157053588474875
622,0.154103799739702
623,0.154202330210593
624,0.153320138355504
625,0.152437946500416
626,0.151555754645327
627,0.151909236408749
628,0.151855582153442
629,0.151397974476956
630,0.153032749947582
631,0.151058476676658
632,0.152387299666984
633,0.153654834409166
634,0.154249165201935
635,0.155062128937557
636,0.15349620604544
637,0.155662456555609
638,0.155073210601067
639,0.155858440646687
640,0.155312371799617
641,0.155434627158921
642,0.15538536504881
643,0.155153472433408
644,0.154921579818007
645,0.154689687202605
646,0.156622346804029
647,0.157083491600025
648,0.155106988730632
649,0.157351904368227
650,0.156082445222853
651,0.156819061877714
652,0.1549941386943
653,0.152690597717767
654,0.15045299185755
655,0.152263714496833
656,0.15110259923277
657,0.15320716482504
658,0.154912277439294
659,0.158286646074048
660,0.159135638507684
661,0.160206108888348
662,0.16069289526169
663,0.160508561365225
664,0.159583205020033
665,0.160187679400558
666,0.160615597792389
667,0.16148734489368
668,0.161746474847082
669,0.159387562290934
670,0.16063100497231
671,0.160442662622662
672,0.15984884051577
673,0.160258419353661
674,0.161346771994592
675,0.161235504195473
676,0.16116713001412
677,0.162855215355826
678,0.161353020791603
679,0.161013258052394
680,0.164599402110103
681,0.161824203083132
682,0.157129487811239
683,0.153916565481789
684,0.148349491480129
685,0.143848943014394
686,0.140311717886842
687,0.138812382940532
688,0.138955759603974
689,0.141171327490609
690,0.144312810612066
691,0.148819347029879
692,0.151056345799849
693,0.153044511104211
694,0.155302948468738
695,0.155502419563429
696,0.157435250773046
697,0.158305521501201
698,0.156648034216544
699,0.156945615977596
700,0.159646795561047
701,0.158737294449965
702,0.160709181364184
703,0.160432659801207
704,0.16255770736105
705,0.16229301143595
706,0.164198920253853
707,0.165933076226913
708,0.165031324713044
709,0.166799341088209
710,0.165382745582099
711,0.165611082508362
712,0.166180520638603
713,0.161683312903186
714,0.160579085199439
715,0.155722509574492
716,0.152919261934739
717,0.150582327613484
718,0.150207286476974
719,0.151716784425384
720,0.152636071411723
721,0.150801858964559
722,0.154551658267776
723,0.155322581765065
724,0.154949348152424
725,0.156656028179952
726,0.156251583779978
727,0.158297155231536
728,0.159623839387574
729,0.162387193910878
730,0.16347151031488
731,0.167047592734155
732,0.169552104384164
733,0.172486847983241
734,0.173604594829679
735,0.174299373981167
736,0.176326535103663
737,0.176694795686905
738,0.177063056270146
739,0.177431316853388
740,0.179731018047064
741,0.180457415467727
742,0.18162088951587
743,0.182784363564013
744,0.183947837612156
745,0.184665814960439
746,0.184734605394562
747,0.185751171330555
748,0.184148192945759
749,0.18597321122784
750,0.186237092748124
751,0.185900549205978
752,0.188794751538484
753,0.18770970898832
754,0.182571311182577
755,0.168695381421707
756,0.154819451660838
757,0.140943521899968
758,0.120475736781154
759,0.104415829115432
760,0.0967634594012012
761,0.0970849163286971
762,0.10195225344932
763,0.113261705444445
764,0.126189235564397
765,0.138898469531197
766,0.153018798126504
767,0.166115878956689
768,0.174433754382104
769,0.178862323081296
770,0.184213132271475
771,0.186754984382169
772,0.187964380836164
773,0.190786294621038
774,0.189445898267352
775,0.189883195398451
776,0.190663900771093
777,0.188497846397741
778,0.19155743260383
779,0.18980365185277
780,0.191993695040923
