"wavelength","measurement"
380,0.032264215948363
381,0.03086014859578
382,0.0309948822870321
383,0.0304026684923058
384,0.0304529938785621
385,0.0323030202558498
386,0.0336624924717487
387,0.0348668947107354
388,0.0362721214828428
389,0.0375405709349627
390,0.0373566848330866
391,0.0375627469574504
392,0.0379525221719737
393,0.0383904314353775
394,0.0399144234981771
395,0.0431490337068679
396,0.0481308261741114
397,0.0538977118745097
398,0.059664597574908
399,0.0654314832753063
400,0.0683274902390705
401,0.0726616712932374
402,0.0763331772401726
403,0.0774904246257757
404,0.0784839333356825
405,0.0789806406789153
406,0.0815557414200186
407,0.082526453355313
408,0.0836771051664445
409,0.0860951114394332
410,0.0904327261982668
411,0.0915774870968711
412,0.0937306931338073
413,0.0956282598663486
414,0.0958457905487011
415,0.096650067143729
416,0.0961824512275609
417,0.0943701003197897
418,0.0963428101754891
419,0.0945378554669507
420,0.0964638612018138
421,0.096188490047088
422,0.0970345595862925
423,0.0973883420119242
424,0.0974909397253224
425,0.0950894941910357
426,0.0937764180913649
427,0.0908179316525562
428,0.0881218486075561
429,0.0880382536074444
430,0.0881534439452
431,0.0916523069943649
432,0.0950274874676329
433,0.0979412570703141
434,0.101793563495478
435,0.103676431230205
436,0.104864072272735
437,0.106261415492107
438,0.107658758711478
439,0.10905610193085
440,0.109828834700471
441,0.111310317795268
442,0.113563885334322
443,0.114658512774634
444,0.11631680763626
445,0.117975102497886
446,0.119633397359513
447,0.121362312018029
448,0.121694137452535
449,0.125586328518347
450,0.124227111287138
451,0.123330557271644
452,0.122801685910722
453,0.1222728145498
454,0.121743943188878
455,0.121261871754984
456,0.121815252637123
457,0.122996614407687
458,0.123717565101125
459,0.125331974273542
460,0.125419869300847
461,0.123960497961445
462,0.127011582682037
463,0.122937689146334
464,0.12184153704376
465,0.120519448942532
466,0.119092759292779
467,0.118898017126572
468,0.118086743439696
469,0.117707597405478
470,0.120467520780513
471,0.12051285922478
472,0.121556079932039
473,0.123107979017839
474,0.123681026115707
475,0.125220185376659
476,0.122797435711721
477,0.122757965522461
478,0.122718495333201
479,0.122679025143942
480,0.122189584012257
481,0.119078183382242
482,0.116936227063066
483,0.116231787769782
484,0.113890426762621
485,0.111715399131958
486,0.113201284656935
487,0.114143798112549
488,0.115824536027728
489,0.118539862480052
490,0.119255153468847
491,0.120066859068573
492,0.122896020555261
493,0.120912795679189
494,0.122843144555807
495,0.120699888687692
496,0.12087687958631
497,0.118653455079038
498,0.119158498145072
499,0.116484547803671
500,0.117311940805009
501,0.116471782471479
502,0.118511172055316
503,0.119419366234509
504,0.117949854788249
505,0.121431437854567
506,0.120561703065276
507,0.120618343026323
508,0.121045725973694
509,0.120388409479254
510,0.11835538779199
511,0.119159198213342
512,0.117828171058294
513,0.113990234727281
514,0.113119457595749
515,0.111200306969709
516,0.11027144972838
517,0.11015362499527
518,0.109668862403836
519,0.111952377892256
520,0.113817389705748
521,0.114581139310226
522,0.115344888914704
523,0.116108638519182
524,0.115386404783294
525,0.11505082486582
526,0.115195306484544
527,0.114498847046763
528,0.114940971711264
529,0.116025150392876
530,0.115748631962114
531,0.115696756977959
532,0.115073869828138
533,0.116257717685407
534,0.116186445205318
535,0.115010434441441
536,0.115832413891594
537,0.114941560169817
538,0.114086052151908
539,0.11345342275406
540,0.114021847117979
541,0.113188181704509
542,0.112608341591605
543,0.113094485458638
544,0.1133065097391
545,0.112532155330964
546,0.113157532398548
547,0.112921854668156
548,0.112686176937765
549,0.112450499207373
550,0.111713366870381
551,0.112620356576469
552,0.113474703715496
553,0.112030374443771
554,0.111453588119993
555,0.112732642969042
556,0.11078397567828
557,0.110746391790892
558,0.109761070100469
559,0.108754604193212
560,0.109995184289169
561,0.107898314770837
562,0.109451651852649
563,0.107565818528961
564,0.108090180237615
565,0.106443176780417
566,0.105595846985359
567,0.104656342367213
568,0.105546503214899
569,0.104299360767805
570,0.10427393815215
571,0.104450641945456
572,0.104618822394922
573,0.104152059928304
574,0.104928953516127
575,0.103778517840622
576,0.104257356171698
577,0.104736194502774
578,0.10521503283385
579,0.105693871164927
580,0.106172709496003
581,0.107515870719877
582,0.107019506318241
583,0.107833284818401
584,0.106252293817552
585,0.106352805917371
586,0.104009356489766
587,0.103299652724348
588,0.102844264877274
589,0.1023888770302
590,0.101933489183127
591,0.102585659298419
592,0.103397401318298
593,0.103279822795065
594,0.104663700492144
595,0.104278577259052
596,0.104668378716238
597,0.1050149042545
598,0.104346310202164
599,0.104468104060879
600,0.104990032529298
601,0.105344355697411
602,0.106207574790321
603,0.105301360064617
604,0.106387201856075
605,0.105580062186202
606,0.105676592113064
607,0.105090603261753
608,0.104072664968389
609,0.103819610425742
610,0.103138221167058
611,0.102668806328437
612,0.101668640420694
613,0.101368980250288
614,0.100511206481937
615,0.102093976512357
616,0.100841441763276
617,0.101724572093052
618,0.101693547923265
619,0.101885582342808
620,0.10161664710097
621,0.102299251358409
622,0.100171896737262
623,0.100426147752166
624,0.0997560049997723
625,0.0990858622473787
626,0.098415719494985
627,0.0984377256224599
628,0.0981534534428141
629,0.0980966303747941
630,0.0989886001560854
631,0.0976033459606795
632,0.0986880396575249
633,0.0992826997213066
634,0.0994020406393349
635,0.099995430751537
636,0.0989693536091811
637,0.100024838572693
638,0.0995239857913697
639,0.100169777060514
640,0.0996936949940195
641,0.0997305675784974
642,0.0993136551703229
643,0.099048796770321
644,0.0987839383703191
645,0.0985190799703173
646,0.0994763371104847
647,0.099701276326312
648,0.0982408315082914
649,0.0998268723552039
650,0.0987859121689449
651,0.099080485208356
652,0.0979167074522568
653,0.0963620531608215
654,0.094610911935694
655,0.0957475030386246
656,0.094797576798791
657,0.096074978260845
658,0.0967674497185307
659,0.0991789399734997
660,0.0995137101651426
661,0.0999123922446615
662,0.0998395516921434
663,0.0996605722361259
664,0.0989833934229048
665,0.0993556747981839
666,0.0994888518945965
667,0.0994306753213353
668,0.0999362635853744
669,0.0980009621795932
670,0.0985136198164221
671,0.098616183077864
672,0.0981629139116757
673,0.0983259018472955
674,0.098572920869657
675,0.0986771474506245
676,0.0986445105075797
677,0.0994906914206372
678,0.0983601232054181
679,0.0983385747374388
680,0.100527249717918
681,0.0984362894782888
682,0.0958830203246585
683,0.0934844647837896
684,0.090246502788736
685,0.0873248907532036
686,0.0854095022060233
687,0.0842216150178958
688,0.0846767752515561
689,0.0861279119429813
690,0.0881739217138583
691,0.0914939997205157
692,0.0928973447484628
693,0.0947100577095604
694,0.0965495379095141
695,0.0967876340595127
696,0.098285937875924
697,0.0992301651654286
698,0.0984968866008278
699,0.099514882059741
700,0.10148734898572
701,0.101232342638405
702,0.103049915629678
703,0.103588492761171
704,0.10511055991599
705,0.105565629698682
706,0.106984931453783
707,0.10861648116907
708,0.108823468863982
709,0.110247585720834
710,0.109499889596172
711,0.109980223848035
712,0.110913975349658
713,0.108028829941603
714,0.107869837871031
715,0.104857480533162
716,0.103047799732108
717,0.101792541920376
718,0.102170533910084
719,0.103081578096761
720,0.104647618616494
721,0.103711219683055
722,0.106815841897015
723,0.107205663887977
724,0.107475151521328
725,0.108623862386908
726,0.108494049632054
727,0.110535655312751
728,0.111393151376531
729,0.113671180543434
730,0.114967283373814
731,0.117044968851534
732,0.119155376275125
733,0.121490844838721
734,0.122325436364151
735,0.122673480773708
736,0.124392768022299
737,0.124685934386989
738,0.124979100751679
739,0.125272267116369
740,0.126774694325952
741,0.12725502109055
742,0.127796409529276
743,0.128337797968002
744,0.128879186406728
745,0.129302782099375
746,0.129166167403843
747,0.129855831617018
748,0.128475609677134
749,0.129251612738492
750,0.129192977048497
751,0.128863842410407
752,0.130874042372099
753,0.129675151045417
754,0.126459035018073
755,0.116581145896895
756,0.106703256775718
757,0.0968253676545402
758,0.0828555678260218
759,0.0713658574875113
760,0.0658711261353634
761,0.0656691384392387
762,0.0694035180749872
763,0.0768371048227803
764,0.0856523604776582
765,0.0944488898719914
766,0.104089059214441
767,0.113163131309255
768,0.118338171228809
769,0.121800435506515
770,0.125060747790308
771,0.126164990730138
772,0.127656358298006
773,0.129216053000344
774,0.128417641968835
775,0.129007288924228
776,0.129313274180564
777,0.127908079404471
778,0.129744812346932
779,0.128206883116402
780,0.129917874616774
