"wavelength","measurement"
380,0.00156926230144509
381,0.00159324534562441
382,0.00152262347826268
383,0.00156532624496924
384,0.00164598306256119
385,0.00178143627832774
386,0.00186771304993681
387,0.00200374041270994
388,0.0021600159181688
389,0.00224338095011412
390,0.00228620068571278
391,0.00230742066012784
392,0.002328054729705
393,0.00245469924156295
394,0.00258585131992488
395,0.00278551800322932
396,0.00310169263140937
397,0.00352782553156364
398,0.00395395843171791
399,0.00438009133187218
400,0.00463495512151157
401,0.0049605211931292
402,0.00528823067606961
403,0.00551539557880079
404,0.0055955638929156
405,0.00569875994762019
406,0.0059414210831872
407,0.00611500277692778
408,0.00624228212561049
409,0.00646531683785716
410,0.00686462029952267
411,0.00697959416995954
412,0.00730875951560482
413,0.00755692380177786
414,0.00762569302915505
415,0.00776252499585006
416,0.00774332350905512
417,0.00776606825947885
418,0.0079470224228943
419,0.00780105587646394
420,0.008012692317414
421,0.00809478007470776
422,0.00822106193297777
423,0.00830878283048816
424,0.00833346068944344
425,0.00823974417648455
426,0.00817993410540438
427,0.0080317150771393
428,0.00776557538623774
429,0.00783319657442475
430,0.00784727358926572
431,0.00816203324264842
432,0.00850438720197165
433,0.00878390863777168
434,0.0092601895811851
435,0.00947212094958517
436,0.0096490820559632
437,0.00981993230904608
438,0.00999078256212895
439,0.0101616328152118
440,0.0102774773351511
441,0.0105547725664698
442,0.0107459094928349
443,0.0109583329286693
444,0.0111750413328348
445,0.0113917497370004
446,0.011608458141166
447,0.0118574689145808
448,0.0120206269062027
449,0.0125422870083251
450,0.0124718981486201
451,0.0124267035066679
452,0.0124480786774118
453,0.0124694538481556
454,0.0124908290188995
455,0.0124783974184598
456,0.0125170042851742
457,0.0128320883139462
458,0.0128796963050143
459,0.0131561021770857
460,0.0131688919343262
461,0.0130938428848065
462,0.0135421117692504
463,0.0131663790030123
464,0.0130890564484469
465,0.0129970929360597
466,0.0128425374068948
467,0.0128574773668958
468,0.0127857304855478
469,0.0127274490273367
470,0.0130292313532266
471,0.0130278175052984
472,0.0131320049939265
473,0.0133290856097929
474,0.0134061423015756
475,0.0136946821034991
476,0.0133806805439467
477,0.0134016086846965
478,0.0134225368254462
479,0.0134434649661959
480,0.0134285587810977
481,0.0131246276111436
482,0.0128445901349086
483,0.0128728522931748
484,0.0125755232111419
485,0.0123758379158205
486,0.0125289214081809
487,0.0126554594372242
488,0.0127959683965841
489,0.0132010846668097
490,0.0133422524115668
491,0.0134459739956304
492,0.0138214966955556
493,0.013677714023297
494,0.0139479676457578
495,0.0137756140945643
496,0.0138653550851478
497,0.013645732415872
498,0.0137523636123905
499,0.013513559885672
500,0.0135824741212305
501,0.0135528567239487
502,0.0138029030847926
503,0.013890781202008
504,0.0138145282089937
505,0.0143008754255242
506,0.0142196036479872
507,0.0143214109839431
508,0.0144132133226874
509,0.0144003117963687
510,0.0141917876192237
511,0.014394991553138
512,0.0142692683373206
513,0.0138879738383938
514,0.0138212423991165
515,0.0136132721701949
516,0.0135276625609473
517,0.0134892617147084
518,0.0134799206661682
519,0.0137334819984807
520,0.0140286498871965
521,0.0141908305796384
522,0.0143530112720803
523,0.0145151919645223
524,0.0144285209161344
525,0.0145035558630456
526,0.0144923132608202
527,0.0144340476932203
528,0.014539076534599
529,0.0146756438497895
530,0.0147499809568283
531,0.0147298611065379
532,0.0147217830177335
533,0.0148741868556346
534,0.0149192899627089
535,0.0147765762509602
536,0.0149928619293105
537,0.0148658889364441
538,0.0147515320762642
539,0.0146855421000877
540,0.0147616266758796
541,0.0146775426886691
542,0.0146160491307031
543,0.0146953409701044
544,0.0148105093025982
545,0.014633310604267
546,0.0147840125859062
547,0.0147478666839451
548,0.0147117207819841
549,0.014675574880023
550,0.0146213450091795
551,0.0147369918829229
552,0.0147921657114311
553,0.0146445608826168
554,0.01464734384419
555,0.0147716688776875
556,0.0145845341493214
557,0.0145795800093972
558,0.0144859406669042
559,0.0144098341235398
560,0.0145675794757023
561,0.0143411320478118
562,0.0145615383365131
563,0.0143513262155609
564,0.0144345354841129
565,0.0142296366818568
566,0.0141738016463134
567,0.0139872369711541
568,0.0141258599767162
569,0.0139450545900502
570,0.0139982571365423
571,0.0139843315579112
572,0.014015982289348
573,0.0139571703740784
574,0.0140771779552462
575,0.0138716203286287
576,0.0139144850765869
577,0.013957349824545
578,0.0140002145725032
579,0.0140430793204613
580,0.0140859440684195
581,0.0142350370738229
582,0.0141454056916181
583,0.0142565205243043
584,0.0140205869033656
585,0.0140185317527733
586,0.0137119176256699
587,0.0135772348911283
588,0.0134687439130711
589,0.0133602529350138
590,0.0132517619569566
591,0.0133145843901828
592,0.0133932487139177
593,0.0133964576954993
594,0.0134764480358618
595,0.0134304602307493
596,0.0135044683795906
597,0.0134818864438427
598,0.013400201887644
599,0.0133493933885647
600,0.0134110157237336
601,0.0134293082136718
602,0.0135017769099967
603,0.0133901339585541
604,0.0134621120827384
605,0.0133833222001655
606,0.0134131644181745
607,0.0132996113409998
608,0.0131606238303777
609,0.0131225869333668
610,0.013008443354503
611,0.0129059601085313
612,0.0128013248697315
613,0.0127170636364459
614,0.0125273293431858
615,0.0126715800462276
616,0.0124985147025231
617,0.0126217295915714
618,0.0125648244655735
619,0.0126048465058044
620,0.0125285495724176
621,0.0126056968966382
622,0.0123628305365438
623,0.0122834186761288
624,0.0121811039473547
625,0.0120787892185805
626,0.0119764744898064
627,0.0119304628368617
628,0.0118780853492394
629,0.0118423497960352
630,0.0119066731681542
631,0.011737547067162
632,0.0118087114356491
633,0.0118416186083389
634,0.011847827255454
635,0.0119158472135502
636,0.0117719366387718
637,0.0118490323354823
638,0.0117554691211819
639,0.0117917862916551
640,0.0117111939688243
641,0.0117039448889607
642,0.0116160274218363
643,0.0115722547810206
644,0.0115284821402049
645,0.0114847094993892
646,0.0115313349895298
647,0.0115283232896871
648,0.0113137801637494
649,0.0115197462141857
650,0.0113336044853946
651,0.0114039856016034
652,0.0112650186029792
653,0.0110227027067718
654,0.0108377229253751
655,0.0108688613093683
656,0.0107638391182426
657,0.0108087728041582
658,0.0109087310915977
659,0.0111537233801173
660,0.0112051493437188
661,0.0112096427475304
662,0.011242360742955
663,0.0111675256103898
664,0.0110701229801632
665,0.0110426104598315
666,0.0110839265442294
667,0.0110689179845227
668,0.011066522718667
669,0.0108860511930575
670,0.0109653680299398
671,0.0108669275086869
672,0.0108353564832428
673,0.0108749240742597
674,0.0108626571437466
675,0.0108295951835208
676,0.0108103184794281
677,0.0108622544270457
678,0.0107763582225817
679,0.0106857166411616
680,0.0109534193133664
681,0.0107664274296642
682,0.0104902839800013
683,0.010264534643766
684,0.00987147964826669
685,0.00954328676149368
686,0.00926355374008802
687,0.00904833877385611
688,0.00899335574489337
689,0.00911676194242663
690,0.00935021434387366
691,0.00962436660626346
692,0.00978596910900456
693,0.00990215102575448
694,0.0100415488097005
695,0.0100351835292926
696,0.0102453465764225
697,0.0102023477995928
698,0.0101000603795356
699,0.0101084200607351
700,0.0102677936223404
701,0.0101528337672567
702,0.0102648459287042
703,0.0102680510098669
704,0.0103829221855438
705,0.0102999927934516
706,0.0104199826968774
707,0.0105174621926491
708,0.0104578955026903
709,0.0105694730256673
710,0.0104098920646696
711,0.0104198063702705
712,0.0104794543737099
713,0.0102161071710415
714,0.0101137415668015
715,0.00980780191469291
716,0.00955165525405344
717,0.00933990498789976
718,0.00926944333818265
719,0.00924342033032172
720,0.00934921111273471
721,0.00919099777629298
722,0.00943295428889705
723,0.00944619333472466
724,0.00941672043037572
725,0.0094224896735853
726,0.00937595869830115
727,0.00944159991194453
728,0.00948501257234783
729,0.00954280863161348
730,0.00963907501574756
731,0.00981313699964105
732,0.00986560152562851
733,0.0100117582984958
734,0.0100906528235089
735,0.0101015512696295
736,0.0101220172495865
737,0.0100877195318482
738,0.01005342181411
739,0.0100191240963717
740,0.01012374088336
741,0.010096662936564
742,0.0100917825264905
743,0.0100869021164171
744,0.0100820217063436
745,0.0100683898481873
746,0.0100166487726898
747,0.0100255342973738
748,0.00982780587458405
749,0.00982638897558411
750,0.00977026648636382
751,0.00973920711578411
752,0.00983662516315345
753,0.0096399907804016
754,0.00953777494213713
755,0.00886058701550804
756,0.00818339908887895
757,0.00750621116224987
758,0.00645634922045585
759,0.00552675843878037
760,0.0048627050653822
761,0.00467988843446384
762,0.00487065681300871
763,0.00527139581081697
764,0.00590014265322057
765,0.00650011435662636
766,0.00720602072915471
767,0.00780466256407459
768,0.0082372679550064
769,0.00842993228652273
770,0.00864987395752662
771,0.00870321932815457
772,0.00875746394488147
773,0.00883444569754779
774,0.00876221251499935
775,0.00876793655336413
776,0.00878168435501236
777,0.00863231191685638
778,0.00870329432811527
779,0.00856914623236926
780,0.00867588753458044
