"wavelength","measurement"
380,0.000685762025745344
381,0.000735490800302654
382,0.000716071361853924
383,0.000702697571749766
384,0.000744614269022559
385,0.000814559074465616
386,0.000850150171062803
387,0.000893770550215234
388,0.000986546635622913
389,0.00104242736686194
390,0.000985084431052967
391,0.00108102789542205
392,0.00109538866022519
393,0.00118596769112924
394,0.00130254993704219
395,0.00136143183718762
396,0.00153786394855158
397,0.00175535819101262
398,0.00197285243347366
399,0.0021903466759347
400,0.00240327895198856
401,0.00265678960411191
402,0.00283193297183865
403,0.00298617426472898
404,0.00308448589589704
405,0.00321755295364777
406,0.00336422048317879
407,0.00354495133576306
408,0.00363495214560538
409,0.00386346532505785
410,0.00406098514688209
411,0.00423878402973649
412,0.00439985108306006
413,0.00459083304665942
414,0.00472482055769953
415,0.00478598311204526
416,0.00481733154288142
417,0.0048202206815457
418,0.00492666155998385
419,0.0048903738394281
420,0.00505350548199975
421,0.00510266112627385
422,0.00524506307869618
423,0.00524609631966083
424,0.00532989432831893
425,0.00527377823057105
426,0.00521177852431669
427,0.00510134384061724
428,0.00491904965980534
429,0.00497270097558108
430,0.00497388103924615
431,0.00521494195193634
432,0.00537377820804129
433,0.00558777481125402
434,0.00581166198222779
435,0.00597062279131172
436,0.00609832586481142
437,0.00620634818596319
438,0.00631437050711496
439,0.00642239282826673
440,0.00647868365073873
441,0.00662729402287095
442,0.00679265456396561
443,0.00692940420818032
444,0.00705439901319703
445,0.00717939381821374
446,0.00730438862323045
447,0.00744715501354131
448,0.0075756850197012
449,0.00788164854008559
450,0.00781511343828715
451,0.00777290545871254
452,0.00779542945804444
453,0.00781795345737634
454,0.00784047745670824
455,0.00786431059402333
456,0.0078199302876364
457,0.00804588302700823
458,0.00808499961287085
459,0.00826849926450186
460,0.0082963241516659
461,0.00826245666568453
462,0.00849692957172161
463,0.00828408814536099
464,0.00825803699321657
465,0.0081902831821327
466,0.00814306356920601
467,0.00810345643256551
468,0.00805111738258387
469,0.00800659559180722
470,0.00823534920536796
471,0.00821690875432535
472,0.00828147041520631
473,0.00839720389471677
474,0.00845005635928418
475,0.00861494746292178
476,0.00839455280706555
477,0.00842137106643382
478,0.00844818932580209
479,0.00847500758517036
480,0.00846019774401977
481,0.00824379067124792
482,0.00815842052053815
483,0.00810680478765035
484,0.00792395859106423
485,0.00780593792919891
486,0.00789504028176987
487,0.00791862166492326
488,0.00806329093111409
489,0.00825787377934242
490,0.00838798386646996
491,0.00847034336977423
492,0.00868773061742019
493,0.00860619051462281
494,0.00874371283209526
495,0.00867900174606442
496,0.00868958304583095
497,0.00856297607875434
498,0.00864667741572878
499,0.0084571941264911
500,0.00852201702872668
501,0.00845768077612305
502,0.00862974218542102
503,0.00868549288054327
504,0.00863665411990966
505,0.0089748068278518
506,0.00886870458743956
507,0.00894132408652368
508,0.00901020094499426
509,0.00899694031850708
510,0.0088384580636327
511,0.00898124996309145
512,0.00889426139350522
513,0.00865401005468799
514,0.00858385840526867
515,0.0084752056485774
516,0.00838376285122586
517,0.00837433963688201
518,0.00835557439855214
519,0.00850682283771599
520,0.00866366709320854
521,0.00875791946352031
522,0.00885217183383207
523,0.00894642420414384
524,0.00888825344718315
525,0.00889991159361285
526,0.00892083035282584
527,0.0088365738157084
528,0.00893124568271325
529,0.00900365668730031
530,0.00903755561194233
531,0.00903919197674256
532,0.00901314136242853
533,0.0090766284951766
534,0.00911132645590315
535,0.00902063847589294
536,0.0091095443176206
537,0.00905479425133932
538,0.00902691484272847
539,0.00896282546988314
540,0.00901097030085251
541,0.00896580050995751
542,0.00890948762881356
543,0.00894816173573389
544,0.00900986793581498
545,0.00892937119049859
546,0.00899609737875526
547,0.00897371260398552
548,0.00895132782921577
549,0.00892894305444603
550,0.0088337889021971
551,0.00891072302606107
552,0.00894370271244373
553,0.00891507390045362
554,0.00886462683094262
555,0.00894394391343481
556,0.00883472735274192
557,0.00882925864855176
558,0.00876801057919042
559,0.00870802412997824
560,0.00880362763589755
561,0.00865519252999277
562,0.00883249803992551
563,0.00866727854253233
564,0.00872936221092387
565,0.00858437182703329
566,0.00861660391819537
567,0.00849142785477934
568,0.0085791637388935
569,0.00846518601774344
570,0.00845515190040527
571,0.00846857924436997
572,0.00846072457799428
573,0.00847815138021921
574,0.0084708141589271
575,0.00841270218566848
576,0.00843085996617527
577,0.00844901774668206
578,0.00846717552718886
579,0.00848533330769565
580,0.00850349108820244
581,0.00860916362810194
582,0.00858229594852981
583,0.00862118785463085
584,0.00847243674778719
585,0.00849907457651734
586,0.0083296191967245
587,0.00820042806719983
588,0.0081450955921445
589,0.00808976311708917
590,0.00803443064203384
591,0.00804486386408268
592,0.0080919229937135
593,0.00811116886331073
594,0.00817280130237298
595,0.00815628598670493
596,0.00816418467036735
597,0.008151175819601
598,0.00812116665351294
599,0.00808494112469369
600,0.00811511154022062
601,0.0081353396676528
602,0.00815361051414645
603,0.00808641715673963
604,0.00814904991800057
605,0.00806995348650329
606,0.00809594194660571
607,0.00806813498285193
608,0.00797442912763183
609,0.00796910538012311
610,0.00792115009330444
611,0.00784184851492168
612,0.00775853375381292
613,0.00772968780751543
614,0.00759561404038297
615,0.00767573032917304
616,0.00758197795074768
617,0.00764266342812696
618,0.00763551776146227
619,0.00763155003104393
620,0.00759004640057482
621,0.00764221546154597
622,0.00747462766392228
623,0.00747200192979536
624,0.00739752330311216
625,0.00732304467642896
626,0.00724856604974576
627,0.00724047778320024
628,0.00718732625954389
629,0.00718135003799191
630,0.00722401572860313
631,0.00712832561208252
632,0.0071361000422772
633,0.00715609712598006
634,0.00717120445044293
635,0.00720725573499613
636,0.00714868838076656
637,0.00718424231895251
638,0.00712612053958137
639,0.00713959543591756
640,0.00708024695354667
641,0.00709749551201178
642,0.00705838939219013
643,0.00703265934520966
644,0.00700692929822919
645,0.00698119925124871
646,0.00702874438816247
647,0.0070160763972017
648,0.0068701432998117
649,0.00702146481484115
650,0.00688719116405601
651,0.0069579926902183
652,0.00684283140520776
653,0.0067135171062518
654,0.00660195250779252
655,0.00666634707081112
656,0.00656079060870301
657,0.00659510456402381
658,0.00667140165377113
659,0.00682179294422549
660,0.00688760043165101
661,0.0068583384196175
662,0.00691555405337081
663,0.00685276191426359
664,0.00679563981270119
665,0.0068188786564366
666,0.00683361694909024
667,0.00684990703456329
668,0.00686767830866182
669,0.00673752459935492
670,0.00675544406595325
671,0.00674762816528929
672,0.00673682363983703
673,0.0067421365781891
674,0.00677083115287936
675,0.00676691104718672
676,0.00674048737388551
677,0.00677622440048451
678,0.00671953354997374
679,0.00665168607071681
680,0.00687493914888575
681,0.00671192377034084
682,0.00654859032485168
683,0.00644449711889374
684,0.0062040071437905
685,0.00601207963317698
686,0.00581353171512433
687,0.0057104238801752
688,0.00564253076222551
689,0.00568672471769768
690,0.00580936406224987
691,0.006002775717227
692,0.00610457928336128
693,0.0061567362676182
694,0.00623012968887379
695,0.0062029409779594
696,0.00634128837064661
697,0.00630167914906654
698,0.00622659575641336
699,0.00621255546978101
700,0.00628952868051158
701,0.00624074835893225
702,0.00629067450983355
703,0.00624391321113904
704,0.00631013069324575
705,0.00625639351729569
706,0.00639096639098148
707,0.00630482308104657
708,0.00630298393281983
709,0.00634041165025844
710,0.00622245565392184
711,0.0062582777229036
712,0.00624883397805702
713,0.00609371606277792
714,0.00600606480690837
715,0.00581988506101634
716,0.00565993345284889
717,0.00549352177261176
718,0.0055020971941418
719,0.00547308752390329
720,0.0054572659687424
721,0.00535878587985226
722,0.00552650500151098
723,0.00548356676730986
724,0.0054896425900137
725,0.00543174819053404
726,0.00538216048454673
727,0.00543917672523903
728,0.00545315849926619
729,0.00543470270322625
730,0.00552098873023641
731,0.00555625849897941
732,0.00560831575282446
733,0.0057164911139604
734,0.00570730975372741
735,0.00571790165092361
736,0.00573832383817713
737,0.00570915570577356
738,0.00567998757337
739,0.00565081944096643
740,0.00568048063667229
741,0.0056644822438576
742,0.00566081197215706
743,0.00565714170045652
744,0.00565347142875598
745,0.00561646302548013
746,0.00564625739496359
747,0.00560657900111944
748,0.00545146087881921
749,0.00550926485274011
750,0.00545438607629875
751,0.00542540685913451
752,0.0054573548147959
753,0.00533728759481474
754,0.00530923032062936
755,0.00494708564310434
756,0.00458494096557931
757,0.00422279628805429
758,0.00362633334323677
759,0.00310646709535361
760,0.00274553805692804
761,0.00264275697089628
762,0.00276255051490531
763,0.00293235635461606
764,0.00325799747394602
765,0.0036118892179369
766,0.00399886208953507
767,0.00433844818699786
768,0.00459152538999874
769,0.00465077525035236
770,0.00477266943752688
771,0.004801289447768
772,0.00485102779530644
773,0.00491837953247672
774,0.00486772301493464
775,0.00480695221232995
776,0.00490686215808213
777,0.00482139203284937
778,0.00483778245994563
779,0.00476300413231231
780,0.00477235046197602
