"wavelength","measurement"
380,0.00185682105020749
381,0.00184139545292035
382,0.00188224343178984
383,0.00182509571161415
384,0.00190362941514241
385,0.00207613453917691
386,0.0021685572249845
387,0.0023832501700028
388,0.002500027525328
389,0.00262887049616954
390,0.00262936984556067
391,0.00267516668873843
392,0.00274817880595309
393,0.00282891370469167
394,0.00301706297466065
395,0.00315737855170641
396,0.0035969261815354
397,0.00406125915677201
398,0.00452559213200862
399,0.00498992510724522
400,0.0053435236809157
401,0.00574694866274489
402,0.00602254414749992
403,0.00621706308707227
404,0.00636449935636505
405,0.00642667418073231
406,0.00674579456701819
407,0.00690728425491737
408,0.00709137888950154
409,0.00735379767723728
410,0.00779582139206377
411,0.00799906433211917
412,0.0083385713410977
413,0.0086594846647938
414,0.00877948199148444
415,0.00897461519032699
416,0.00901096669515323
417,0.00905378317086211
418,0.00930165510453677
419,0.0091925438939332
420,0.00953240811803719
421,0.00959176274846502
422,0.00979206913230607
423,0.00994655383911879
424,0.0100258620313421
425,0.00995497621295196
426,0.00986460275484442
427,0.00967572149356264
428,0.00940324549285474
429,0.0094908999772251
430,0.00951379338296322
431,0.00990798305599865
432,0.0103194009033481
433,0.0107223629251361
434,0.0112269810588678
435,0.0115080907953756
436,0.0116706209012867
437,0.0119038726434973
438,0.0121371243857079
439,0.0123703761279185
440,0.0124560497712007
441,0.0127348207943618
442,0.0130763816183568
443,0.0132786506305494
444,0.0135215904133539
445,0.0137645301961583
446,0.0140074699789628
447,0.0142876088256927
448,0.0143870012683509
449,0.0150164084511997
450,0.0149462336526604
451,0.0148678539102735
452,0.0148649203762765
453,0.0148619868422796
454,0.0148590533082826
455,0.0149108597562867
456,0.0149416142354652
457,0.0151964252772792
458,0.0153286548767226
459,0.0156204390041277
460,0.0156675705908162
461,0.0155853091361769
462,0.0160593472642901
463,0.0156195042669678
464,0.0154973297231753
465,0.0153944257243583
466,0.0152349400264737
467,0.0152262634210567
468,0.0151204181139848
469,0.0150363814488411
470,0.0154007795520713
471,0.0153806908535508
472,0.0155157231013277
473,0.0157158288626663
474,0.0158168104216272
475,0.0160437424463357
476,0.0157147779512858
477,0.0157336314564675
478,0.0157524849616491
479,0.0157713384668308
480,0.0157584492701458
481,0.0153324842218026
482,0.0151158845542912
483,0.0150778815741852
484,0.0147385907123419
485,0.0144697160159311
486,0.0145922402518503
487,0.014743535264484
488,0.0149366274616032
489,0.0153437930613449
490,0.0155341874159982
491,0.0156537314872431
492,0.0160732167719887
493,0.0159266999117946
494,0.016194801982505
495,0.015985101266854
496,0.0161007362025139
497,0.0158343836601361
498,0.0159366318873681
499,0.0156684342422186
500,0.0157528107885656
501,0.0156623497826708
502,0.0159711917703853
503,0.0160553660528302
504,0.0159606404755993
505,0.0165114157435989
506,0.0164223095812423
507,0.0164972815902347
508,0.0165961259447548
509,0.0165746078986389
510,0.0163045343508289
511,0.0165347976063119
512,0.0163919440313794
513,0.0159533050212371
514,0.0158257034168594
515,0.0156024202701972
516,0.0154988654804998
517,0.0154530846715826
518,0.0154253686689667
519,0.0157370141576253
520,0.0160169438543228
521,0.0161974112113648
522,0.0163778785684067
523,0.0165583459254487
524,0.0164567301299964
525,0.0164684270152789
526,0.016489087020281
527,0.0164092944209585
528,0.0165194469718581
529,0.0167119221725493
530,0.0167347637018678
531,0.016763521637535
532,0.0166831486640651
533,0.0168618443719469
534,0.0169164586864308
535,0.0166841997321724
536,0.0169014664587854
537,0.0167993524275987
538,0.0166819377501408
539,0.0165945193740541
540,0.0166893867411749
541,0.0165924651822537
542,0.0165152014104972
543,0.0166051147673648
544,0.0166557263377996
545,0.0165194127846511
546,0.0166544621253422
547,0.0166092518217917
548,0.0165640415182411
549,0.0165188312146905
550,0.0164312303511505
551,0.0165665196057647
552,0.0166402310530998
553,0.0165120149572574
554,0.0164267281089214
555,0.0166059796627732
556,0.0164171246367818
557,0.016368470689921
558,0.0162718105635593
559,0.0161373449342821
560,0.0163291147306033
561,0.0160504970473448
562,0.0163256982209011
563,0.0160758012117635
564,0.0161545087504518
565,0.0159286687706448
566,0.0158867972159288
567,0.0156924364127184
568,0.0158314619622877
569,0.0156251060282355
570,0.0156297338883856
571,0.0156605913290447
572,0.0156692096601
573,0.0156284380867273
574,0.0157137796405197
575,0.0155133382190737
576,0.0155554689913491
577,0.0155975997636245
578,0.0156397305359
579,0.0156818613081754
580,0.0157239920804508
581,0.0158822302240634
582,0.0158340671150001
583,0.0159016637250741
584,0.015654861556864
585,0.0156707823174352
586,0.0152935437657639
587,0.0151741390801595
588,0.0150510953907025
589,0.0149280517012454
590,0.0148050080117884
591,0.0148707982849895
592,0.0149715468081511
593,0.0149429823629603
594,0.0150846530411687
595,0.0149931721865835
596,0.0150481000820232
597,0.0150309631868768
598,0.014950451884283
599,0.0149149425240605
600,0.0149641021910431
601,0.0150126775564046
602,0.0150560064638685
603,0.0149351206781849
604,0.0150518980391545
605,0.014943917432977
606,0.014939918254405
607,0.0148602507233469
608,0.0146746774772719
609,0.0146343954082807
610,0.0145400795765451
611,0.0144323284883209
612,0.0142809268841891
613,0.0142056189408969
614,0.0140137085489907
615,0.0141393755909365
616,0.0139749361638193
617,0.0141072787341525
618,0.0140562211022564
619,0.0140972896979292
620,0.013996024740477
621,0.0141109330834465
622,0.013776229625668
623,0.0137717012112633
624,0.0136471511911346
625,0.0135226011710059
626,0.0133980511508772
627,0.0133649361517349
628,0.0132998667758014
629,0.0132265599278792
630,0.0133506944065117
631,0.0131275658751724
632,0.0131938009627211
633,0.0132302553954228
634,0.0132626130467453
635,0.0133072321630882
636,0.0131412929039486
637,0.0132675797100899
638,0.0131152947059828
639,0.0131867327924856
640,0.0130844436957124
641,0.0130629495444157
642,0.0129612848264434
643,0.0129039687253184
644,0.0128466526241934
645,0.0127893365230685
646,0.0128810796215868
647,0.0128677306899548
648,0.0126202100085926
649,0.012818642142777
650,0.012617485502383
651,0.0127076371828223
652,0.0125201407290413
653,0.0122512870047179
654,0.0120069454981736
655,0.0120784753399249
656,0.0119169518142179
657,0.0119956163880614
658,0.0120709417985168
659,0.0123578266479778
660,0.0124117699518125
661,0.0124228286653806
662,0.0124208362791604
663,0.0123308854250483
664,0.0122210637746595
665,0.0122457397630873
666,0.0122300873694636
667,0.0122377512382275
668,0.0122436609183834
669,0.0119952388883331
670,0.0120160545351601
671,0.0119514986031225
672,0.0119086448293787
673,0.0118982429807529
674,0.011935152254901
675,0.0118899481877719
676,0.0118408464399585
677,0.0119121255977861
678,0.0117305063725029
679,0.0116843312050031
680,0.0119540347755456
681,0.0116999546475525
682,0.0114055300931686
683,0.0111315037245162
684,0.0107194709497268
685,0.0103478928584138
686,0.0100526568584816
687,0.00982354164192227
688,0.00971417990003511
689,0.00985871352020491
690,0.0100733787967129
691,0.0104320911060782
692,0.0105443925286836
693,0.010650409179696
694,0.0108447191648957
695,0.0107997918356683
696,0.0109853315129795
697,0.0109514881830819
698,0.0108569237671552
699,0.0108495476428833
700,0.0109762345179671
701,0.010901377771673
702,0.0110273540260864
703,0.0109770675623957
704,0.0111626344132278
705,0.0110615083102505
706,0.0112013460922701
707,0.0112688842159697
708,0.0112020578179218
709,0.0112960827939588
710,0.011134651696223
711,0.0111528811120018
712,0.0112267123279819
713,0.0109194826583608
714,0.0108101056784452
715,0.0104680766101586
716,0.0101684805958564
717,0.00993942107142564
718,0.00989746480991046
719,0.00988623987870085
720,0.00995457146195194
721,0.0098001585996032
722,0.0100687763780467
723,0.0100460329312874
724,0.0100003401934198
725,0.010030511113985
726,0.00994621181493972
727,0.0100382481907617
728,0.010068055166209
729,0.0101744186279558
730,0.0102501144775908
731,0.0103964793618276
732,0.0104720137266705
733,0.0106431903639657
734,0.010716809898029
735,0.0107306944867579
736,0.0107185478466141
737,0.0106864888246887
738,0.0106544298027634
739,0.0106223707808381
740,0.0107518570912275
741,0.0106930204654434
742,0.010691746905953
743,0.0106904733464625
744,0.010689199786972
745,0.0106938510403807
746,0.0106287855322727
747,0.0106013667680935
748,0.0104298553309246
749,0.0104647598968568
750,0.010415657302284
751,0.0103299270026351
752,0.010398546698276
753,0.01021619686866
754,0.0100903424718166
755,0.00936837150942113
756,0.00864640054702564
757,0.00792442958463014
758,0.00680535635690174
759,0.00577877222748394
760,0.00509478607758358
761,0.00492837331182484
762,0.0051539280012258
763,0.00556953277011934
764,0.00619072204346033
765,0.00684550375286603
766,0.00755066253963412
767,0.00829137383727649
768,0.00870465283492859
769,0.00890453886859686
770,0.00910844565478863
771,0.00918079561995091
772,0.00928747316885753
773,0.00936191977910658
774,0.0092804701166206
775,0.00925244323027814
776,0.00928516662770986
777,0.00912083235440486
778,0.00917047438498311
779,0.0090676797493876
780,0.00912511899382737
