"wavelength","measurement"
380,0.020394792794943
381,0.0193927290408631
382,0.0190040344654482
383,0.0184740322007954
384,0.0184949680134137
385,0.019320902616567
386,0.0200544679218615
387,0.0208158087822679
388,0.0215956508527934
389,0.0221374879864506
390,0.0217622526095658
391,0.0214261507792781
392,0.0215102203426748
393,0.0214687324216137
394,0.0215220452493669
395,0.0228090001000654
396,0.0252800127775286
397,0.0278018769934105
398,0.0303237412092925
399,0.0328456054251744
400,0.0341647108404648
401,0.0358576180671756
402,0.0369645895831748
403,0.037050843955771
404,0.036851260633105
405,0.0366582195842239
406,0.0368834112533682
407,0.0368874513940189
408,0.0366624481720642
409,0.0372372967487428
410,0.0386007985322648
411,0.03854739546639
412,0.039213735807381
413,0.0397309951175837
414,0.0393509166505946
415,0.0394446571560339
416,0.038609437626931
417,0.038089368393938
418,0.0384517086235948
419,0.0374223360224472
420,0.0380818512763344
421,0.0376320214468701
422,0.0378513053356352
423,0.0378196564612323
424,0.0378841186893218
425,0.0370203893040156
426,0.0364077260817793
427,0.0352196373151907
428,0.0338699734582794
429,0.0337163513194015
430,0.0335487438321991
431,0.0347445649663745
432,0.035764698447738
433,0.0370195272497808
434,0.0383649288523917
435,0.0391584791308623
436,0.0394606850680534
437,0.0399442055247282
438,0.0404277259814029
439,0.0409112464380777
440,0.0410361724813339
441,0.0416336719738011
442,0.0423630991434091
443,0.0426657225087568
444,0.0432438821079613
445,0.0438220417071657
446,0.0444002013063701
447,0.045016399174898
448,0.0450925284471227
449,0.0466570462441819
450,0.046321789167629
451,0.0458198819027344
452,0.0455898229785849
453,0.0453597640544354
454,0.0451297051302859
455,0.0450294900431512
456,0.0448114727045474
457,0.0453681315152048
458,0.0455021871565345
459,0.0461404560729746
460,0.0461190366266047
461,0.0455060173239536
462,0.0466025657107333
463,0.0452167239378094
464,0.0446281000372922
465,0.0440476754563569
466,0.0434183870182402
467,0.043098374375051
468,0.0426273272133662
469,0.0422634026299859
470,0.0430943056123589
471,0.0428471758635215
472,0.043019139242318
473,0.0434181229003256
474,0.0434095558023213
475,0.0439477110578249
476,0.0428070772876016
477,0.0427228905846039
478,0.0426387038816062
479,0.0425545171786085
480,0.0422790802998225
481,0.0411449059867717
482,0.0403770365415902
483,0.0401472837478517
484,0.0391610298657108
485,0.0381917818278383
486,0.038486968923628
487,0.0387171636930411
488,0.0390497130268176
489,0.040165757021865
490,0.0404431463269016
491,0.0407731195525292
492,0.0417433157669891
493,0.0411218801202048
494,0.0417048026707042
495,0.0410580315046617
496,0.0411593154990314
497,0.0404850062238974
498,0.0406459299560843
499,0.039696686754833
500,0.0399779542534015
501,0.0395563772982841
502,0.0402591865962957
503,0.0404514865841949
504,0.0400937126576573
505,0.0413566760911809
506,0.0410651254757212
507,0.0412168184436608
508,0.0414400847734625
509,0.0412468070281686
510,0.0405153831031261
511,0.0411003223189174
512,0.0406255583880557
513,0.0394619402141994
514,0.0391898491478834
515,0.0385295295042765
516,0.0382337533698631
517,0.0381191023658793
518,0.0380248820414219
519,0.0387194590154918
520,0.0395397299849162
521,0.0399334874428613
522,0.0403272449008064
523,0.0407210023587515
524,0.0404499841928875
525,0.0405292102653999
526,0.0405974728205267
527,0.0403460425140785
528,0.0406073006319794
529,0.0409841096804768
530,0.0410876466854602
531,0.0410864801539522
532,0.0409510279710391
533,0.0413807056289033
534,0.0414797140793021
535,0.0410441942861701
536,0.0414591559241381
537,0.0411790689301056
538,0.0408569453453343
539,0.0406191294943715
540,0.0408733818262797
541,0.0405362939685291
542,0.0402296059412866
543,0.0404966676112255
544,0.0406551468583052
545,0.0403187193989494
546,0.0406236755290076
547,0.0405442647012292
548,0.0404648538734509
549,0.0403854430456726
550,0.0401286333168217
551,0.040417052286347
552,0.0407423849331246
553,0.0403935995071434
554,0.0402077548370343
555,0.0406310328729139
556,0.0400594581585332
557,0.0399675867305909
558,0.0397499116767877
559,0.0394067170943848
560,0.0398511460507744
561,0.039115751702506
562,0.0398212727299471
563,0.0391832564166465
564,0.0393303600837399
565,0.038765767925591
566,0.0385256611016266
567,0.0381263691357662
568,0.0383346160918462
569,0.0378611531892543
570,0.0378643451101199
571,0.0378242254118906
572,0.0378360431005568
573,0.0377076723592709
574,0.0379599729247443
575,0.0374511708207438
576,0.03755679984985
577,0.0376624288789561
578,0.0377680579080622
579,0.0378736869371684
580,0.0379793159662745
581,0.0384671952330167
582,0.0382820387200754
583,0.0385879409658717
584,0.0380045508533592
585,0.0380258817405172
586,0.037094073387409
587,0.0367539680937964
588,0.0364564325532735
589,0.0361588970127507
590,0.0358613614722279
591,0.0359886126893458
592,0.036280482068169
593,0.036260899795939
594,0.0366610456919975
595,0.0364649824834952
596,0.0366444489096973
597,0.0366742294470775
598,0.036534043249232
599,0.0364259675395913
600,0.036611854206096
601,0.0367580400199819
602,0.0369735239131203
603,0.0366887153998307
604,0.0370336675339436
605,0.0367372552891349
606,0.0368484619322739
607,0.0366234563305874
608,0.0361625721428495
609,0.0360827691248165
610,0.0358601790178096
611,0.0355785100593204
612,0.0353470047170023
613,0.035089930349749
614,0.0347566227192637
615,0.035237289388153
616,0.0347701794519943
617,0.0351058971206557
618,0.0349891493967867
619,0.0350852113707431
620,0.0350170461953569
621,0.0351675327766413
622,0.0344519944349437
623,0.0345097227790191
624,0.0342142283451615
625,0.0339187339113038
626,0.0336232394774462
627,0.0335687801914118
628,0.0335168503218378
629,0.0334055283475028
630,0.0337307169833965
631,0.0333479132135816
632,0.0336315685103612
633,0.0337686258526131
634,0.0338325860549229
635,0.034044379353317
636,0.0337621019984619
637,0.0340522835915608
638,0.0338668141274594
639,0.0340285763997308
640,0.0338405430032288
641,0.0337772344302838
642,0.0336210307620698
643,0.0335040095053814
644,0.0333869882486929
645,0.0332699669920045
646,0.0334371682625052
647,0.0335096597562257
648,0.0328992746363181
649,0.0335175759082182
650,0.0330735526980796
651,0.0333198011574993
652,0.0329728469980115
653,0.0324182782549582
654,0.0318479999566482
655,0.0321046152914284
656,0.0316160805842452
657,0.0319191670853936
658,0.0322239055703379
659,0.0330278949481724
660,0.0331712095488924
661,0.0331790472300733
662,0.0332459741281684
663,0.033113214844561
664,0.0327934901098395
665,0.0328904064231378
666,0.032874730683696
667,0.0330304060982256
668,0.0329995218918515
669,0.0324057304973031
670,0.0325155957065387
671,0.0324397414918876
672,0.0322406829695177
673,0.03237618171297
674,0.0324457802164456
675,0.0324546366520079
676,0.032387246605167
677,0.032669592899116
678,0.0322884695812402
679,0.0323102497467907
680,0.0330923958801174
681,0.0325620102619825
682,0.031779998019638
683,0.0311513910618052
684,0.0299711559033612
685,0.0290417024729553
686,0.0283147880573463
687,0.02775401705336
688,0.0277228408452746
689,0.0282034848560484
690,0.0291217080903203
691,0.0301933800946121
692,0.0308392068238066
693,0.0315099243404319
694,0.0321945899615217
695,0.0324733793222757
696,0.0330956054006728
697,0.0334967140996082
698,0.0333069838035571
699,0.0336104933080821
700,0.0343850160786518
701,0.0343332866763156
702,0.0349301572393191
703,0.0351635054129543
704,0.0359468944920656
705,0.0357579118744348
706,0.036584590784862
707,0.0370282708649397
708,0.0371011608903171
709,0.0376588225741466
710,0.0373529053418048
711,0.0375120201475044
712,0.0378687798124734
713,0.0369869677338712
714,0.0368076982337437
715,0.0357657878683442
716,0.0349671485875583
717,0.034432946115515
718,0.0343172978197227
719,0.0346723098436793
720,0.0350020671814072
721,0.0346875988395874
722,0.0359140464124734
723,0.0359197805027511
724,0.0357814477939999
725,0.0361662630701296
726,0.036077505980904
727,0.0365970238570152
728,0.0368506655325896
729,0.0374827638185937
730,0.0380569948797399
731,0.0387092615096355
732,0.0392751653621363
733,0.0401432951722215
734,0.0405244380338638
735,0.0406208474006714
736,0.0409756125423935
737,0.0410553078652459
738,0.0411350031880982
739,0.0412146985109505
740,0.0416561934363083
741,0.0416215117006814
742,0.0417912934526586
743,0.0419610752046358
744,0.0421308569566131
745,0.0421589398194759
746,0.0421627323071026
747,0.0423086263343686
748,0.0417168394177147
749,0.0420500875157874
750,0.0418739269243264
751,0.0418420138452508
752,0.04236452483729
753,0.0421382088256335
754,0.0414708909813522
755,0.038587470062171
756,0.0357040491429897
757,0.0328206282238085
758,0.0282543559289962
759,0.0240222092934199
760,0.0212419648481634
761,0.0205876352018517
762,0.021431751782952
763,0.0234654390012444
764,0.0262637558017159
765,0.0290951695767565
766,0.0324413162963655
767,0.0356620679542983
768,0.0374699903954115
769,0.0386788315721092
770,0.0397655000308573
771,0.040255096485711
772,0.0407253339890894
773,0.0413293833058881
774,0.041093130057483
775,0.0411641553270921
776,0.041425779780909
777,0.0410240549151493
778,0.0414685335535993
779,0.0412034101127523
780,0.0418570596189473
