"wavelength","measurement"
380,0.0324357184633735
381,0.0309058722076138
382,0.0310036483226806
383,0.0303438830025234
384,0.0306266880625469
385,0.0319772781908602
386,0.0334750772604588
387,0.0348869009568909
388,0.0366825130046041
389,0.0376788030958906
390,0.0369265554303387
391,0.0374544318051318
392,0.037770371592124
393,0.038351583593238
394,0.0393320934230975
395,0.0423730206120352
396,0.0477914348873357
397,0.053438239102704
398,0.0590850433180723
399,0.0647318475334405
400,0.0676338156253766
401,0.0717833149541747
402,0.0748348883746294
403,0.0764749173785106
404,0.076762574158445
405,0.0777847347554587
406,0.0796812760773963
407,0.0808848201555124
408,0.08195011203228
409,0.0843111091944247
410,0.0882903301674162
411,0.0890701456113322
412,0.0916273294249522
413,0.0931273974773897
414,0.0935293166076708
415,0.0937922851908415
416,0.0933534580855354
417,0.0921755082185115
418,0.0936661937104032
419,0.0920525010584373
420,0.093950992922641
421,0.093593512532557
422,0.094260310169662
423,0.0942819482955894
424,0.0945007522665471
425,0.092196705136715
426,0.0905995479687968
427,0.0882021106626993
428,0.0853941268477382
429,0.0854196587125437
430,0.0852873419952173
431,0.0889421504809052
432,0.0922862094657745
433,0.0952608071431745
434,0.098370617607831
435,0.100444513415854
436,0.101746187222694
437,0.103029713930765
438,0.104313240638837
439,0.105596767346908
440,0.106365331270597
441,0.107971548111545
442,0.109923691108091
443,0.110696672518155
444,0.112494921981019
445,0.114293171443884
446,0.116091420906748
447,0.117255804038204
448,0.117593765102008
449,0.121508841590545
450,0.120133701096129
451,0.119082218887957
452,0.118544904618389
453,0.11800759034882
454,0.117470276079252
455,0.117459088543685
456,0.117538228273032
457,0.118564727245401
458,0.119540837305488
459,0.12090360687147
460,0.12107449075867
461,0.119861112907546
462,0.12249166056387
463,0.119009610575462
464,0.117442299735843
465,0.116595777175559
466,0.115085599763422
467,0.114787357102347
468,0.114348838747452
469,0.113492181511935
470,0.116238552787736
471,0.116235480602028
472,0.117170144093982
473,0.118609415810542
474,0.118852195905084
475,0.120582422531078
476,0.117812429696598
477,0.117955198800074
478,0.118097967903551
479,0.118240737007027
480,0.117631551167656
481,0.114675579788749
482,0.112091956768313
483,0.112075152625454
484,0.109491399812427
485,0.107316719005297
486,0.109029456092403
487,0.109931369507038
488,0.111309984915189
489,0.114021971612909
490,0.114682592846881
491,0.11560421221731
492,0.118028763740546
493,0.116280029939688
494,0.118004433275779
495,0.116016969051388
496,0.116291624639293
497,0.113923565607482
498,0.114576296587298
499,0.111937483412457
500,0.11277668329078
501,0.111963656490862
502,0.113984184570397
503,0.114559168680621
504,0.11324141034557
505,0.116778680549487
506,0.115740708853976
507,0.115920523672276
508,0.116503695138268
509,0.115789278628278
510,0.113503485650753
511,0.114850632916203
512,0.113113161619819
513,0.10972009189831
514,0.108882877232029
515,0.107038623761914
516,0.106110191518771
517,0.105973087995797
518,0.105642929945906
519,0.107782330674451
520,0.109432103502716
521,0.110287006745405
522,0.111141909988093
523,0.111996813230782
524,0.111069738771439
525,0.110802142758068
526,0.110967322196129
527,0.110317960059015
528,0.110809098826217
529,0.111634073116374
530,0.111467027681744
531,0.111512428431637
532,0.111073820153314
533,0.112025043492421
534,0.112419974521791
535,0.110918246845296
536,0.111889858461956
537,0.110885407073119
538,0.110029747079818
539,0.109332538842298
540,0.109849674150965
541,0.109093507258483
542,0.10841666966901
543,0.108937220290509
544,0.109324513637902
545,0.108413705285932
546,0.109257997999279
547,0.108981030217815
548,0.10870406243635
549,0.108427094654886
550,0.107803477009906
551,0.10882188295411
552,0.109326478318736
553,0.108405828705445
554,0.107831356772275
555,0.108632336364206
556,0.106881697829265
557,0.106700355499373
558,0.106019775397492
559,0.105187639729848
560,0.106258637164361
561,0.104136587601343
562,0.105753739624355
563,0.103912841893913
564,0.104296933770249
565,0.102750231860952
566,0.102118262946807
567,0.100943885545557
568,0.101772193162089
569,0.100726975422364
570,0.100614142267826
571,0.100834434915668
572,0.100975470870424
573,0.100701314934718
574,0.101202667309331
575,0.0999860315748589
576,0.100417642931922
577,0.100849254288985
578,0.101280865646048
579,0.101712477003111
580,0.102144088360174
581,0.103694569333169
582,0.103202761943956
583,0.104030877226884
584,0.10237749663404
585,0.102451336259975
586,0.100106880624412
587,0.0995761982887172
588,0.0990919179309612
589,0.0986076375732053
590,0.0981233572154493
591,0.0986834932964076
592,0.0995466971498814
593,0.0993965610853385
594,0.100697652452514
595,0.100655818588856
596,0.100746692520625
597,0.100961111756652
598,0.100610121836012
599,0.100379522168396
600,0.100953202487834
601,0.101672544299465
602,0.102010703462226
603,0.101224125770601
604,0.102432010174142
605,0.101633287219897
606,0.101634922940478
607,0.101211627072434
608,0.0998265069253541
609,0.0998949943966767
610,0.0991467960902373
611,0.0985083660192392
612,0.0979482558398439
613,0.0971370070862999
614,0.0967041950744543
615,0.0979214640605451
616,0.0968255355479857
617,0.0979609006367323
618,0.0977148647254614
619,0.0979178984023656
620,0.09746016108674
621,0.0982155865001249
622,0.0963277817288632
623,0.0962963354234962
624,0.095691438903677
625,0.0950865423838578
626,0.0944816458640387
627,0.0945409841350506
628,0.094238109838366
629,0.0941414125150744
630,0.0950793758056625
631,0.0939858930613412
632,0.0947175593394394
633,0.0952975244738621
634,0.0954345838318761
635,0.0961418479702474
636,0.0952401751725519
637,0.0963492686448445
638,0.0956936950436924
639,0.0961254660201817
640,0.0957332492397095
641,0.0957508820643146
642,0.0953779159481744
643,0.0951961036370355
644,0.0950142913258966
645,0.0948324790147577
646,0.0955254051629576
647,0.0955827549646462
648,0.0942453269847935
649,0.0958507229259136
650,0.0948552503335957
651,0.0951580696925825
652,0.0940406592026642
653,0.0926788026301396
654,0.090906192190676
655,0.0919478056349919
656,0.0912711511400704
657,0.0923383262330748
658,0.0931662099855092
659,0.0949869515021831
660,0.0957795893439498
661,0.0957036574579829
662,0.0960319569849759
663,0.0957375987119893
664,0.0946890280196378
665,0.0951831531659466
666,0.095392377914225
667,0.0955900634941997
668,0.0959443899987197
669,0.0940284272566431
670,0.0946823922474329
671,0.0944611407051767
672,0.0939191072082505
673,0.0941503707606562
674,0.0947136408482357
675,0.0943774401890627
676,0.0945101611567593
677,0.0951213169407444
678,0.0941570659642222
679,0.0941119962108708
680,0.0962794432680995
681,0.0945193144844354
682,0.0918610025578708
683,0.089918957440286
684,0.0863237369585492
685,0.0837361392288298
686,0.0819237317011131
687,0.0808622019283085
688,0.081119329638191
689,0.0826672634513212
690,0.0849322317045907
691,0.0877447987176289
692,0.0892212517187072
693,0.0907425472037097
694,0.092767095391015
695,0.0931660821345508
696,0.0946187579886951
697,0.0955777838070781
698,0.0949386956081758
699,0.0957477528661643
700,0.0978362794189865
701,0.0976118652922265
702,0.0994352616684296
703,0.0999582345263837
704,0.101721726181714
705,0.101913899136831
706,0.103559642385119
707,0.104906349904003
708,0.105009287834927
709,0.106510998001454
710,0.106043784608902
711,0.106347176603816
712,0.107342412980593
713,0.104565574084424
714,0.104232195110632
715,0.101618926943762
716,0.0997457469471529
717,0.0986867627801759
718,0.0986716960838656
719,0.100183380539799
720,0.101446399335075
721,0.100947641369914
722,0.103717345313314
723,0.10388460794766
724,0.104052802067863
725,0.105402713516063
726,0.105443046438894
727,0.107019202373572
728,0.108316137302281
729,0.110247022274269
730,0.111745623713285
731,0.113788503426281
732,0.11561793617624
733,0.117867560068426
734,0.119055652799915
735,0.119387516717059
736,0.120535817632972
737,0.120835797424742
738,0.121135777216513
739,0.121435757008283
740,0.123085033014484
741,0.123508449564909
742,0.124066094621568
743,0.124623739678227
744,0.125181384734886
745,0.125800828354327
746,0.125614075918374
747,0.12627693563421
748,0.125158409923596
749,0.125501790079054
750,0.12562710202467
751,0.125372926562369
752,0.127012074829192
753,0.126088673870197
754,0.122882653855388
755,0.113300599590024
756,0.10371854532466
757,0.0941364910592956
758,0.0804649420692264
759,0.0692800104164707
760,0.0639017843609523
761,0.0640126699598119
762,0.0671388667952982
763,0.0745988495621739
764,0.0830636168619355
765,0.0916326756763666
766,0.100795339166328
767,0.109882891250662
768,0.11478274315313
769,0.117993546569338
770,0.121235678129804
771,0.122808727621956
772,0.123309893402627
773,0.125263263203025
774,0.124821213041765
775,0.124998059866448
776,0.125093861224869
777,0.124356826666466
778,0.126079030754118
779,0.124416121890658
780,0.12637436323734
