"wavelength","measurement"
380,0.0012644285084943
381,0.00125988059197218
382,0.00129688253389327
383,0.00121101808888231
384,0.00130188978970847
385,0.00136634748219884
386,0.00152576536015275
387,0.00160186856267373
388,0.00172553722309444
389,0.00173121310269075
390,0.00174961598410233
391,0.00179666341263497
392,0.00182031609714498
393,0.00190026761259562
394,0.00191302209885953
395,0.00210546340002134
396,0.00237530567641485
397,0.00269687244657083
398,0.00301843921672681
399,0.00334000598688279
400,0.00352152069822871
401,0.00380179281621191
402,0.00398156579377493
403,0.00419165876216095
404,0.00428189494338745
405,0.0043723062221002
406,0.00450951456163886
407,0.00463855262789141
408,0.00478317653867078
409,0.00495537545555119
410,0.00525488993106803
411,0.00540860943675526
412,0.0055818783442968
413,0.00580002564687268
414,0.005867548451433
415,0.00598212871299763
416,0.00597845340038428
417,0.00602701042889423
418,0.00615497811412532
419,0.00606279525111638
420,0.00629135516755852
421,0.00624749734095709
422,0.00639973977677763
423,0.00637849509600451
424,0.00653413458193354
425,0.00641774638581845
426,0.00639837417796696
427,0.00623132726393574
428,0.0060739846283181
429,0.00607009535792837
430,0.00611552563106969
431,0.0064055315565814
432,0.00665275448342589
433,0.00690524018775133
434,0.00721981457307626
435,0.00742480704293711
436,0.00743915521050055
437,0.00759007372895853
438,0.0077409922474165
439,0.00789191076587447
440,0.007966161688012
441,0.0081082325928941
442,0.00840160006122111
443,0.00841011721639204
444,0.008621782225929
445,0.00883344723546596
446,0.00904511224500292
447,0.00926360288485245
448,0.00933368529044066
449,0.00967777087159354
450,0.00966176710124983
451,0.00964137852538056
452,0.00963460401517614
453,0.00962782950497172
454,0.00962105499476729
455,0.00967346878964212
456,0.00968210740326032
457,0.00983340381285177
458,0.00987606351264225
459,0.0100246274694445
460,0.0100408886042423
461,0.00998538499965879
462,0.0102973582438254
463,0.0100094635045095
464,0.00986621339392722
465,0.00984391467846642
466,0.00973978831201157
467,0.00976850086826904
468,0.00968159874031782
469,0.00961723183686662
470,0.00983187498609345
471,0.00981515375638376
472,0.00989647116973589
473,0.010014462778939
474,0.0101165413743132
475,0.0102215416832708
476,0.010070536125499
477,0.0100906797508982
478,0.0101108233762974
479,0.0101309670016967
480,0.0101076784889492
481,0.00987845352956664
482,0.00972967417610674
483,0.00968673148621798
484,0.00948021312772582
485,0.0093065658896531
486,0.00945300349479297
487,0.00951553384375527
488,0.00961822636020216
489,0.00987902764952487
490,0.00999086940856941
491,0.01002034287396
492,0.0103110833357742
493,0.0102001804174737
494,0.0103531695320627
495,0.0102317242859334
496,0.0102668750062417
497,0.0101258553831519
498,0.0102017343979033
499,0.0100045500950943
500,0.0101025545695233
501,0.0100149461206811
502,0.0102503266292513
503,0.0103351554713905
504,0.010260834413979
505,0.0106178965756683
506,0.0105892412118658
507,0.0106575133856017
508,0.0107748407793445
509,0.0108034920606521
510,0.0106640780687925
511,0.010859251308677
512,0.0107676766634599
513,0.0105384583412465
514,0.0105127398598152
515,0.0103842330396755
516,0.0103628925588936
517,0.0103889568432412
518,0.0104097031105708
519,0.010646495639765
520,0.010917307384497
521,0.0110774135320687
522,0.0112375196796404
523,0.0113976258272122
524,0.011414012243213
525,0.0114746921288945
526,0.0115578463790314
527,0.0115305214459363
528,0.0116703080446176
529,0.0118347380834822
530,0.0118839759438305
531,0.0119042665417056
532,0.0118993550162839
533,0.0120529603292624
534,0.0120930371110742
535,0.01201154978966
536,0.0121522523150305
537,0.012147578829861
538,0.0121083815474048
539,0.0121234090592049
540,0.0122906409555082
541,0.0123468311771899
542,0.0124136958926137
543,0.0125274159189392
544,0.012597372431982
545,0.0124920063436932
546,0.0125295922662222
547,0.0124312137488892
548,0.0123328352315561
549,0.0122344567142231
550,0.0120676612569331
551,0.0121665613792458
552,0.0122171527983513
553,0.0120677062816168
554,0.0120025348287673
555,0.0121207458133641
556,0.0119498108681923
557,0.0118696131690928
558,0.0118114668849375
559,0.0117117382544358
560,0.011839264041206
561,0.0116259505436607
562,0.0118142050157864
563,0.0116558611545408
564,0.0116505924972548
565,0.0114809006520191
566,0.0114462934261088
567,0.0112716961337513
568,0.0113502778985474
569,0.0112241590674069
570,0.0111889489082725
571,0.0111904796967057
572,0.0111648645721018
573,0.0111544354032132
574,0.0112207359767053
575,0.0110513880844799
576,0.0110631122953862
577,0.0110748365062926
578,0.0110865607171989
579,0.0110982849281052
580,0.0111100091390115
581,0.0111779969059959
582,0.0111019587567878
583,0.0111348112150136
584,0.0109492571274924
585,0.0108871573658272
586,0.0105693587221398
587,0.0104588470467574
588,0.0103402310070535
589,0.0102216149673497
590,0.0101029989276459
591,0.010119266994927
592,0.0102113971442062
593,0.0101695779406795
594,0.0103137817759008
595,0.0102232042737108
596,0.0102708482764788
597,0.0103144252003385
598,0.0102805161783495
599,0.010247211855239
600,0.0102943862180912
601,0.0102998981294222
602,0.0103617298970589
603,0.0102584754789812
604,0.0103253673759138
605,0.0102016972469875
606,0.0102924845141274
607,0.0102900844291064
608,0.0102034993743189
609,0.0102466956426623
610,0.0102448038421947
611,0.0101818211186935
612,0.0100470546059871
613,0.00993200438635671
614,0.00968087960522128
615,0.00969882248466029
616,0.00956012073155253
617,0.00956816215630139
618,0.00953488291992289
619,0.00950371218616917
620,0.00944358517771383
621,0.00950495535973033
622,0.00926685561382356
623,0.00923128102467734
624,0.00915285217975163
625,0.00907442333482593
626,0.00899599448990022
627,0.00899414840192535
628,0.00893470742657798
629,0.00889218744415528
630,0.00893500467758147
631,0.00880757089284936
632,0.00878968947027277
633,0.00880207747144353
634,0.00871645907065541
635,0.00870954172032655
636,0.00866973817674943
637,0.00869974595866366
638,0.00858815243870984
639,0.00859172687070948
640,0.00848346480492026
641,0.00843010162685975
642,0.00834145534702281
643,0.00826973301612683
644,0.00819801068523085
645,0.00812628835433487
646,0.00808590888972253
647,0.00805253347072172
648,0.00786716071352929
649,0.00799274611191845
650,0.00790409744431495
651,0.00789681506179477
652,0.0077588525791343
653,0.00762565067667921
654,0.00741785286927472
655,0.0074650032940825
656,0.00735359606817347
657,0.00738581907241169
658,0.00743677119955199
659,0.00758381155399667
660,0.00759144289084366
661,0.00757230772875073
662,0.0075573918680898
663,0.00746517575468326
664,0.00739444409727343
665,0.0073785365605969
666,0.00735823582892792
667,0.00732700685209633
668,0.00732842353615277
669,0.00714495505660238
670,0.00715630015782075
671,0.00708966764797127
672,0.00703817473464759
673,0.00704342145500776
674,0.00703672027284161
675,0.00702236720832906
676,0.00695338357895068
677,0.0069898939258894
678,0.00688105285507332
679,0.00682059195679009
680,0.00700105321835737
681,0.00687328828655373
682,0.00670888886674576
683,0.00661803899236477
684,0.0064173979704389
685,0.00632509079596289
686,0.00621465023542688
687,0.00614530171416356
688,0.00614097991152654
689,0.00618479450567175
690,0.00635205489453497
691,0.00653900561978972
692,0.00664860798657278
693,0.00676334504993218
694,0.00689499346562335
695,0.0069708231288441
696,0.00715269004232989
697,0.00725789114983802
698,0.00728980149027802
699,0.00739523833025017
700,0.00760726809853095
701,0.00762396982525856
702,0.00781204156403441
703,0.00793225336877929
704,0.00821525568416546
705,0.00819249747217015
706,0.00842677860431669
707,0.00860873831283802
708,0.00870480955466436
709,0.00882424413680011
710,0.00881812371597047
711,0.00890927599891825
712,0.00901782552703112
713,0.00878208523878234
714,0.00867065902919218
715,0.00835905580784542
716,0.00814716643078914
717,0.00796725539016592
718,0.0079861251438392
719,0.00803203815662787
720,0.00819194411441278
721,0.00812755206829515
722,0.00840128698242151
723,0.00841508936550492
724,0.00849155664689823
725,0.00849259762587869
726,0.00851429297555163
727,0.00865232807011666
728,0.00876657829147952
729,0.00894590389671083
730,0.00915364341010046
731,0.00942497498641095
732,0.0095974821007377
733,0.00983106245317051
734,0.0100109341971963
735,0.0100661367281882
736,0.0101754461696378
737,0.0102070633848088
738,0.0102386805999797
739,0.0102702978151507
740,0.0104163078897715
741,0.0104310936003354
742,0.0104818847471636
743,0.0105326758939918
744,0.01058346704082
745,0.010589005496721
746,0.0105682933863762
747,0.010551695351797
748,0.0103960532303863
749,0.0104217845622404
750,0.0104587916767192
751,0.0103073736568967
752,0.010493810488306
753,0.0102170857359094
754,0.0101319757026172
755,0.00952678448838527
756,0.00892159327415332
757,0.00831640205992138
758,0.00731844611948473
759,0.00647465221110434
760,0.00590640117826611
761,0.00581005671657035
762,0.00602094782594964
763,0.00641295477762095
764,0.00689942854499298
765,0.00738366935307546
766,0.00803185226457594
767,0.00863232876701457
768,0.00888177167662551
769,0.00911036955312076
770,0.00925752255976312
771,0.00934823417250101
772,0.00940447287666831
773,0.00946466719372822
774,0.00936815323925697
775,0.00933544281677664
776,0.00938136791865068
777,0.00922353796475641
778,0.00930127071011613
779,0.00910718440405425
780,0.00927194292600506
