"wavelength","measurement"
380,0.00139973920371785
381,0.00147340943488774
382,0.00149471607188033
383,0.00143576224316001
384,0.00153919150171009
385,0.00162805267821669
386,0.00174076563790537
387,0.001842610191534
388,0.00194905518167461
389,0.00206804906080502
390,0.00210425805545302
391,0.00208643973158579
392,0.00206950752814239
393,0.00214980281631538
394,0.00230190130579368
395,0.00245650571114567
396,0.00271741427602854
397,0.00307752592403398
398,0.00343763757203943
399,0.00379774922004487
400,0.00404878484817096
401,0.00440886916825298
402,0.00453791705737097
403,0.00477644900739922
404,0.00489381914770415
405,0.00494310031930512
406,0.00516552925982282
407,0.00527749364580471
408,0.00546602740554948
409,0.00562228139909151
410,0.00602783990609383
411,0.00610504480025455
412,0.00641777157203955
413,0.00656367733613133
414,0.00667318530033894
415,0.0068195722024437
416,0.00680719527964815
417,0.00680744019767503
418,0.00699087134186806
419,0.00687392370503917
420,0.00709032676699426
421,0.00709012150722526
422,0.00723221169956072
423,0.00733422705683006
424,0.00737208606674001
425,0.00723979673999003
426,0.0071845583079855
427,0.00705341265227011
428,0.00685790686520171
429,0.00687582417151163
430,0.00688244535082581
431,0.00718556719103085
432,0.00747583396612934
433,0.00780784065107543
434,0.00812184025716714
435,0.00838204109349215
436,0.0083972957700177
437,0.00856353443591101
438,0.00872977310180432
439,0.00889601176769762
440,0.00899052995300736
441,0.00918443390173262
442,0.00943403494219815
443,0.009548727506965
444,0.00976197197334094
445,0.00997521643971687
446,0.0101884609060928
447,0.0103544353359248
448,0.0105447637467382
449,0.0108895368733358
450,0.0108875029754034
451,0.0108745285042339
452,0.010852972496847
453,0.01083141648946
454,0.0108098604820731
455,0.0109016789515425
456,0.0108771226959201
457,0.0110204619712886
458,0.0110686351724477
459,0.011264066080518
460,0.0112505635043933
461,0.0111776325934584
462,0.0115566612251991
463,0.011183405748253
464,0.0111329118681017
465,0.011027587660924
466,0.0109072404770988
467,0.0109026607253505
468,0.0108277501344307
469,0.0107437991339816
470,0.0110082258285286
471,0.0110085925117182
472,0.0111118829140432
473,0.0112412803328686
474,0.0112978495507827
475,0.011486055996359
476,0.0112375021915775
477,0.0112669481170751
478,0.0112963940425726
479,0.0113258399680701
480,0.0113013668626935
481,0.0110636942908089
482,0.0108945600887698
483,0.0108383044170221
484,0.0105836797737532
485,0.0104211427445543
486,0.0105059771537038
487,0.0106263751810493
488,0.010720668256968
489,0.0110011061945328
490,0.0111082402379528
491,0.0112230394068109
492,0.0114740598865654
493,0.0113965313875898
494,0.0115411604750837
495,0.0114516663854161
496,0.0114808087468064
497,0.0113205203341838
498,0.0114155104847354
499,0.011187615453791
500,0.0112684126802037
501,0.0112091381105154
502,0.0114079101086086
503,0.0115055067134484
504,0.0114752060815786
505,0.0118239476296059
506,0.0118420409767722
507,0.0118796188446364
508,0.0119962411758532
509,0.012018949787298
510,0.0118868798318127
511,0.0120716523046198
512,0.0120338332029288
513,0.0117211328500646
514,0.0116856091823233
515,0.011559620442634
516,0.01150619742728
517,0.0115624370739629
518,0.0115708972983303
519,0.0118315261960306
520,0.0120710568126642
521,0.012266296386484
522,0.0124615359603039
523,0.0126567755341237
524,0.0126512787361937
525,0.0127242556130134
526,0.0128159231647075
527,0.0127404043614287
528,0.0129131449694815
529,0.0131046388990989
530,0.013116512824835
531,0.0131935587664248
532,0.0131782420946555
533,0.0133290096404483
534,0.0133936804045364
535,0.013288545023241
536,0.0134047499102828
537,0.0133900982576246
538,0.0133589785393259
539,0.0133768569561228
540,0.0135185314306731
541,0.0135493963319303
542,0.0135920699579497
543,0.0137064468748275
544,0.0138059984968845
545,0.0136743764932221
546,0.0137562434078785
547,0.0136447533551225
548,0.0135332633023665
549,0.0134217732496105
550,0.0132871128781367
551,0.0133666566255097
552,0.0134659104967261
553,0.0133016751840252
554,0.0132345680936817
555,0.0133365845365304
556,0.0131444758192242
557,0.0130996571504516
558,0.0130368217625708
559,0.0129043668447558
560,0.0130524752021633
561,0.0127903810122076
562,0.0130075561857139
563,0.0128165079335067
564,0.0128506264337338
565,0.012652898499728
566,0.0125909558683032
567,0.0124399102918792
568,0.012491121616998
569,0.0123420904433949
570,0.0123259476273572
571,0.0123047237270604
572,0.0122767503653739
573,0.0122692312216318
574,0.0123651597486658
575,0.0121751438900313
576,0.0121817583682951
577,0.012188372846559
578,0.0121949873248228
579,0.0122016018030867
580,0.0122082162813505
581,0.0123414814521476
582,0.0121906103312267
583,0.0122297163875099
584,0.0120103368158181
585,0.0119749681203592
586,0.0116477102527194
587,0.011490874655592
588,0.0113615556791568
589,0.0112322367027216
590,0.0111029177262864
591,0.0111255313563023
592,0.0111844710156112
593,0.0111509899428278
594,0.0113638651163818
595,0.0112051242712196
596,0.0113042947689063
597,0.0113091326672644
598,0.011276046948101
599,0.0112544090011984
600,0.0113038211711986
601,0.0113170756325055
602,0.0113779395813953
603,0.0112738925153845
604,0.0113364533139426
605,0.0112422118817573
606,0.0112751927802989
607,0.0112631583005115
608,0.0111698291693874
609,0.0112386660656206
610,0.0111654447097188
611,0.0111157662095359
612,0.010983281296681
613,0.0108410095325653
614,0.010598862255644
615,0.0106157847650918
616,0.0104203495646211
617,0.0104809225268337
618,0.0104393248664285
619,0.0104315153503481
620,0.0103638888414212
621,0.0103855992563454
622,0.0101684860687655
623,0.0101408773723829
624,0.0100423929290185
625,0.00994390848565414
626,0.00984542404228974
627,0.00984456985904877
628,0.00981368829527823
629,0.00973688300529823
630,0.00980106231948371
631,0.00961328218935123
632,0.00961092528015956
633,0.00964581397238019
634,0.00957943808550275
635,0.0095871474981374
636,0.00949382051236265
637,0.00951327863200769
638,0.00938525846897718
639,0.00938592068619517
640,0.00930154754015624
641,0.00924388391861364
642,0.00914345302226927
643,0.0090515641514191
644,0.00895967528056894
645,0.00886778640971877
646,0.00886944794045066
647,0.00884127071535336
648,0.00864272949222341
649,0.00877694205319883
650,0.00861143719098167
651,0.00865702136010685
652,0.00850928434602886
653,0.00829339634530884
654,0.00813419639577766
655,0.00819656040577563
656,0.0080371563768486
657,0.0080776999947487
658,0.00813734935280083
659,0.00827303425923223
660,0.00828674840259308
661,0.00827372232263611
662,0.00827997147556879
663,0.00817772683306452
664,0.00808318070350031
665,0.00808473331770268
666,0.00806269401570541
667,0.00800347274280712
668,0.00799547399561459
669,0.00786227953966335
670,0.00782031578293116
671,0.00772967173376164
672,0.00771721563632321
673,0.00771884507937565
674,0.00768006793154295
675,0.0076640178997704
676,0.00758617500647731
677,0.00763901565254504
678,0.00751458437928882
679,0.00754560205931242
680,0.00767975253694583
681,0.0074951446760205
682,0.00734457499197265
683,0.00723425488162285
684,0.00701393341875146
685,0.00686441545644452
686,0.0067753282181271
687,0.00669609568368753
688,0.00667474289866576
689,0.00675543094914413
690,0.00691302190907818
691,0.00713502869347153
692,0.00724488943720514
693,0.00736365542928503
694,0.00748791163662818
695,0.00757556532978949
696,0.00775618853049634
697,0.00789117743491399
698,0.00786280711900887
699,0.00798585957395728
700,0.00822150893686192
701,0.00826944361971402
702,0.00851456958740586
703,0.00857900153090612
704,0.00884125048411143
705,0.00889156039787846
706,0.00912807495790267
707,0.00933289445764242
708,0.00937066885259142
709,0.00952162542269465
710,0.00950075342969657
711,0.00960677552511221
712,0.00970116687218883
713,0.00942907864004869
714,0.00933143837351515
715,0.00900914097397771
716,0.00871649785169772
717,0.00853113899876114
718,0.00852454767462906
719,0.00866287205030878
720,0.00874373217830583
721,0.00870530920535396
722,0.00904162389275834
723,0.00904265632350595
724,0.00907774935346556
725,0.00908534938461028
726,0.00912136494832235
727,0.00927046207978733
728,0.00942232585417223
729,0.00957175418073531
730,0.0097775974700641
731,0.0100217162604299
732,0.0102649792457751
733,0.0105826810023295
734,0.0107005378989521
735,0.0107436098510792
736,0.0108325994781124
737,0.0108874881359145
738,0.0109423767937166
739,0.0109972654515187
740,0.0111262489230252
741,0.0111462240689519
742,0.0111853094261389
743,0.0112243947833259
744,0.0112634801405129
745,0.0112893734449931
746,0.0112499158679222
747,0.0112904651217539
748,0.011102412020495
749,0.0111438912085217
750,0.0111680145096357
751,0.0110306977403349
752,0.0111682181219531
753,0.0109160172835073
754,0.0108488797757247
755,0.0101862456723334
756,0.00952361156894203
757,0.00886097746555068
758,0.00779251089323512
759,0.00690881307344051
760,0.0063061059415014
761,0.00622902151079772
762,0.00636577595244966
763,0.00679438922496289
764,0.00735729001845446
765,0.0078621571898777
766,0.00856998576352281
767,0.00915571726269852
768,0.00942370638223476
769,0.00964599810942837
770,0.00984423092541397
771,0.00993201718555917
772,0.0100111726114594
773,0.0100600727902909
774,0.00991767284110957
775,0.00997087932359367
776,0.00993567406299404
777,0.00979555825765888
778,0.00988939795935986
779,0.00973057353814294
780,0.00978930992496001
