"wavelength","measurement"
380,0.00226837448460979
381,0.00232052871224214
382,0.00230065483378991
383,0.00225518555032886
384,0.00236979313645362
385,0.00249576206607609
386,0.00272879710215268
387,0.00302247317102439
388,0.00315345631111318
389,0.00331222749578835
390,0.00327175798475861
391,0.00348372720043053
392,0.00348697145451795
393,0.00369236635171454
394,0.00371492462122541
395,0.004161540996892
396,0.00468222837808968
397,0.00532753116006903
398,0.00597283394204838
399,0.00661813672402772
400,0.00709540240832794
401,0.00756906373526267
402,0.00805209270514384
403,0.00845489987222144
404,0.00874840819654968
405,0.00871498773498814
406,0.0091900845326743
407,0.00943336469317818
408,0.00966613981739923
409,0.010062856492535
410,0.0106558434457079
411,0.0108321562858559
412,0.0113722342245691
413,0.011667920458292
414,0.0118324505418971
415,0.0120316189110682
416,0.0119956734148881
417,0.0121363687268516
418,0.0122663251252991
419,0.0121880376925617
420,0.0125050972077935
421,0.0125355678703615
422,0.0127374671453356
423,0.0129229225766872
424,0.0130522090935871
425,0.0128956441876746
426,0.0128034425073124
427,0.0125535387933096
428,0.0122115229185452
429,0.0122708959855314
430,0.0122921482149149
431,0.0127958308803757
432,0.0133528272682182
433,0.0138396135000144
434,0.0144717924693671
435,0.0148349590180217
436,0.0150458586223339
437,0.0153176095583125
438,0.0155893604942911
439,0.0158611114302697
440,0.0159946501705209
441,0.0163582061699494
442,0.0168433909257848
443,0.0169881002086897
444,0.0173837639579689
445,0.017779427707248
446,0.0181750914565271
447,0.0184474802199066
448,0.0186646932568608
449,0.0193649104730376
450,0.0193918986101615
451,0.0193316177982789
452,0.0193619242215293
453,0.0193922306447797
454,0.0194225370680302
455,0.0196892885745448
456,0.0196231556851868
457,0.0199735728198689
458,0.0202112357495196
459,0.0205589686020249
460,0.0206443326228058
461,0.0205477709517192
462,0.0211523997050497
463,0.0206258233340797
464,0.020490747040702
465,0.0203691412079298
466,0.0201494050644959
467,0.0203191909235464
468,0.0201342297837802
469,0.02000403109453
470,0.0205547588686312
471,0.0205139066478846
472,0.0207604551866015
473,0.021002440846682
474,0.0211564553403505
475,0.0214894343859054
476,0.0211829966510077
477,0.0212227799783762
478,0.0212625633057448
479,0.0213023466331133
480,0.0213602990992037
481,0.0208151334790582
482,0.0205735542501961
483,0.0204475275469619
484,0.0199167873028853
485,0.0195618979687944
486,0.0198045400708288
487,0.0200103579564791
488,0.0201781445491242
489,0.0208147481520148
490,0.0210258670930353
491,0.0211787686346164
492,0.0217082532907109
493,0.0215409189959009
494,0.0219524390371796
495,0.0217348496147233
496,0.0218529649169113
497,0.0215640629851386
498,0.0217219289209117
499,0.0213211253185697
500,0.0214953670229192
501,0.0214279968338075
502,0.0218688630518095
503,0.0220569640039078
504,0.0219815628111672
505,0.0227587026221008
506,0.0227074617592561
507,0.0229010579538759
508,0.0230916023542586
509,0.0231472130225912
510,0.0229115921435441
511,0.0232648026181834
512,0.0231968354436125
513,0.0226122704342762
514,0.0226192519706506
515,0.0223181836082376
516,0.0222958589219557
517,0.0223608515888505
518,0.0224081092013558
519,0.0229171193049239
520,0.0235072290026344
521,0.0238932736298417
522,0.0242793182570491
523,0.0246653628842565
524,0.0246877342057638
525,0.0248472437546438
526,0.0250528854269528
527,0.0250065617991092
528,0.0252552870160647
529,0.0257202173896396
530,0.0257702639434695
531,0.0259277262431067
532,0.0259364308838257
533,0.0262511360149196
534,0.0263355734439126
535,0.0261223183094721
536,0.026416666439359
537,0.0262965561552214
538,0.0262070722745518
539,0.0260766711772356
540,0.0263832986296448
541,0.0262786779037192
542,0.0261735199764022
543,0.026356769640004
544,0.0265756509095013
545,0.0263696130022324
546,0.0265569870542705
547,0.0265111687952823
548,0.026465350536294
549,0.0264195322773058
550,0.0262923001077535
551,0.0264756961727712
552,0.0267103070845447
553,0.0264907039602033
554,0.0263740119764146
555,0.0266789722058566
556,0.026242273497732
557,0.0262081123387809
558,0.0260553881437449
559,0.0258139146323247
560,0.0261363876139006
561,0.025643742429078
562,0.0261380864178725
563,0.0256792144195237
564,0.0258490571752559
565,0.0254223190464203
566,0.0253314696322244
567,0.024941664337675
568,0.0251780893192958
569,0.0248621689977994
570,0.0247802975097791
571,0.0248531243443677
572,0.0248048820925167
573,0.0246895249858576
574,0.0248446637482778
575,0.0245083966452526
576,0.0245049074450489
577,0.0245014182448451
578,0.0244979290446413
579,0.0244944398444376
580,0.0244909506442338
581,0.0247111824001199
582,0.0244798779673406
583,0.0245887611341777
584,0.0241405351447795
585,0.024082647710743
586,0.0233401430354124
587,0.0230232864143887
588,0.0227976191843462
589,0.0225719519543037
590,0.0223462847242612
591,0.0223920259900306
592,0.0225960674181288
593,0.0225525228013205
594,0.0229126655707698
595,0.0227936696520186
596,0.0228439770120924
597,0.0228774758356107
598,0.0228300645781737
599,0.0227997047226642
600,0.0228649236877518
601,0.0229592965164276
602,0.0230163011989599
603,0.0228420911110786
604,0.0230630128575234
605,0.0227561167310732
606,0.0228521444659598
607,0.0227315382806391
608,0.0223715313555924
609,0.0223914228009672
610,0.0221749990504454
611,0.0219451736057766
612,0.0218062722624233
613,0.0215715873888435
614,0.0211982918624798
615,0.0214477191839588
616,0.0210895358295181
617,0.0212239860211755
618,0.0211355422966346
619,0.0211523629090529
620,0.0210820721629491
621,0.0211948378255218
622,0.0207362457389148
623,0.020694584407951
624,0.0205250206033203
625,0.0203554567986896
626,0.0201858929940589
627,0.0201476957349485
628,0.020100661185333
629,0.019958633572269
630,0.0201158253937605
631,0.0197898730801514
632,0.0198247825894976
633,0.0198286022731963
634,0.0198074995932633
635,0.0198451904083723
636,0.0195512754964288
637,0.0196751080262496
638,0.0194430178872667
639,0.0194599362078544
640,0.0192909500382827
641,0.019128084920134
642,0.0189589445878678
643,0.018762196096741
644,0.0185654476056142
645,0.0183686991144874
646,0.0184157385197837
647,0.0183042417679878
648,0.0179212498205048
649,0.0181315522889981
650,0.0178464370770197
651,0.0179152968380393
652,0.0176447304902573
653,0.0173096774720298
654,0.0169072011581824
655,0.0170160354483491
656,0.0167080666786301
657,0.016829105439585
658,0.0169109295342164
659,0.0172412227357494
660,0.0172549397610948
661,0.0172793190960067
662,0.0172377556480998
663,0.0170725122790792
664,0.0169013353687318
665,0.0169099349228323
666,0.0168130053481559
667,0.0167254673063301
668,0.016747197189246
669,0.0163105405496355
670,0.0163625508084789
671,0.0162399955866812
672,0.0161010087551318
673,0.0161334780884866
674,0.0160673343234566
675,0.0161053348992766
676,0.0159659310496625
677,0.0160036330525327
678,0.0158100357789434
679,0.0156812871815094
680,0.0160351988061056
681,0.0157961206021193
682,0.0154094888358033
683,0.0151721696382216
684,0.014799549216037
685,0.0144256623632793
686,0.0142813413668095
687,0.0140962570746468
688,0.0140972592480209
689,0.0142357768605194
690,0.0145206531566742
691,0.0150241585020701
692,0.0151364271021077
693,0.0154788563448687
694,0.0158415908633216
695,0.0160355588102254
696,0.0164398142782879
697,0.0167229399572618
698,0.0167929679007601
699,0.0170035218904142
700,0.0175245903814425
701,0.0175406129913229
702,0.0180982865000618
703,0.0182790287931971
704,0.0187345580426607
705,0.0189354009835288
706,0.0194227755908142
707,0.0197905007541953
708,0.020034771109189
709,0.0203899070602169
710,0.0202823121563962
711,0.0205461132054594
712,0.0208326375742197
713,0.020226944907832
714,0.0201028715744228
715,0.0193238360850446
716,0.0187627585277861
717,0.0184030630885818
718,0.0183006797372084
719,0.0184944486500654
720,0.0189451790903048
721,0.0187954192344912
722,0.0194179934474861
723,0.0194321796331983
724,0.0194958797565259
725,0.0196443677215973
726,0.0196143217375644
727,0.0200155915585865
728,0.0202879896029696
729,0.0206439560082323
730,0.0210733158704007
731,0.0216722471161076
732,0.0221910683040295
733,0.022726562618637
734,0.0230957879354787
735,0.0233002310163119
736,0.0234948217002071
737,0.0235889161974009
738,0.0236830106945948
739,0.0237771051917886
740,0.0240388228942091
741,0.0240760007223972
742,0.0241956050393102
743,0.0243152093562232
744,0.0244348136731361
745,0.0243697440134978
746,0.0243094454532104
747,0.0243890100092719
748,0.024016229791464
749,0.0240879020970839
750,0.0241152900085416
751,0.0238143967602538
752,0.0239986059690508
753,0.0237377438018384
754,0.0234041011372612
755,0.0220112137606406
756,0.02061832638402
757,0.0192254390073994
758,0.0169459013856366
759,0.0149991644372208
760,0.0137041823895661
761,0.0133625337432633
762,0.0138456975265228
763,0.0146875430896476
764,0.0159094550325094
765,0.0170198324476897
766,0.0183798603162464
767,0.0198184461995667
768,0.0204753263573388
769,0.0209787621053157
770,0.0214243664936383
771,0.0213634181320093
772,0.0216711528249346
773,0.0218010485645503
774,0.021553507256286
775,0.0215538808811635
776,0.0215459329614205
777,0.0212354570971123
778,0.0213757304005107
779,0.0211578535740593
780,0.0212534449718337
