"wavelength","measurement"
380,0.00226837448460979
381,0.00228512025723489
382,0.00232963372713663
383,0.00230088463969291
384,0.00241832757077821
385,0.00259270584597701
386,0.00289794210754884
387,0.00297406382544806
388,0.00328646734676218
389,0.0034436540739594
390,0.00344317960537309
391,0.00349671558212478
392,0.00361975316079514
393,0.00380246112868245
394,0.00393708223813384
395,0.00433411343399045
396,0.00482199420614468
397,0.00549138352153884
398,0.00616077283693299
399,0.00683016215232715
400,0.00725885170605336
401,0.00788122270654363
402,0.0083572091798978
403,0.00868571363050941
404,0.00888298701117687
405,0.0089146293772099
406,0.00943546696050953
407,0.00967447325544788
408,0.00994984109845121
409,0.0103012673074673
410,0.0109650378136551
411,0.0111530089251409
412,0.0116905850888889
413,0.0119601590464127
414,0.0120880402115903
415,0.0123593013960081
416,0.0123265248147839
417,0.0124294099677736
418,0.0126907929443922
419,0.0125873209770052
420,0.0129342350068216
421,0.0129545317845312
422,0.0131377407157028
423,0.0133779120503555
424,0.0134252237408962
425,0.013265690062025
426,0.0131435337960797
427,0.0128826889862291
428,0.0124741988658273
429,0.0125484095431695
430,0.0126621190360163
431,0.0131614903092872
432,0.0136646735176285
433,0.014196637635671
434,0.0148032463800671
435,0.0152530723287032
436,0.0152783986053478
437,0.0156341674839072
438,0.0159899363624666
439,0.016345705241026
440,0.0164610894342799
441,0.0167674798757539
442,0.0172970878157211
443,0.0175218122012625
444,0.0178908459459122
445,0.018259879690562
446,0.0186289134352117
447,0.0189176888246131
448,0.0191897741258037
449,0.0199135497229027
450,0.0199505449598873
451,0.0198450987706332
452,0.0198828410250302
453,0.0199205832794271
454,0.0199583255338241
455,0.0202107835660376
456,0.0201446506766796
457,0.0205237548309625
458,0.0206622057047439
459,0.0211193661942264
460,0.0213066983929633
461,0.0210121670992566
462,0.0216684324878686
463,0.0211493614417941
464,0.0210405120893014
465,0.0209065224704516
466,0.0207497810206409
467,0.0206650300402962
468,0.0207026830913695
469,0.0204710290880312
470,0.0210341489874599
471,0.0210834107009593
472,0.0211922406974677
473,0.0214963579388086
474,0.0217919562170068
475,0.0221361432144057
476,0.0216678406392605
477,0.0217428156011394
478,0.0218177905630182
479,0.021892765524897
480,0.0218862889463839
481,0.0213786332722165
482,0.0209664997047279
483,0.0209799052595533
484,0.0205134773105817
485,0.0200948427503778
486,0.0202651376900441
487,0.0204667734418776
488,0.020697704834644
489,0.0213229420399428
490,0.0214536706120819
491,0.0217214369815646
492,0.0223008737444639
493,0.0220864101789348
494,0.0224849168207695
495,0.0222480804095811
496,0.0224308749338691
497,0.0220604151382313
498,0.0222614116744042
499,0.0218823776838842
500,0.0220442731287805
501,0.0219600326371537
502,0.0223643187355397
503,0.0225778835871586
504,0.0224932591840464
505,0.0232781044618727
506,0.02323480464973
507,0.0234355955321872
508,0.0236346543067014
509,0.02374876481297
510,0.0233825512807402
511,0.0238113570555775
512,0.0237972614352569
513,0.0231817494696012
514,0.0231845863987833
515,0.0228513618888178
516,0.022853104277701
517,0.0228469360405235
518,0.0229421964601734
519,0.0235408951962433
520,0.0240605966071836
521,0.0244537031891677
522,0.0248468097711518
523,0.0252399163531359
524,0.0252803546595168
525,0.0253966335369984
526,0.0256833327181794
527,0.0254906552548725
528,0.0258218556531803
529,0.0263011295365556
530,0.0263124486139243
531,0.0265293530867344
532,0.0264642053304811
533,0.0268275449668982
534,0.0269029760060166
535,0.0266987272614507
536,0.0270590805541691
537,0.0268597995164458
538,0.0267553862936714
539,0.026666606392526
540,0.0268527817196114
541,0.0268249988421165
542,0.0267435494022196
543,0.0268930668000408
544,0.0271083121565887
545,0.0269598442608936
546,0.0271646431755643
547,0.0271273142729579
548,0.0270899853703515
549,0.0270526564677452
550,0.0268359775039377
551,0.0270101586978336
552,0.0272725726687201
553,0.0270343813563874
554,0.026971135625105
555,0.0271717801777486
556,0.0268935689136685
557,0.0267668525050679
558,0.026620405680382
559,0.0263477517136458
560,0.0267390652030137
561,0.0262543756625804
562,0.0266889272297069
563,0.0262430144256778
564,0.0263944441176662
565,0.025996926720424
566,0.025838679488666
567,0.0255450924592776
568,0.0256598477850916
569,0.0253802865930892
570,0.0253549051837828
571,0.0254250801369083
572,0.0253624651878823
573,0.025267384967316
574,0.0254150475922153
575,0.0249911391425347
576,0.0249965646004569
577,0.0250019900583791
578,0.0250074155163012
579,0.0250128409742234
580,0.0250182664321456
581,0.0252695785723492
582,0.0250181598688498
583,0.0251764280734996
584,0.0246196750861118
585,0.0245599863741003
586,0.0238895328177671
587,0.0236367466536018
588,0.0233721267873513
589,0.0231075069211009
590,0.0228428870548505
591,0.0228987104737295
592,0.0230570194554641
593,0.0230386009985562
594,0.023373409126858
595,0.023219471751093
596,0.0233549395309818
597,0.0233596512639007
598,0.023331770529692
599,0.0232940054202854
600,0.0233993862128141
601,0.0234366268405351
602,0.0235268050591056
603,0.0233048861226383
604,0.0235813806303098
605,0.0233798926223927
606,0.0234098734981983
607,0.0232429427797723
608,0.0228742213385969
609,0.0227970856115719
610,0.0225981159110573
611,0.0224404729285714
612,0.0222339256749721
613,0.0220344157574027
614,0.0217468894160954
615,0.0218875812583376
616,0.0215733457507853
617,0.0216224041084435
618,0.0216380321376419
619,0.0216237390087432
620,0.0215248863317869
621,0.0215879292169265
622,0.0211508732431448
623,0.0210731863526823
624,0.0209341080658774
625,0.0207950297790725
626,0.0206559514922675
627,0.0206452675033368
628,0.0205360367432743
629,0.0204113297522192
630,0.0205580891721059
631,0.0202166091752129
632,0.020235207111786
633,0.0203316091476964
634,0.0202306331323749
635,0.0202454744028019
636,0.0200022704694027
637,0.0200629498598523
638,0.0199020435578788
639,0.0198673502609348
640,0.019639514004932
641,0.0195602915631194
642,0.0193510978136605
643,0.0191655239173782
644,0.018979950021096
645,0.0187943761248137
646,0.0188360367139348
647,0.0187297936895657
648,0.0182571548058303
649,0.0185509498441617
650,0.0182603307272599
651,0.0183662918110132
652,0.018018996025049
653,0.0177442357834825
654,0.0172461082734661
655,0.0174125250840815
656,0.0171276143402916
657,0.0172286805977745
658,0.0173183852835462
659,0.0176264710626382
660,0.0176591432029698
661,0.0176039160584896
662,0.0176285328976617
663,0.0174459855851319
664,0.0172369067840619
665,0.0172087636031738
666,0.0171764131795987
667,0.0171548552828547
668,0.0171214627240377
669,0.0166520328323832
670,0.0167466900151331
671,0.0166186308884121
672,0.0164698537774989
673,0.0164202982489952
674,0.0164215231141527
675,0.0163663200636447
676,0.0163168800417787
677,0.0163396631266065
678,0.0160452026256708
679,0.0160352883390831
680,0.0164660044551105
681,0.0161040057078347
682,0.0157519317930378
683,0.0154989181271746
684,0.0150679896698013
685,0.0147552128401933
686,0.0145848483663359
687,0.0144124981087459
688,0.0143988232023243
689,0.0145482985891703
690,0.0148979374999238
691,0.0153420507076463
692,0.0155313739766115
693,0.0158640462970084
694,0.0161490256495432
695,0.0163284416053996
696,0.0167270680797905
697,0.0170475035627451
698,0.0170880105616542
699,0.017291038378288
700,0.0178020955998307
701,0.0179142530823733
702,0.0184268216733024
703,0.0186429203011332
704,0.0191172128628356
705,0.0193008269134435
706,0.0197631837710771
707,0.0201882829736597
708,0.0203203070252154
709,0.0207106346107536
710,0.0207444942330894
711,0.0209109887448818
712,0.0212220638653004
713,0.020587467358815
714,0.0204840753651179
715,0.0197169149675745
716,0.0191359316208429
717,0.0186699774596173
718,0.0186496940233514
719,0.0188855594696226
720,0.0192113679466004
721,0.0191575094644523
722,0.0197340176610882
723,0.0197963379971306
724,0.0198398216939271
725,0.0199803060639223
726,0.0199851848584034
727,0.0203425318502867
728,0.0206437586815186
729,0.0209169496924333
730,0.021457596844303
731,0.0219629700455619
732,0.0225192177869629
733,0.0230776033425019
734,0.0235335151618872
735,0.0236189571468765
736,0.0239831681734112
737,0.024016905959695
738,0.0240506437459787
739,0.0240843815322625
740,0.0244541675739291
741,0.0244735911391143
742,0.0245728171090609
743,0.0246720430790074
744,0.024771269048954
745,0.0248739183829817
746,0.0247716483780283
747,0.0248061309492172
748,0.0243411936809417
749,0.0245201754540683
750,0.0244282203604368
751,0.0242126793347112
752,0.0245823534609273
753,0.0241588759209779
754,0.0238771033906788
755,0.0224202400686985
756,0.0209633767467182
757,0.0195065134247379
758,0.0172341558971252
759,0.0152456309675409
760,0.0138450990341051
761,0.0135611413184994
762,0.0140321297969284
763,0.0148552766770009
764,0.0160837119980845
765,0.0172466934015327
766,0.018690680837921
767,0.0200441063014264
768,0.0209256458510721
769,0.0212620881201229
770,0.0217315177453639
771,0.0216559590179383
772,0.0220074497550047
773,0.0220952573004561
774,0.0219355699897191
775,0.0219032287373019
776,0.0218846149169573
777,0.0216025508770038
778,0.0216840491472201
779,0.0213598468847483
780,0.0216394354919622
