"wavelength","measurement"
380,0.00173504657093741
381,0.00175609847289265
382,0.00179137319644542
383,0.00181198769266813
384,0.00180419683028877
385,0.00198569254136714
386,0.00208793248200856
387,0.00225631265511824
388,0.00239878880581828
389,0.0025362781658515
390,0.00254056241752939
391,0.00258291467298246
392,0.00264951184111125
393,0.00275713182883308
394,0.0029151213288071
395,0.00310464139726415
396,0.00349319687215451
397,0.00396126830452928
398,0.00442933973690404
399,0.00489741116927881
400,0.00520393771447903
401,0.00564600840770002
402,0.00600323398427822
403,0.00621754349609646
404,0.00637641164159995
405,0.00653469210012668
406,0.00679411665664131
407,0.00701142151402588
408,0.00719319822258935
409,0.00751987743510596
410,0.00803448952891555
411,0.00822613480575541
412,0.00855833528114752
413,0.00893813687870855
414,0.00905457409692158
415,0.00925586478797983
416,0.0093237048992702
417,0.00937919161383118
418,0.00961742902148685
419,0.00952168763965886
420,0.00985061969249358
421,0.00989663783378727
422,0.010040039392901
423,0.01022734583864
424,0.0103127425805403
425,0.0102141638496566
426,0.0101958523547441
427,0.00995533362845064
428,0.00969903051814575
429,0.00972863027594403
430,0.00977876224729912
431,0.0101975001906053
432,0.0105916791269491
433,0.0109787137797805
434,0.0115467231264272
435,0.0118137301870553
436,0.0119238287219978
437,0.0121804810047115
438,0.0124371332874251
439,0.0126937855701388
440,0.0127589028467225
441,0.0130970771117844
442,0.0134265460811661
443,0.0136115904362667
444,0.0138882824046914
445,0.0141649743731161
446,0.0144416663415407
447,0.0147332926313826
448,0.0148685810168011
449,0.0154778043830309
450,0.0154972948821979
451,0.01541918008982
452,0.0154356688403104
453,0.0154521575908009
454,0.0154686463412913
455,0.0155244076982925
456,0.0155691295198343
457,0.0158558237511113
458,0.0159215400909335
459,0.0162902294030177
460,0.0163222898763592
461,0.0162282062958238
462,0.0167362810484419
463,0.0162990565548053
464,0.0161584210672001
465,0.0160936692370339
466,0.0159339104541116
467,0.015943463511454
468,0.0158478590110723
469,0.0157508486608113
470,0.0161271086901712
471,0.0161606789293217
472,0.0163031630797887
473,0.0165284791339445
474,0.0166156489535267
475,0.016941439658707
476,0.016585901536674
477,0.0166291442999952
478,0.0166723870633164
479,0.0167156298266376
480,0.0166778460308518
481,0.0162770235140994
482,0.0160656568973903
483,0.0159723045515398
484,0.0156391025560473
485,0.0153291091770591
486,0.0154961549217023
487,0.0156396567366618
488,0.0157981191382055
489,0.01626466219332
490,0.0164051041980948
491,0.0165788316791062
492,0.0170258175407555
493,0.0168747126044584
494,0.0171517566635264
495,0.0169702296917107
496,0.0170754445594104
497,0.0168209903463064
498,0.0169282394959009
499,0.01663731057777
500,0.0167196107234345
501,0.016599551003049
502,0.0169352775977979
503,0.0170178186491703
504,0.0168939325169889
505,0.0174869474916526
506,0.0174126949553029
507,0.017543825471913
508,0.0176487176658063
509,0.0177042946151346
510,0.0174153338386556
511,0.0177148882086703
512,0.0176056150626073
513,0.0171564925806008
514,0.0170838867001259
515,0.0168002526564518
516,0.016745972850323
517,0.0167167433004419
518,0.016681268874085
519,0.0170156362749462
520,0.0173997905018566
521,0.0176269710305807
522,0.0178541515593049
523,0.0180813320880291
524,0.017982234278661
525,0.0180600476569512
526,0.0181355336506669
527,0.0180750866645698
528,0.0181921817461955
529,0.0184330458733167
530,0.0184790140577668
531,0.0185284808331385
532,0.018478633977607
533,0.0186743055648194
534,0.0187309665137377
535,0.0185532210460377
536,0.0187453649722288
537,0.0186183819612202
538,0.0184915397938433
539,0.0183990452661156
540,0.0185167108754386
541,0.018376538879753
542,0.018263590696261
543,0.0183591929030221
544,0.0184821042795652
545,0.0183366147404575
546,0.0185226487116943
547,0.01850459497871
548,0.0184865412457257
549,0.0184684875127414
550,0.0183355304393337
551,0.0184753755327139
552,0.0186382004561904
553,0.0184781064090479
554,0.018381059207379
555,0.0185587451159534
556,0.0183238299546415
557,0.0183085532615539
558,0.0181831321307404
559,0.0180448877193434
560,0.018250839551837
561,0.0179446998581682
562,0.0182625766012479
563,0.0179681309901452
564,0.0180336382183292
565,0.0177961519359624
566,0.0177112894882638
567,0.0174884222951518
568,0.0176042130643068
569,0.0173923621273336
570,0.0173429633450124
571,0.0174061626749202
572,0.0173879563830834
573,0.0173320826625852
574,0.0174398488842112
575,0.0172366039514319
576,0.0172721052690766
577,0.0173076065867213
578,0.0173431079043661
579,0.0173786092220108
580,0.0174141105396556
581,0.0176020978435922
582,0.0174913448856605
583,0.017579065148984
584,0.0172394809865745
585,0.0171868804128853
586,0.0166727412848727
587,0.0163945323379479
588,0.0161915378626769
589,0.0159885433874059
590,0.015785548912135
591,0.0158419866465342
592,0.0159620576957462
593,0.0159942974520317
594,0.0161867591906005
595,0.0161481931421856
596,0.0162751615242468
597,0.0163400877720927
598,0.0163534754089006
599,0.0163669178727598
600,0.0164901606103337
601,0.016552895202992
602,0.0166284003148752
603,0.0165489525715092
604,0.0166726264891418
605,0.0165667891144057
606,0.0165825512351909
607,0.0164752494194122
608,0.0162420425915301
609,0.0162137958385638
610,0.0160790460761265
611,0.0159604465331819
612,0.0158122295272021
613,0.0157326740538979
614,0.0154815299337548
615,0.0156457019570811
616,0.0154466553676629
617,0.0155899583274747
618,0.0155411668494155
619,0.0155684292906319
620,0.0154660506257417
621,0.0155543957263945
622,0.0152153133811218
623,0.0151918488374171
624,0.0150563372886841
625,0.0149208257399511
626,0.0147853141912181
627,0.0147539437930834
628,0.0146490521334114
629,0.0145819963570061
630,0.0147027007925609
631,0.0144773120157115
632,0.0145150355280809
633,0.0145929770090073
634,0.0145894242982421
635,0.0146591154318768
636,0.0144862610224751
637,0.0146206867617497
638,0.0144646437060017
639,0.0145086489785597
640,0.0144018917555683
641,0.0143186366601747
642,0.0142053809831156
643,0.0140603513895554
644,0.0139153217959952
645,0.013770292202435
646,0.0137581175291609
647,0.0137317916907689
648,0.0134010953335921
649,0.0136518472860724
650,0.0134759275014627
651,0.013550776200355
652,0.0133670833026999
653,0.0131281598663727
654,0.0128415615028747
655,0.0129532135995477
656,0.0127637551454368
657,0.0128751292369728
658,0.0129826062681059
659,0.0133082884685643
660,0.0134092068453584
661,0.0134246804388683
662,0.0134493703214833
663,0.013355437135156
664,0.0132225752338126
665,0.0132655215148363
666,0.0132287332122789
667,0.0132073230119499
668,0.013186744939277
669,0.0129460582396124
670,0.0129532142512255
671,0.0128671240722983
672,0.0127901013861835
673,0.012808256779778
674,0.0128128503580001
675,0.0127575299472045
676,0.012693689858445
677,0.0127521445885172
678,0.0125745220850783
679,0.0125221322558995
680,0.0127915594735499
681,0.0125014097924353
682,0.0122155680938976
683,0.0119321946501858
684,0.0114960077454626
685,0.0111240608354674
686,0.0108444212268081
687,0.0105803746786188
688,0.0104275214036117
689,0.0104940249432257
690,0.010609041875023
691,0.0108584731113249
692,0.0108859366731011
693,0.0109192882352736
694,0.0111210656110646
695,0.011158325486856
696,0.0113590916988549
697,0.0113741230128953
698,0.0112665874507401
699,0.0113107028559065
700,0.0114886002150456
701,0.0114008982100464
702,0.0116119593366406
703,0.0116435743268065
704,0.0118592389943984
705,0.0119152225243785
706,0.0121161228765059
707,0.0122571692656589
708,0.0122358437369018
709,0.0123991729431204
710,0.0122665531709807
711,0.0123130365874839
712,0.012349844570066
713,0.0118390092814353
714,0.0115601292797355
715,0.0109470826339182
716,0.0104178940326773
717,0.0100101590121423
718,0.00990083441639045
719,0.00991554661121261
720,0.010051956455248
721,0.00997876308946895
722,0.0102558832239716
723,0.0102053598069209
724,0.0101655183413412
725,0.0102088561001721
726,0.0101439487697464
727,0.0102844717426008
728,0.0104049850301661
729,0.0106338903191178
730,0.0109072965530806
731,0.0112908661760443
732,0.0115744454456694
733,0.0119393420727045
734,0.0121569424954894
735,0.0122743109294993
736,0.0124387563396462
737,0.0125243052448739
738,0.0126098541501015
739,0.0126954030553292
740,0.0128648082181718
741,0.0129545690981665
742,0.0130025593407884
743,0.0130505495834104
744,0.0130985398260323
745,0.013161034418887
746,0.0130844276517145
747,0.0131240401095146
748,0.0129047099959296
749,0.0129729860655189
750,0.0129189279179323
751,0.0128325856414254
752,0.0129412095510738
753,0.0126937385329696
754,0.0125751791122888
755,0.0117167752451553
756,0.0108583713780218
757,0.00999996751088833
758,0.00866131386870003
759,0.00750795686815063
760,0.00665764224144966
761,0.00643003226868018
762,0.00664314094581782
763,0.00710122930127025
764,0.00784222843536404
765,0.00856886225955298
766,0.00945358086947514
767,0.0102606142050807
768,0.0107278415578878
769,0.0110654792954885
770,0.0113172074675918
771,0.0114123132685658
772,0.0115222795824607
773,0.0116647696020116
774,0.0115187619222335
775,0.0115105661486339
776,0.0115541890781512
777,0.011341320173823
778,0.011432781185386
779,0.0112621641047029
780,0.0113535926454642
