"wavelength","measurement"
380,0.00174136147877974
381,0.00170031532719527
382,0.00170767439191244
383,0.00170110456744772
384,0.0017257969428773
385,0.00185483994335822
386,0.00200773928338944
387,0.00207654579695334
388,0.00224512020929442
389,0.00235130654487758
390,0.00234144575333027
391,0.0023504411065399
392,0.00241855459702681
393,0.00246955171396196
394,0.00259753664314421
395,0.00269689629366928
396,0.00305222624442664
397,0.00341161148553909
398,0.00377099672665154
399,0.00413038196776399
400,0.00438851757561485
401,0.00473547599095745
402,0.00494031500240627
403,0.00505877542411001
404,0.00513500016923446
405,0.00513682900493095
406,0.00521850992618162
407,0.00531198817742241
408,0.00536945984455655
409,0.00547929729613906
410,0.00574424280811845
411,0.00578299461928609
412,0.0059336305460353
413,0.00612855850879644
414,0.00608436682767569
415,0.00613658715607585
416,0.00608665773952302
417,0.00607060907294357
418,0.0061512584371136
419,0.00601231555329905
420,0.00616838028840271
421,0.00613880784421341
422,0.00616377203675583
423,0.00623607884314693
424,0.00624813375488807
425,0.00616441169866121
426,0.0060883507656649
427,0.00593177608304396
428,0.00572109566381946
429,0.00570840316563728
430,0.00573965172325025
431,0.00596766806361511
432,0.00622348833257295
433,0.00650297357973654
434,0.00684098091064354
435,0.00698039738226353
436,0.00702979704054256
437,0.0070671427629944
438,0.00710448848544624
439,0.00714183420789807
440,0.00716091878421504
441,0.00729728094417835
442,0.00743930619447448
443,0.00750250830030797
444,0.00763242902300742
445,0.00776234974570688
446,0.00789227046840633
447,0.00801903365189637
448,0.00804680547617478
449,0.00841481863161697
450,0.00834267289874463
451,0.00830810338107564
452,0.0082887441543728
453,0.00826938492766995
454,0.00825002570096711
455,0.00822983518268157
456,0.0082081672657423
457,0.00838429148962876
458,0.00838240722271858
459,0.00855406878255976
460,0.00855524883103987
461,0.00847649488635886
462,0.00874209819832912
463,0.00849447859369498
464,0.00840817178662279
465,0.00834335481481013
466,0.00821277948948928
467,0.00822465191788994
468,0.00812651346220288
469,0.00804880693563749
470,0.00822984785140829
471,0.00822517830187688
472,0.00829142482966698
473,0.00835284559621784
474,0.00840645049821515
475,0.00851254853746453
476,0.00833934133638536
477,0.00835006436797805
478,0.00836078739957074
479,0.00837151043116342
480,0.00836102919636447
481,0.00812775318386988
482,0.00806122655466237
483,0.00802445438171263
484,0.00786968794619919
485,0.00772645937171164
486,0.00779352746911933
487,0.00784351543987763
488,0.00790077728294113
489,0.00813110906437079
490,0.00817262335197617
491,0.0082278390188203
492,0.00842043744520389
493,0.0083000574696709
494,0.00842911722512716
495,0.00831048533405453
496,0.00832408586606662
497,0.00818953607510065
498,0.00822101508912787
499,0.00804726504475192
500,0.00805280698197685
501,0.00794438298290694
502,0.00808102794761945
503,0.00808864844187217
504,0.00800059787895137
505,0.00827412756462103
506,0.00821297561551837
507,0.00825418876370088
508,0.00829387362210708
509,0.00828499866008349
510,0.00814135302193884
511,0.00829527475651892
512,0.00820304792028688
513,0.007971892671694
514,0.00792408003029635
515,0.00776804697639749
516,0.00773029453656345
517,0.0076972774652398
518,0.00766215502273716
519,0.00776661729921504
520,0.00793626391628701
521,0.00801921865017596
522,0.0081021733840649
523,0.00818512811795384
524,0.00813139845457722
525,0.00816759124747658
526,0.00816314679879403
527,0.00810885268753638
528,0.00816992595323072
529,0.008276204154371
530,0.00827109252947788
531,0.00828792498221365
532,0.00825746953578464
533,0.00835287334910106
534,0.00835183303190945
535,0.00830651669954379
536,0.00841558586722654
537,0.00840917238004009
538,0.00846633237266375
539,0.00856199757472362
540,0.00878300520572709
541,0.00889928109200621
542,0.00904328878583918
543,0.00920141602499899
544,0.00925272633134647
545,0.00911152574013615
546,0.00907966966259921
547,0.00888248698516411
548,0.00868530430772901
549,0.0084881216302939
550,0.00832586504862045
551,0.00831569823621768
552,0.00827292298574432
553,0.00818172471453973
554,0.00806362745512391
555,0.0081130303025663
556,0.0079798620137105
557,0.00793638281957954
558,0.00786904833066658
559,0.00780063576424456
560,0.00785462691565009
561,0.00772779206712448
562,0.00786371450650026
563,0.00771716999287268
564,0.00775458858104224
565,0.00761377031234509
566,0.00758833018400342
567,0.00746873932351669
568,0.00751084886906058
569,0.00739303400427769
570,0.0073824005230801
571,0.00740036636955976
572,0.0073846956752546
573,0.00739204110150536
574,0.00745328961867355
575,0.00739333550650999
576,0.00742311662122571
577,0.00745289773594143
578,0.00748267885065715
579,0.00751245996537287
580,0.00754224108008859
581,0.00763798781267772
582,0.00760028108415664
583,0.00764096798393883
584,0.00749474612449071
585,0.00749117586162172
586,0.00725135422823019
587,0.00710438325510495
588,0.00698316362492727
589,0.00686194399474958
590,0.0067407243645719
591,0.00672700618799046
592,0.00676060854417411
593,0.00675274075297417
594,0.00682795190723605
595,0.00676648227489928
596,0.00680886942945227
597,0.00683898923656941
598,0.00684635099737796
599,0.00683451631278643
600,0.00687342963089724
601,0.00689067674244711
602,0.00691053227637855
603,0.00686097086350497
604,0.00692148037526797
605,0.006891448170262
606,0.00694574787011275
607,0.00709556396466195
608,0.00718282119269681
609,0.00737317666734462
610,0.00744878077682034
611,0.00746904680180453
612,0.00736771754862703
613,0.0071894839765633
614,0.00688764980213791
615,0.0067826324564211
616,0.00663786692297074
617,0.00660763965300251
618,0.00655413334300454
619,0.00651637347290607
620,0.00645958848643017
621,0.00649216357919668
622,0.00633806380307379
623,0.00632949753709416
624,0.00624400163500977
625,0.00615850573292537
626,0.00607300983084098
627,0.00607040904925983
628,0.00601065233943317
629,0.00599973771407619
630,0.00601991490396683
631,0.0059198630341227
632,0.0058918931119963
633,0.00589102962300408
634,0.00585628336954746
635,0.00582787884737899
636,0.00580416924823127
637,0.00580615490399566
638,0.00574736011523849
639,0.00578231781525676
640,0.00572131958813539
641,0.00570208504596438
642,0.00564635163233975
643,0.00558189240205743
644,0.00551743317177512
645,0.0054529739414928
646,0.0054454303466121
647,0.00543065702339904
648,0.0052993225695609
649,0.00541890223729679
650,0.00531703153500755
651,0.00536058596799046
652,0.00529044974010346
653,0.00518326570403069
654,0.00506856683951681
655,0.00508053360525017
656,0.00501579677066046
657,0.00504893519742301
658,0.00508525346466567
659,0.0052342102102161
660,0.00526231445892802
661,0.00526512101295535
662,0.0052827755977557
663,0.00523653266552199
664,0.00519373483816288
665,0.00520607658835716
666,0.00518165315562834
667,0.00519060881589489
668,0.00516129409887692
669,0.00507641089003104
670,0.00507002400809182
671,0.00502505955700608
672,0.00499433013774381
673,0.00499587933817728
674,0.00500423908889902
675,0.00497802768810888
676,0.00493738897365501
677,0.0049570674544277
678,0.00490669121986583
679,0.00483516616889987
680,0.00494566966560837
681,0.00483702979225732
682,0.00474495766882348
683,0.00462214579316377
684,0.004422754794717
685,0.00428382885995789
686,0.00415258411150544
687,0.00405493122465476
688,0.00397548984813235
689,0.00397252064293998
690,0.00400539779044834
691,0.00407559206029753
692,0.00406434725146459
693,0.00406791977526821
694,0.00414663089572964
695,0.00413601877770803
696,0.00419016920807903
697,0.00416718845549569
698,0.00411804170489517
699,0.00412634015269996
700,0.00417082632512914
701,0.00412003500026101
702,0.00421148511583054
703,0.00422374592069184
704,0.00430113074776403
705,0.00429063914349126
706,0.00434685935148483
707,0.00442723094996124
708,0.00442157882978092
709,0.00442804257212136
710,0.0043683201342004
711,0.00435366017809988
712,0.0043595286156708
713,0.00415869530609479
714,0.00398700889434694
715,0.00374973648894633
716,0.00354379715956396
717,0.00339550982118224
718,0.00334270189891109
719,0.00332113183889711
720,0.003356927946679
721,0.00330164579662472
722,0.0034077466654833
723,0.00338660377319978
724,0.00336586632710591
725,0.00333818819574149
726,0.00332565255941178
727,0.00336126682661857
728,0.00339934144469365
729,0.00343661205283634
730,0.00355876704750763
731,0.0036956545613835
732,0.00378223892329319
733,0.00389403562054496
734,0.00395699962805908
735,0.00401312396624721
736,0.0040600516565959
737,0.00408577753922982
738,0.00411150342186375
739,0.00413722930449768
740,0.00421772433109276
741,0.00422583590507749
742,0.00423685926693217
743,0.00424788262878685
744,0.00425890599064153
745,0.00431587613395175
746,0.00426879221783266
747,0.00427345371898259
748,0.00419731041834266
749,0.00423295873420148
750,0.00418337839054612
751,0.00415705401416345
752,0.00421332374679717
753,0.00406532347538563
754,0.00410922622608816
755,0.00383075380374146
756,0.00355228138139476
757,0.00327380895904806
758,0.00284541512402313
759,0.00243862846873858
760,0.00216984919458945
761,0.00208197735936574
762,0.00212646004210469
763,0.00226964327793864
764,0.00250836473647153
765,0.00273857323251136
766,0.00304802651020292
767,0.00330349731433838
768,0.00346591650272386
769,0.003576598554521
770,0.00366067949914848
771,0.00369096771969638
772,0.00375905288161476
773,0.00375633286531968
774,0.00373666494545647
775,0.00371451681652711
776,0.00375590412853152
777,0.00370801547603701
778,0.00370701914237028
779,0.00366998732439349
780,0.0036790593069836
