"wavelength","measurement"
380,0.000907437052198934
381,0.000916746660847344
382,0.00094731279402545
383,0.000970487061036268
384,0.000986915457206638
385,0.00106917134138653
386,0.00114543625427349
387,0.00121623262112088
388,0.00127980339477315
389,0.00137011892744611
390,0.00138995426623805
391,0.00142971039770596
392,0.00148886910987843
393,0.00156287214949139
394,0.0016606246115166
395,0.00178037948833155
396,0.0020417938067128
397,0.00234168466887524
398,0.00264157553103769
399,0.00294146639320013
400,0.00317899370811944
401,0.003446879496569
402,0.00371630646010258
403,0.00387362567224274
404,0.00399502415968222
405,0.00412126746126633
406,0.00437234239656039
407,0.00457429648450267
408,0.00474384671814782
409,0.00499778706911948
410,0.00538419792661871
411,0.00556083952488983
412,0.00583752371920109
413,0.00609757899540587
414,0.0062165720926284
415,0.00638275934154945
416,0.00643282184496838
417,0.00651704551623093
418,0.00674054519257913
419,0.0066577718316929
420,0.00692715774013811
421,0.00698270151272028
422,0.00709966596284638
423,0.00719629262845972
424,0.00731871688926682
425,0.00724948875378824
426,0.00720787725132813
427,0.0070551235730553
428,0.00689640955569219
429,0.00691685486529231
430,0.00700351661678565
431,0.00731848907549809
432,0.00762487683471832
433,0.00792206070067723
434,0.00834835040862411
435,0.00852354596703976
436,0.00864368226409356
437,0.00883705748921717
438,0.00903043271434077
439,0.00922380793946437
440,0.00929839009583043
441,0.00955016320765572
442,0.00980181435366823
443,0.00997763645333136
444,0.0101976455980494
445,0.0104176547427674
446,0.0106376638874854
447,0.0108974804047232
448,0.0110061727805969
449,0.0114794939236669
450,0.0114559039479114
451,0.0114634195898216
452,0.0115018989460413
453,0.011540378302261
454,0.0115788576584807
455,0.0116679322149673
456,0.0116742889112106
457,0.0119689715167346
458,0.0120794041338407
459,0.0123578444573676
460,0.0123910647937756
461,0.0123362723301644
462,0.0127519237141103
463,0.0124647265188734
464,0.0123444975438252
465,0.0123314029573189
466,0.0122306337039492
467,0.0122610098923998
468,0.0122099411381442
469,0.0121849937379242
470,0.0125030447921821
471,0.0125282205301836
472,0.012689568248581
473,0.0128637142293309
474,0.0129837515568873
475,0.0132512826294556
476,0.0129970684587134
477,0.0130473129919085
478,0.0130975575251035
479,0.0131478020582985
480,0.0131475225347624
481,0.0128431672202351
482,0.0126675928182282
483,0.0126609767031393
484,0.0123604676086538
485,0.0121518472537608
486,0.0123187927800505
487,0.012474317309607
488,0.0126365060372603
489,0.0129930383527898
490,0.0131549855781004
491,0.0132856994496463
492,0.0136551581093735
493,0.0135513593872217
494,0.0137908814196641
495,0.013668053857656
496,0.013733519286856
497,0.0135780160623778
498,0.0136845357406155
499,0.0134088949917797
500,0.0135642811043579
501,0.013479535628307
502,0.0137892590064558
503,0.0138850283025307
504,0.0137804186953218
505,0.0142734785856558
506,0.0142537169252402
507,0.0143553907089005
508,0.0144599467316101
509,0.0144897685138579
510,0.0142788117506612
511,0.0145414284344312
512,0.0144359902115763
513,0.0141106085813398
514,0.0140600285541861
515,0.0138417214507636
516,0.0137822305160814
517,0.0138122940577909
518,0.0138161317630401
519,0.0141481772768474
520,0.0144488623620778
521,0.014645355274939
522,0.0148418481878002
523,0.0150383411006613
524,0.0149714669357571
525,0.0150507601726113
526,0.0151417009195821
527,0.0150780866936603
528,0.0152180669841664
529,0.0154836234470507
530,0.0154896464762453
531,0.0155415236182481
532,0.0155287562355697
533,0.0157028418754265
534,0.0157937496454023
535,0.0156449481820989
536,0.0158192504354991
537,0.0157365939634151
538,0.015635762875515
539,0.0155688848181194
540,0.0156964929959514
541,0.0155917825435475
542,0.0155227568516377
543,0.0156353531147053
544,0.0157340615092273
545,0.0156315174419531
546,0.0157885669273991
547,0.0157875982587081
548,0.0157866295900171
549,0.0157856609213261
550,0.0157197170779015
551,0.0158567558302373
552,0.0160026856620931
553,0.0158744970659738
554,0.0158020397330506
555,0.0159800683857512
556,0.0157986451524096
557,0.0157690127760646
558,0.0156922039255596
559,0.0156236623394057
560,0.015794540209611
561,0.0155494196423344
562,0.0158244800399771
563,0.0155889200812533
564,0.0156908679938043
565,0.0154670402370818
566,0.0154315392519654
567,0.0152454806523036
568,0.0153503505926766
569,0.0152067586106361
570,0.0152201474765675
571,0.0152696751831911
572,0.0152801731964667
573,0.0152628194376212
574,0.015386404189469
575,0.0151916155077684
576,0.0152290019617803
577,0.0152663884157922
578,0.0153037748698041
579,0.015341161323816
580,0.0153785477778279
581,0.0155615872890905
582,0.0154422928455547
583,0.0155231939669348
584,0.0152340476030773
585,0.0152243653720875
586,0.0147780024590537
587,0.0145599429089159
588,0.0144089796867712
589,0.0142580164646266
590,0.014107053242482
591,0.0141626505891009
592,0.014283816457298
593,0.0142998483804696
594,0.0144872681436285
595,0.0144620008692413
596,0.0145686516408083
597,0.0146329851559827
598,0.0146469301449425
599,0.0146649521169913
600,0.0147377827312502
601,0.0148418107168847
602,0.0149179260357286
603,0.0148353293058379
604,0.0149755873331989
605,0.0148782345263264
606,0.0148635380535076
607,0.0148021309113456
608,0.0146014689062558
609,0.0145788243379775
610,0.0144596096952914
611,0.0143435447340171
612,0.0142281629421643
613,0.0141465115954913
614,0.0139783807443655
615,0.0141212897039969
616,0.0139434041658031
617,0.0140788630388058
618,0.0140495320835927
619,0.0140876156276089
620,0.0140041985130714
621,0.0140886704837261
622,0.0138095758284154
623,0.0138104499063122
624,0.0136939984666412
625,0.0135775470269703
626,0.0134610955872994
627,0.0134530010749416
628,0.0133905357529909
629,0.0133445569476254
630,0.0134259673111649
631,0.0132466680702061
632,0.013273403643455
633,0.0133499309062608
634,0.0133328435381165
635,0.0134262348511458
636,0.01325506548267
637,0.0133752733977407
638,0.0132404041368594
639,0.0132847527439252
640,0.0131993988127545
641,0.0131378551999834
642,0.0130637401744278
643,0.0129532528654841
644,0.0128427655565404
645,0.0127322782475967
646,0.0127289568945675
647,0.0127017776742931
648,0.0124535015853878
649,0.0126616052540544
650,0.0124841735050232
651,0.0125711727175476
652,0.0124201366912124
653,0.0121740432244626
654,0.0119243212611881
655,0.0120445726346509
656,0.0119253844893355
657,0.0120170841715121
658,0.0121112529860313
659,0.0123845389898434
660,0.012498178333998
661,0.0125043776689936
662,0.0125364991958964
663,0.0124329420908791
664,0.0123399078487667
665,0.0123734348150896
666,0.0123596770798617
667,0.0123861955730278
668,0.0123359967656424
669,0.0121294968356191
670,0.0121307310575543
671,0.0120704062201146
672,0.0120205417279691
673,0.0120514650615849
674,0.0120388865987807
675,0.0119889177682147
676,0.0119575408990907
677,0.0120170028479498
678,0.011876537452068
679,0.0117867102447291
680,0.0120427262882893
681,0.0118138775832942
682,0.011536528554733
683,0.0112900125338106
684,0.0108883956108168
685,0.0105728843288192
686,0.0103237932763044
687,0.0101337570910075
688,0.0100173973141781
689,0.0100530648834298
690,0.0102114481896499
691,0.0104049685385419
692,0.010452640023721
693,0.0105132324006711
694,0.0106860819903506
695,0.0106984457009932
696,0.0108525093770494
697,0.0109033088579367
698,0.0107711280795405
699,0.0108206952085148
700,0.0109944535619031
701,0.0109395093119737
702,0.0110911594895252
703,0.0111145922676359
704,0.0113203891035238
705,0.0113288971025127
706,0.0115061069861266
707,0.0116193731056884
708,0.0116182102659726
709,0.0117579332569677
710,0.0116193194721575
711,0.0116343680712096
712,0.0116369922156209
713,0.0111455736795969
714,0.0109031308726854
715,0.0103064900513682
716,0.00984662733326089
717,0.0094878393466568
718,0.00938460388468477
719,0.00940106277043111
720,0.00951343337613098
721,0.00940896159314307
722,0.00963665876457642
723,0.00959540611507469
724,0.00953191632208899
725,0.00954196402928654
726,0.00946493987751781
727,0.00961319709183201
728,0.00970746782505637
729,0.00987588139664409
730,0.0100882376941591
731,0.0103555743233797
732,0.0106247581570981
733,0.0108907358677252
734,0.011066714584739
735,0.0111290337210555
736,0.0112489796186557
737,0.0112890545907836
738,0.0113291295629116
739,0.0113692045350396
740,0.0115099368530587
741,0.0115306510657688
742,0.0115512534561477
743,0.0115718558465267
744,0.0115924582369056
745,0.0116388351874839
746,0.0115543831967506
747,0.0116003593406659
748,0.0114008302539485
749,0.0114411454055117
750,0.0113586337758021
751,0.0112887123788646
752,0.0113662585563806
753,0.0111882728652359
754,0.0110367324501022
755,0.0102848152651587
756,0.00953289808021515
757,0.00878098089527163
758,0.00765004177673109
759,0.0066301790480748
760,0.00598636068800929
761,0.0058609561385043
762,0.00607037264191396
763,0.00651633637318152
764,0.0071515725136674
765,0.00774169963759655
766,0.00848922128393846
767,0.00919258267212867
768,0.00958865859038175
769,0.00982608083525614
770,0.01003271828103
771,0.0100640628681939
772,0.0101430815952926
773,0.010262101487852
774,0.0101487188016217
775,0.0101350654795296
776,0.0101584059373206
777,0.00999600340314692
778,0.0100785748232095
779,0.00991278548837991
780,0.0100445415544895
