"wavelength","measurement"
380,0.00190632846828421
381,0.00189090560305765
382,0.00193164642802978
383,0.00195618400230508
384,0.0019572672752448
385,0.00208013187787549
386,0.00219390637551257
387,0.00238935874656057
388,0.00250560074041449
389,0.00268658205060303
390,0.00270753926778135
391,0.00271516058868
392,0.00274076809235755
393,0.00288555061115222
394,0.00305381733122041
395,0.00324375827477014
396,0.00372445351076461
397,0.00412001510971312
398,0.00451557670866164
399,0.00491113830761015
400,0.00535755376319802
401,0.00577516384557552
402,0.00604812451153198
403,0.00621323208196143
404,0.00638349226765953
405,0.00652919680826646
406,0.00668843579158708
407,0.00698485658097811
408,0.00710859721570224
409,0.00746901214471234
410,0.00796510308554164
411,0.00808765601519169
412,0.00830362980947365
413,0.00869142034720963
414,0.00870451965390782
415,0.0090374147884442
416,0.00899264525244964
417,0.00900250560823887
418,0.00929951854687538
419,0.00923131144464646
420,0.00945060057470028
421,0.00946028961772766
422,0.00958427501710479
423,0.00968645917946059
424,0.00980471525394466
425,0.00966227736752735
426,0.00960597613131255
427,0.00945554549332526
428,0.00922069998029288
429,0.00923767343532466
430,0.00924151434564633
431,0.00962154498981504
432,0.00999606895398872
433,0.0103693588334066
434,0.0108443501567134
435,0.0111370786171929
436,0.0112635109586039
437,0.0114694165752692
438,0.0116753221919345
439,0.0118812278085999
440,0.0119702500995398
441,0.0122970166028202
442,0.0125780193691602
443,0.0127409667772702
444,0.0130088471884838
445,0.0132767275996974
446,0.013544608010911
447,0.0137112161373518
448,0.0139474939170317
449,0.0145100830137986
450,0.0144402955713798
451,0.0143702293824951
452,0.0144183994770427
453,0.0144665695715902
454,0.0145147396661378
455,0.0144099927156786
456,0.0145670873480762
457,0.014732271498179
458,0.0149189488159761
459,0.0152404349509114
460,0.0152414166816058
461,0.0150743232748321
462,0.0155863834698772
463,0.0152193095219949
464,0.0150454971545031
465,0.0149845273340135
466,0.014813569768497
467,0.0148546707487045
468,0.0147422851246323
469,0.0145943861048775
470,0.0149527958838522
471,0.0149836005060093
472,0.0151096397173667
473,0.0153762045761089
474,0.015393915479472
475,0.0156511985458438
476,0.0153544419309614
477,0.0154114589512268
478,0.0154684759714923
479,0.0155254929917577
480,0.0154227312696424
481,0.0150938166569534
482,0.0149330701798983
483,0.0148141232410042
484,0.0144850301961531
485,0.0141502999740705
486,0.0143318258412531
487,0.0144487836798781
488,0.0146280046099385
489,0.0150977555115428
490,0.0151567194791823
491,0.0153267944993626
492,0.0157504496732403
493,0.0155775445280585
494,0.015852276222702
495,0.0156578177471075
496,0.0157628964508425
497,0.0155363217821407
498,0.0156530660382859
499,0.0153488039211937
500,0.0154635879490488
501,0.0153315789485282
502,0.0156181741459974
503,0.0157056602999501
504,0.0155805653605829
505,0.0161312757663688
506,0.0160709840049173
507,0.016159662012364
508,0.0162781266188392
509,0.0163212220637124
510,0.0161324327921586
511,0.0163586337990203
512,0.0162670822840869
513,0.015836892494976
514,0.0157409748334207
515,0.015520950445726
516,0.0154463963007051
517,0.0154633078104676
518,0.0154129572795681
519,0.0156752928159594
520,0.0160363578999419
521,0.0162515670866895
522,0.0164667762734371
523,0.0166819854601846
524,0.0166173121095355
525,0.0166579791125939
526,0.0166861190087761
527,0.0166057051028126
528,0.0167803605326219
529,0.0170517230552686
530,0.0170386879609529
531,0.01706329381931
532,0.0170280832463314
533,0.0171912026207962
534,0.0172924002197666
535,0.0170966903201134
536,0.0172756894086903
537,0.0172043502452239
538,0.0170333904878276
539,0.0170103014455381
540,0.0170492843526525
541,0.0169000705344074
542,0.0168171731972439
543,0.0169490788054322
544,0.0170296919509437
545,0.016932857689172
546,0.0170168856746052
547,0.0170047322816973
548,0.0169925788887895
549,0.0169804254958817
550,0.0169306516150303
551,0.0170024975957215
552,0.0171452509140855
553,0.0170124778711102
554,0.0169808738260057
555,0.0170821528941361
556,0.016861076083468
557,0.0168381059842317
558,0.0167161063279285
559,0.016661526099146
560,0.01681918800997
561,0.0165186674257742
562,0.0167613708114688
563,0.0165584160913126
564,0.0166095632640808
565,0.0163901398157926
566,0.0162099553734943
567,0.016046298665466
568,0.0162342574203196
569,0.0159393747879449
570,0.0159413709839449
571,0.0159568295769545
572,0.0159635427345157
573,0.0159665261615807
574,0.0160183252754887
575,0.0158574937203811
576,0.0158750858138296
577,0.0158926779072781
578,0.0159102700007266
579,0.0159278620941751
580,0.0159454541876236
581,0.0161561622828887
582,0.0160345409749363
583,0.016131880914205
584,0.0158824524660767
585,0.0157815336683258
586,0.0153125909654609
587,0.015033510636257
588,0.0148453421610005
589,0.0146571736857439
590,0.0144690052104874
591,0.0145003005901997
592,0.0146033910799644
593,0.0146168301869074
594,0.0148039654039833
595,0.0147753817518776
596,0.0149290407793848
597,0.014992212526415
598,0.0149536690336938
599,0.0150099256556554
600,0.0150235653626524
601,0.0151774220107474
602,0.0152237138141258
603,0.0151285513468308
604,0.0152621180884595
605,0.01517697000733
606,0.0152324799238626
607,0.0151009118958592
608,0.0148742397180833
609,0.0148408108455745
610,0.0146925210516085
611,0.0145975841127991
612,0.0144273973569505
613,0.0143365665399588
614,0.0142169552016635
615,0.0142893919709842
616,0.0141699104552944
617,0.0142029797458699
618,0.0141836113501336
619,0.0142103541522077
620,0.0141225567859284
621,0.0142060560451179
622,0.0138361973188655
623,0.0138659956081358
624,0.0137355994160152
625,0.0136052032238946
626,0.013474807031774
627,0.0134760318780063
628,0.0133801300158266
629,0.013332798763444
630,0.0133992501562181
631,0.0131961854006386
632,0.0132093278670473
633,0.0132944125318597
634,0.0132411823359664
635,0.0133077435627453
636,0.0132347033222773
637,0.0132973741952078
638,0.0131990702337329
639,0.0132582074383555
640,0.0131327095159784
641,0.0130825338735535
642,0.0129368662716092
643,0.0128208081346824
644,0.0127047499977556
645,0.0125886918608288
646,0.0125368299798028
647,0.0124861945988245
648,0.0122540620955664
649,0.0124283608078629
650,0.0122223149037545
651,0.012345863157274
652,0.0121626145187922
653,0.0119280829419828
654,0.0117211548145818
655,0.0117825462437885
656,0.0116631348101644
657,0.0117313012819485
658,0.0118764262177631
659,0.0121214282458418
660,0.0122381706550961
661,0.012247117423505
662,0.0122408851190963
663,0.0121772631029625
664,0.0120975330306755
665,0.0121063834742144
666,0.0120312485223393
667,0.012027307938658
668,0.0120550942824428
669,0.0117840140842677
670,0.0118062716972476
671,0.011752373230731
672,0.0116453074514448
673,0.0116585243376011
674,0.0116621222096587
675,0.0116476305600996
676,0.0116188172724371
677,0.0116624211897765
678,0.011478283163781
679,0.0114462593973877
680,0.0116432206946904
681,0.0113973982123078
682,0.0111512867609714
683,0.0108758936452745
684,0.0105054058561477
685,0.010134532656261
686,0.00991109131607853
687,0.00965901011472751
688,0.0095047749337146
689,0.00961161309002305
690,0.00968757253901035
691,0.00985282730530133
692,0.00994168853281884
693,0.00994907579885897
694,0.0101598558049792
695,0.0101596978988182
696,0.0103507193587825
697,0.0103729043850438
698,0.0103445820437901
699,0.0103762313823611
700,0.0105877559803794
701,0.0104716214673887
702,0.0106903069894527
703,0.0107043457935051
704,0.0109042594879057
705,0.0109704327620938
706,0.0110459114667956
707,0.0112162263330441
708,0.0112871664419116
709,0.0114542240030163
710,0.0112894097942201
711,0.0113343687279609
712,0.0113156805037153
713,0.0109037172559677
714,0.0106011934796187
715,0.010004123126093
716,0.00960850256609386
717,0.00921881654096861
718,0.00916315171638633
719,0.00920709696012157
720,0.00930329730457118
721,0.00920326963935837
722,0.00949769121455043
723,0.0094072342925998
724,0.00941191225984997
725,0.0094190175780972
726,0.00938385794670981
727,0.0095383999039101
728,0.00964701784102777
729,0.00985633364352826
730,0.0101024798488822
731,0.0104464418444607
732,0.0107143312643497
733,0.0110655574481196
734,0.0112489734812146
735,0.0113810530430287
736,0.011583691139553
737,0.0116390005877437
738,0.0116943100359343
739,0.011749619484125
740,0.0119131240985085
741,0.0119732061352814
742,0.0120331138227873
743,0.0120930215102931
744,0.0121529291977989
745,0.0122139388519362
746,0.0120964823930844
747,0.0121256979299682
748,0.0120131318856164
749,0.0120250515342316
750,0.0119847186259809
751,0.0118750038995902
752,0.011948172485905
753,0.0117689119359118
754,0.0116712332924773
755,0.0109129062607979
756,0.0101545792291185
757,0.00939625219743908
758,0.00813001025795103
759,0.00699955438147524
760,0.00632902630355294
761,0.00604707798062735
762,0.00625105505139545
763,0.0066433041693173
764,0.00740767609142832
765,0.00796978980004321
766,0.00893134766811619
767,0.0097363702317776
768,0.00999335935540345
769,0.0102893555302673
770,0.0106232007974484
771,0.0107899327298588
772,0.0107679232414335
773,0.0108611068289452
774,0.0108095798091283
775,0.010838749005547
776,0.0107863404940275
777,0.0106294451447416
778,0.0107902938336244
779,0.0105803002265008
780,0.0106805081571839
