"wavelength","measurement"
380,0.031838338660012
381,0.0315489441154333
382,0.0322575797323235
383,0.0334947339539603
384,0.0334439773884529
385,0.0359492856512863
386,0.0392488546584836
387,0.0426290282895345
388,0.0437835706402065
389,0.0482229141080175
390,0.0497751033078962
391,0.0510019925648758
392,0.053760690541573
393,0.0571300505973918
394,0.0612452445795291
395,0.0664441430139796
396,0.0772747606160225
397,0.0898117553199605
398,0.102348750023898
399,0.114885744727836
400,0.124801257260167
401,0.1375759505869
402,0.147834550416691
403,0.153761651718388
404,0.160980124978857
405,0.16552186744118
406,0.175631195032015
407,0.1796350530805
408,0.187315226725269
409,0.196656525846573
410,0.209861309053047
411,0.213637455214685
412,0.22410517620861
413,0.233361769609603
414,0.235778602789877
415,0.243176888705141
416,0.243013522298362
417,0.243567837433592
418,0.250026442480005
419,0.248651872241421
420,0.254992029146607
421,0.255888277140435
422,0.260453901724906
423,0.263034594061818
424,0.265096464150508
425,0.260200945998637
426,0.258391071798911
427,0.252215598953831
428,0.245550482493096
429,0.244697258981827
430,0.24613914551823
431,0.256573207102216
432,0.265816211280998
433,0.275061731071169
434,0.286260733326233
435,0.293547158951106
436,0.295936336656301
437,0.301397186344918
438,0.306858036033535
439,0.312318885722152
440,0.313852333867955
441,0.319693888201771
442,0.327226833947761
443,0.330685400993152
444,0.335337072143331
445,0.33998874329351
446,0.344640414443689
447,0.350281901984617
448,0.350481950464224
449,0.365349310262929
450,0.362407814142696
451,0.35929479596913
452,0.358229417050543
453,0.357164038131955
454,0.356098659213367
455,0.356137328943025
456,0.355981332049211
457,0.359982440206955
458,0.363625193161139
459,0.36889568552702
460,0.370148307598325
461,0.367032278611054
462,0.378153289864846
463,0.366903330537517
464,0.365584993234937
465,0.362644309148508
466,0.359733156630763
467,0.360338378667952
468,0.359115061437661
469,0.357809701245711
470,0.366623577645837
471,0.367495875073686
472,0.372094192816178
473,0.378386432848495
474,0.381470946447068
475,0.388178156409365
476,0.382509177651539
477,0.384028269462167
478,0.385547361272796
479,0.387066453083424
480,0.387670508337367
481,0.379582506499176
482,0.372622106366984
483,0.372003294337221
484,0.364552268945099
485,0.355850297714153
486,0.3604897800244
487,0.363722310484736
488,0.367676834348774
489,0.377071337423308
490,0.380797979731747
491,0.383748135887662
492,0.392619324670149
493,0.389043778449455
494,0.394031109264616
495,0.3892253015199
496,0.391086595840526
497,0.383892036824767
498,0.386215388208768
499,0.376927917229632
500,0.379664144532172
501,0.375852444151694
502,0.382534818583904
503,0.384261198664122
504,0.378946959209378
505,0.391796232142771
506,0.388826583720604
507,0.390584927447258
508,0.39135288244028
509,0.391429706551304
510,0.3836530535937
511,0.388332744283376
512,0.383332977329249
513,0.372009183987259
514,0.36892861872416
515,0.361174723613206
516,0.357220446676678
517,0.355855583678409
518,0.353585065400922
519,0.359519429737833
520,0.365139995108801
521,0.367977465321463
522,0.370814935534124
523,0.373652405746785
524,0.370890032265569
525,0.370134906677563
526,0.369767596646417
527,0.366284079997683
528,0.368129361281695
529,0.372006306850526
530,0.371073480249726
531,0.371331950943052
532,0.369093684520967
533,0.37094475314891
534,0.371756431690542
535,0.367362818208453
536,0.370037150099701
537,0.368063921259374
538,0.364485108965045
539,0.361733456086854
540,0.363582804529366
541,0.36051801666015
542,0.357940483028709
543,0.360442865541979
544,0.361598595368492
545,0.359403960909657
546,0.361293551911839
547,0.36117202741758
548,0.361050502923322
549,0.360928978429064
550,0.358929172116307
551,0.360478226250596
552,0.363752717061025
553,0.35971257491439
554,0.358416585286537
555,0.361867744779205
556,0.355972526360921
557,0.355509606522104
558,0.352901233779115
559,0.350166649383807
560,0.353792099283248
561,0.34783845307486
562,0.353573339465099
563,0.348121771173111
564,0.350012421732063
565,0.345674050001067
566,0.343975893823988
567,0.340908467790715
568,0.343858341803466
569,0.339991183546658
570,0.340931758231962
571,0.34184764666148
572,0.343330111402398
573,0.34301445419127
574,0.346604922571694
575,0.342705902738962
576,0.344756694915949
577,0.346807487092936
578,0.348858279269923
579,0.350909071446911
580,0.352959863623898
581,0.358786042373607
582,0.358122086972818
583,0.361274027239644
584,0.355569562771484
585,0.35558237095032
586,0.346257513195292
587,0.342908369210279
588,0.340597091461809
589,0.338285813713339
590,0.335974535964869
591,0.337973402470079
592,0.343382102448037
593,0.343833837975758
594,0.350717941281347
595,0.350316282834307
596,0.353621138876763
597,0.356431630758884
598,0.356923741086325
599,0.358373770913656
600,0.36202165983367
601,0.365463273749713
602,0.367206106773874
603,0.366702041984059
604,0.371126244997875
605,0.369340074101116
606,0.371148763476393
607,0.370211629843686
608,0.365993216600885
609,0.366878514607633
610,0.363962091308117
611,0.363418062187242
612,0.361063531831029
613,0.359162159713194
614,0.356234281041637
615,0.362615236706562
616,0.358064007505864
617,0.362661872773267
618,0.362002310582457
619,0.364440326640523
620,0.363255935142527
621,0.366929954425106
622,0.359593941025502
623,0.359728972937343
624,0.357877317716084
625,0.356025662494826
626,0.354174007273567
627,0.354579624181174
628,0.354007370720887
629,0.353956822699536
630,0.357886694188516
631,0.353113090185602
632,0.356214926427094
633,0.35784173860651
634,0.359044196005601
635,0.361914204521995
636,0.35810560732475
637,0.362066877103954
638,0.360537352181077
639,0.362689107051168
640,0.361334315038056
641,0.36159344551277
642,0.359825465390621
643,0.358085015784403
644,0.356344566178184
645,0.354604116571966
646,0.356355475703612
647,0.356030027684536
648,0.350823705910835
649,0.356273210254516
650,0.354272947267673
651,0.356392089624484
652,0.352770630999985
653,0.34805546896751
654,0.342498649255674
655,0.347243220920411
656,0.344525792939078
657,0.348926574844181
658,0.352846304357105
659,0.362027061132229
660,0.365680533601559
661,0.367994811316985
662,0.369649129840045
663,0.369390664294001
664,0.367753229980085
665,0.368751778946078
666,0.369751696710584
667,0.37140145200639
668,0.372855266494654
669,0.365641464968233
670,0.368432613869055
671,0.368364372340756
672,0.366912315153543
673,0.367847231292938
674,0.368836568024795
675,0.368394942360041
676,0.369136672270173
677,0.371727328629015
678,0.367444677487727
679,0.367280138723053
680,0.375415222721566
681,0.368565797615344
682,0.360302759023141
683,0.354003412054538
684,0.340962809987507
685,0.332020119982096
686,0.324281785927371
687,0.318159174276389
688,0.31630020488217
689,0.31758841415071
690,0.321264383467702
691,0.327162485817532
692,0.328550130578117
693,0.331824479213473
694,0.335247449728226
695,0.335305113870888
696,0.339875074081738
697,0.341115195303821
698,0.33671260313113
699,0.336907788588158
700,0.342970964400522
701,0.340543086926728
702,0.345528849294962
703,0.345479469102101
704,0.352180758558012
705,0.351358038974048
706,0.35707283035711
707,0.360556311220284
708,0.360813609353085
709,0.36518057743882
710,0.362104551067633
711,0.360633333430331
712,0.362557902870864
713,0.34661701224021
714,0.338342715061631
715,0.32125878494253
716,0.306569912247324
717,0.295762170434921
718,0.293290048191812
719,0.295653110626366
720,0.297766758354528
721,0.296083719161356
722,0.304299022867026
723,0.30129140850034
724,0.300843338648341
725,0.302585796210386
726,0.301353696519722
727,0.305908570822802
728,0.310272136231508
729,0.317873448325763
730,0.325704869704156
731,0.335618727416148
732,0.345781447076271
733,0.357040159865065
734,0.363030969242107
735,0.367339540930689
736,0.371869316454889
737,0.375380229122424
738,0.37889114178996
739,0.382402054457495
740,0.389332913142518
741,0.391791136982731
742,0.395132624042365
743,0.398474111101999
744,0.401815598161633
745,0.4042977237204
746,0.404125386209121
747,0.407145608647947
748,0.404653184252617
749,0.406585019362127
750,0.407540508316821
751,0.406885833371028
752,0.413696437538025
753,0.411345094566835
754,0.40685831516515
755,0.379929999324471
756,0.353001683483791
757,0.326073367643111
758,0.28479447213962
759,0.24919973021119
760,0.225155809805251
761,0.222650089683168
762,0.232219459887135
763,0.251256945471615
764,0.278239431813408
765,0.302936295612925
766,0.334658392089318
767,0.362928217687358
768,0.379700099715329
769,0.391793802206879
770,0.401257583673838
771,0.406351357367314
772,0.411483242560859
773,0.417242370149844
774,0.415790007988656
775,0.416315726560667
776,0.417807887344019
777,0.414755154759951
778,0.419624368434271
779,0.414514647791109
780,0.421584692352329
