"wavelength","measurement"
380,0.000324127000338406
381,0.00033933329651088
382,0.000369030144524837
383,0.000348937220493882
384,0.000375596687015601
385,0.000378560407450542
386,0.000393040384627702
387,0.000430506124853743
388,0.000462565858714405
389,0.00048672375423473
390,0.000521282199937851
391,0.000509965090968041
392,0.000508733665036664
393,0.000559555037060585
394,0.000617132072909963
395,0.000614319931215076
396,0.000708577500399522
397,0.000809558983826002
398,0.000910540467252482
399,0.00101152195067896
400,0.00109446102230125
401,0.00116887885789227
402,0.00125516528286634
403,0.00132545087610324
404,0.00132509032041216
405,0.00136631227781809
406,0.00143199080291442
407,0.00150924516768723
408,0.00157516434780885
409,0.00165051148506896
410,0.00176872049898856
411,0.00184838972430082
412,0.00189768030577361
413,0.00200687519256541
414,0.00202806276064532
415,0.00209652878137793
416,0.00210313797476529
417,0.00213674603934152
418,0.00228244797795115
419,0.00220070374559679
420,0.00229981924362751
421,0.00232393299291951
422,0.00239229520590195
423,0.00239048134817215
424,0.002421597822216
425,0.00245035586078192
426,0.00242263102459645
427,0.00238335299959026
428,0.00233877426309001
429,0.00237824914458013
430,0.00239177270198555
431,0.0025036652568336
432,0.00261865919511404
433,0.00272624255134081
434,0.00288153479899943
435,0.00296121573407343
436,0.00298877425596295
437,0.00307183201161947
438,0.00315488976727599
439,0.00323794752293251
440,0.00328122008594298
441,0.00337000113467276
442,0.00349690219590678
443,0.00355324685229085
444,0.00365789579773566
445,0.00376254474318047
446,0.00386719368862527
447,0.00393522881949738
448,0.00401511216538447
449,0.0042004240250892
450,0.00419506276215875
451,0.004161358521915
452,0.00416966032616417
453,0.00417796213041334
454,0.0041862639346625
455,0.00417833984256817
456,0.0041680991041912
457,0.00427207981349043
458,0.0043009660374398
459,0.00436898461036329
460,0.00440562406209577
461,0.00437039708358339
462,0.00452660297501122
463,0.0043804533191542
464,0.00438114201992092
465,0.00434670560678064
466,0.00430505212384346
467,0.00433395578263945
468,0.00430910681477702
469,0.00428369521190008
470,0.00440052317292136
471,0.00441696226657781
472,0.00446224399329756
473,0.00452117356081736
474,0.00456050531512382
475,0.00465619819849294
476,0.00455247765327209
477,0.00457879859749324
478,0.00460511954171438
479,0.00463144048593553
480,0.00462140723251606
481,0.00451292792213007
482,0.00444017002936188
483,0.00443022566880824
484,0.00434555110307676
485,0.00427960956576841
486,0.0043409884010406
487,0.00438255555759213
488,0.00443756164346936
489,0.00456531868636547
490,0.00462985999095273
491,0.00467161336464209
492,0.00480028222353526
493,0.00477589828469816
494,0.00485715239193333
495,0.00479434710931984
496,0.00484421357753897
497,0.00478093778659718
498,0.00481985904773763
499,0.00472911273523583
500,0.00479688990226879
501,0.00477170469259068
502,0.00487930503744621
503,0.00491833212761748
504,0.0048845002877787
505,0.0050555086366945
506,0.0050623264102495
507,0.0050905997910098
508,0.00512778730831544
509,0.00515070079158869
510,0.0050747897777594
511,0.00517624931270984
512,0.00514920002909055
513,0.00501553190652934
514,0.00501448142701555
515,0.00494513739412755
516,0.0049196733900521
517,0.00493255705418503
518,0.0049282164720587
519,0.00505330861737841
520,0.0051502941319902
521,0.00522439118282432
522,0.00529848823365844
523,0.00537258528449257
524,0.00534055806856778
525,0.005391000672367
526,0.00539160583059189
527,0.00535194621347563
528,0.00543731700273767
529,0.00551064539368087
530,0.00553050253790586
531,0.00554596166769179
532,0.00554501831495386
533,0.00559613404342889
534,0.00561798947855172
535,0.00556614506076095
536,0.0056239390161783
537,0.00561172365505639
538,0.00555876401356059
539,0.00553940103944471
540,0.00557647437172993
541,0.00554252197997961
542,0.00551608031293721
543,0.00554914902647864
544,0.00559009922437619
545,0.00553594171518096
546,0.00561918516781092
547,0.0056120453773207
548,0.00560490558683048
549,0.00559776579634025
550,0.00555762023453784
551,0.00562207258084956
552,0.00564035106132115
553,0.00560654504715844
554,0.00556590475554242
555,0.00561736264181722
556,0.00555198459861909
557,0.00554043860881286
558,0.00551590948772655
559,0.0054839435675221
560,0.00555657250746207
561,0.00546115729704403
562,0.00554972646690192
563,0.00547133414171032
564,0.00548723815045677
565,0.00541661478760122
566,0.00538209037977256
567,0.00533221395013363
568,0.00538109491910289
569,0.00531244539053378
570,0.0053030970848165
571,0.00532510107730066
572,0.0053279528845481
573,0.00531656369191703
574,0.0053568842818139
575,0.00529442948631758
576,0.00530833254101345
577,0.00532223559570931
578,0.00533613865040518
579,0.00535004170510105
580,0.00536394475979692
581,0.00542129921206162
582,0.00538868804580123
583,0.00542369879320086
584,0.00531281062887323
585,0.00529690983398883
586,0.0051485124754573
587,0.00507545713545909
588,0.00502360191044652
589,0.00497174668543395
590,0.00491989146042138
591,0.00493940799864015
592,0.00497879756198722
593,0.00498145300387979
594,0.00504377671990263
595,0.00501466663578484
596,0.00504791645704298
597,0.00508095570630802
598,0.00506689088211974
599,0.00507421867597784
600,0.00509492064564503
601,0.00512345876901462
602,0.00515118315050908
603,0.00510346949857829
604,0.0051345129027216
605,0.00511859262797677
606,0.00511545742887768
607,0.00508825238813634
608,0.00501139235579457
609,0.00500734873832093
610,0.00496367212987368
611,0.00492485366568281
612,0.00489700637177932
613,0.00486202052993843
614,0.0047863470240424
615,0.00479220452848679
616,0.00476416448380274
617,0.00482769274651605
618,0.00480156413274519
619,0.00480291107262659
620,0.00477307980488919
621,0.00479141110806385
622,0.00470271234746229
623,0.00470206024964269
624,0.00465934769397578
625,0.00461663513830888
626,0.00457392258264197
627,0.00457002341127796
628,0.00453849325506798
629,0.00453468572833966
630,0.00456550566599727
631,0.00450640863756027
632,0.00449320307559688
633,0.00452598580689301
634,0.00449635182920067
635,0.0045371918980497
636,0.00450098288316952
637,0.00450824941595612
638,0.00447447561106665
639,0.00449880876300524
640,0.00445157638021699
641,0.00444509114390062
642,0.00440036375942645
643,0.00435888554004098
644,0.00431740732065552
645,0.00427592910127005
646,0.00428384057668431
647,0.00428514632039085
648,0.00418261453831409
649,0.00428350053104182
650,0.0041971707430675
651,0.00423199970793196
652,0.00417097082506654
653,0.0040772513330438
654,0.00400839159293015
655,0.00401939111937727
656,0.00398252668770544
657,0.00401791990137808
658,0.00405734126763726
659,0.00416072909901448
660,0.00419008062677427
661,0.00418472525695575
662,0.00418925957029909
663,0.00414982593135762
664,0.00412498349747465
665,0.00411605124813508
666,0.00414296160699718
667,0.00412322405710877
668,0.00411698217584493
669,0.00405062984514493
670,0.0040500203942635
671,0.00402343564522276
672,0.00399541495357483
673,0.00399733000040317
674,0.00400009540608198
675,0.00398533700393441
676,0.00397451424019042
677,0.00397694714093799
678,0.00394319142563464
679,0.00391694246521319
680,0.00400830889185105
681,0.00393184784680283
682,0.00383108413649851
683,0.00373447929814107
684,0.00360436618856955
685,0.00348571843617687
686,0.00341696135733708
687,0.00334509321348509
688,0.00329914115568138
689,0.00330329549550635
690,0.00335303567328922
691,0.00341671065635235
692,0.00342364835838622
693,0.00346937311250365
694,0.00349527409600886
695,0.00350593646012109
696,0.00353470264260526
697,0.00357362773194298
698,0.00352908491175814
699,0.00354575824632832
700,0.00359904834652123
701,0.00354903734463928
702,0.00361302985726292
703,0.00362378464771507
704,0.00368857554729136
705,0.0036529120359116
706,0.00374028118832891
707,0.00376854567042917
708,0.00377006732343682
709,0.00380996484684111
710,0.00375085452557017
711,0.00377359969225958
712,0.00375536537200162
713,0.00359731003270563
714,0.00351450476780277
715,0.00334833089428296
716,0.00317853133733427
717,0.00304231319727993
718,0.00305448245716299
719,0.00304871216662108
720,0.00307590596404539
721,0.00302803625031001
722,0.00311313124138978
723,0.00309713822325739
724,0.00306721280044788
725,0.00306193579847015
726,0.00305506755768211
727,0.00307153610495041
728,0.00310631335567476
729,0.00313642956966135
730,0.00322649912196878
731,0.00330027200179198
732,0.00338803799242415
733,0.00347881204458935
734,0.00352466950174244
735,0.00354531988069429
736,0.00360356185908609
737,0.00361023759602393
738,0.00361691333296176
739,0.0036235890698996
740,0.00365637675310207
741,0.00367487286538068
742,0.0036756101555811
743,0.00367634744578151
744,0.00367708473598193
745,0.00371608918492874
746,0.00365773764547163
747,0.00368553105890054
748,0.00361224538815038
749,0.00361402515028327
750,0.00360907696734855
751,0.00358487515284789
752,0.00360619149909101
753,0.00347100879633121
754,0.00349262911004189
755,0.00325798622949763
756,0.00302334334895337
757,0.00278870046840911
758,0.00243858744261589
759,0.00209662153125669
760,0.00190384283626749
761,0.00186023429832914
762,0.00193994338292597
763,0.00207449172563391
764,0.002270801262827
765,0.00245426934220768
766,0.0027266138801307
767,0.0029020454692857
768,0.00306573540650318
769,0.00311584531040245
770,0.00317568304519381
771,0.0031869705741623
772,0.00321392634572454
773,0.00324049327232457
774,0.00319525422234986
775,0.00319010325363917
776,0.0032367326711427
777,0.0031629972237122
778,0.00319672007267401
779,0.00313167804184358
780,0.00314380339021193
