"wavelength","measurement"
380,0.0218138710246779
381,0.0222008059698143
382,0.0221758285541024
383,0.0227912829798329
384,0.0229872618917022
385,0.0255354285017005
386,0.0261953063354601
387,0.028611364739649
388,0.0303430851656296
389,0.0324044014439459
390,0.0341617654289959
391,0.0344515631544148
392,0.0362332975180017
393,0.037623407985037
394,0.0404775499928511
395,0.0443021438209989
396,0.0513037412910663
397,0.0596509765069623
398,0.0679982117228583
399,0.0763454469387543
400,0.0816419329251454
401,0.0900581395365069
402,0.0954543326196723
403,0.10028782104588
404,0.103978847641846
405,0.107148127843615
406,0.112440413209196
407,0.116359497375201
408,0.11994693059587
409,0.12546076466864
410,0.134721220704938
411,0.136281974643397
412,0.142134709816613
413,0.147535588429079
414,0.149019273976763
415,0.152574021437017
416,0.152412812416441
417,0.153093618268643
418,0.156874275698656
419,0.15503258764327
420,0.158926552771044
421,0.159690157387219
422,0.159580508257021
423,0.162077659442877
424,0.163016644495271
425,0.161178449890633
426,0.159415619815369
427,0.154499267548702
428,0.151342041251094
429,0.150553975004366
430,0.151088970279551
431,0.15724887068446
432,0.162214718748838
433,0.167604588500059
434,0.174231373790359
435,0.178460862338881
436,0.180395277775732
437,0.183689366237145
438,0.186983454698559
439,0.190277543159972
440,0.19215165877734
441,0.195301501695528
442,0.199326794365836
443,0.200920761948807
444,0.204365783287037
445,0.207810804625266
446,0.211255825963496
447,0.215021573622038
448,0.215617319411368
449,0.22427704182532
450,0.22216799553501
451,0.220401824518947
452,0.219756122683236
453,0.219110420847526
454,0.218464719011815
455,0.218695596759064
456,0.219058058191924
457,0.221201852102066
458,0.223246918750631
459,0.227545799347126
460,0.227185103642017
461,0.225843036582876
462,0.232894889633503
463,0.225782169155737
464,0.224763404360352
465,0.222681960672093
466,0.220675941709815
467,0.220807754472046
468,0.220174286417534
469,0.219281159387094
470,0.22511118076931
471,0.225442554617061
472,0.227579064752452
473,0.23165086566132
474,0.233284579476627
475,0.238783121347738
476,0.233563832153267
477,0.234532134616318
478,0.235500437079368
479,0.236468739542419
480,0.236413250519441
481,0.231674354317478
482,0.228181124558717
483,0.227425379201736
484,0.221862644461812
485,0.217382243660227
486,0.220095174307961
487,0.221445150415127
488,0.223582981195561
489,0.229818084493141
490,0.231716967437491
491,0.233580608316936
492,0.239482938379846
493,0.236463560592557
494,0.239996604004906
495,0.236974674133425
496,0.238190699214095
497,0.234577396252088
498,0.235139015668978
499,0.230689336037097
500,0.231860445627259
501,0.229662301963568
502,0.233309226734048
503,0.235033897619678
504,0.232231816436433
505,0.239078342750906
506,0.237489841044494
507,0.238737750316878
508,0.240098443255361
509,0.239112410640844
510,0.235001623021011
511,0.238336710945788
512,0.236320207792497
513,0.229008197976709
514,0.227299142552071
515,0.222893719561379
516,0.221114301351243
517,0.220040343231712
518,0.218403923415932
519,0.223270142753977
520,0.227132164788368
521,0.229098388633946
522,0.231064612479524
523,0.233030836325103
524,0.231574028098685
525,0.231633990836917
526,0.23125296646233
527,0.230312963056032
528,0.231156621514278
529,0.234145517812986
530,0.233221339640431
531,0.234106577575865
532,0.232816358500235
533,0.234402766262688
534,0.234854203750777
535,0.232281179349138
536,0.234385389583233
537,0.233232759719118
538,0.230835312608836
539,0.229964785270682
540,0.230764469288655
541,0.229326807108376
542,0.227487618426534
543,0.228987061679179
544,0.230384645938122
545,0.228534439875742
546,0.230395925485402
547,0.230148082886492
548,0.229900240287582
549,0.229652397688672
550,0.229170479573165
551,0.229894818979619
552,0.232189705362223
553,0.229902021789872
554,0.228705786660744
555,0.230991591472665
556,0.227579698661496
557,0.227072160771216
558,0.225487443108776
559,0.223570607833404
560,0.226230721204221
561,0.222024173022038
562,0.225983429153092
563,0.222488699139049
564,0.223752835044943
565,0.22049011189604
566,0.219516492211661
567,0.216603227823473
568,0.219523768033584
569,0.216127526916601
570,0.216352162593654
571,0.217651570934783
572,0.217503749654981
573,0.218282160989447
574,0.220310638652223
575,0.217996602210604
576,0.218995077787838
577,0.219993553365071
578,0.220992028942305
579,0.221990504519539
580,0.222988980096772
581,0.226218571816962
582,0.225278275340128
583,0.228131261921477
584,0.224241885174201
585,0.223718513107206
586,0.217923646540465
587,0.215071299662325
588,0.213305499087761
589,0.211539698513197
590,0.209773897938634
591,0.211654727263928
592,0.213955924787032
593,0.214378837456232
594,0.217353625201552
595,0.217908791444283
596,0.22000478963194
597,0.22104514800266
598,0.221829512378855
599,0.222494898121196
600,0.224548621258169
601,0.225992801289385
602,0.227336055108603
603,0.226581698490573
604,0.229277965622687
605,0.228259633382767
606,0.228570766710257
607,0.227873792111897
608,0.225756715051151
609,0.225683122355978
610,0.224124685708632
611,0.223325332791205
612,0.221306794581742
613,0.221354351013487
614,0.219584514231942
615,0.222329900652262
616,0.219660450659119
617,0.221631286533019
618,0.221366069116302
619,0.222778901994294
620,0.222521346152125
621,0.224250462902354
622,0.220063456131913
623,0.2203031396292
624,0.218945887712393
625,0.217588635795587
626,0.21623138387878
627,0.216847799332741
628,0.216455637158633
629,0.216058857005551
630,0.217889498643511
631,0.215369356659812
632,0.21719031346429
633,0.218271232922095
634,0.218828227355866
635,0.220326247352452
636,0.217779404624178
637,0.221124079160858
638,0.219550167360331
639,0.220687316155927
640,0.219445253092333
641,0.21861770063499
642,0.218119907588879
643,0.216897330319443
644,0.215674753050006
645,0.21445217578057
646,0.215919338994378
647,0.214739601930188
648,0.211594599587255
649,0.215315980584404
650,0.213309211894296
651,0.214816851097504
652,0.212827628110889
653,0.210553011260866
654,0.206957018054669
655,0.209164579896181
656,0.207371212302522
657,0.209670462154303
658,0.211870514327992
659,0.216459463511443
660,0.2196282026785
661,0.220912764478592
662,0.222155955528773
663,0.221418575845794
664,0.220094654941134
665,0.221032727670909
666,0.221424436517072
667,0.222780525754893
668,0.221912590738071
669,0.2203854347194
670,0.21977200334465
671,0.220255180437737
672,0.218583407692136
673,0.219784119572702
674,0.219874207272958
675,0.22035690954574
676,0.220264634138579
677,0.221446485482221
678,0.218952187364914
679,0.218952667672157
680,0.223918461749842
681,0.22182454217152
682,0.215586625668829
683,0.211387924690555
684,0.204518574252064
685,0.199407466032749
686,0.195052332487511
687,0.191115175248108
688,0.190685239265675
689,0.190360747385279
690,0.1935122908822
691,0.197892495037562
692,0.199381949066991
693,0.201513342297556
694,0.20449580629381
695,0.205220916276979
696,0.20866877560477
697,0.210328475674965
698,0.208283932289759
699,0.209448412878337
700,0.213841703161359
701,0.212879368205196
702,0.217102873043221
703,0.21805529697217
704,0.222308459061284
705,0.223681473238954
706,0.227809576541636
707,0.230539092269825
708,0.231964329977851
709,0.235346834439927
710,0.234186815242919
711,0.235376174785768
712,0.236767136557158
713,0.228059565079325
714,0.22301582963394
715,0.212901415764658
716,0.203853471108279
717,0.196786226849525
718,0.196716014685016
719,0.198082759249116
720,0.20131614800009
721,0.201299271301824
722,0.206527145006313
723,0.206504209688218
724,0.206975758658637
725,0.207773685425228
726,0.207619629029109
727,0.212124684004941
728,0.216005379284014
729,0.221950284269735
730,0.227676732762787
731,0.234973005293205
732,0.242914058114106
733,0.251353467759329
734,0.255910970831678
735,0.259110335414238
736,0.264756782111507
737,0.267535320959553
738,0.2703138598076
739,0.273092398655646
740,0.2790915598913
741,0.280384314958941
742,0.283192423482897
743,0.286000532006853
744,0.288808640530809
745,0.291216021030652
746,0.290942423246379
747,0.294556797024397
748,0.290507948974204
749,0.293993983915693
750,0.293970897515919
751,0.293370836614636
752,0.299057233729988
753,0.296436908067866
754,0.29345377524132
755,0.274640296862729
756,0.255826818484138
757,0.237013340105547
758,0.206352371959834
759,0.18116455004979
760,0.163371144450277
761,0.161689200814936
762,0.167203456283749
763,0.181569768552668
764,0.199711895207466
765,0.218465932151412
766,0.240790694045043
767,0.260619449317752
768,0.273844351228518
769,0.280998744354508
770,0.289694225040923
771,0.292568193315619
772,0.297622131992486
773,0.300792081512745
774,0.298815917990796
775,0.300426820170612
776,0.300945579712316
777,0.297483911713413
778,0.302716910337419
779,0.299434962395836
780,0.304558672924807
