"wavelength","measurement"
380,0.00471309953401095
381,0.00447228803938884
382,0.00457330673039957
383,0.00446616238823809
384,0.00456140534869732
385,0.00480778765952924
386,0.00505544437985683
387,0.00531878260339391
388,0.00554695791140808
389,0.00567948607785
390,0.0057497823287986
391,0.00577324011895955
392,0.00589337794822932
393,0.00609534126173865
394,0.006186894149983
395,0.00679644075164543
396,0.00762147029744237
397,0.00864859785093935
398,0.00967572540443632
399,0.0107028529579333
400,0.0112094433206803
401,0.0120045099055864
402,0.0125472704640985
403,0.0129399236332037
404,0.0131031701977499
405,0.013302225106731
406,0.0136269487278679
407,0.0138905057275729
408,0.0141280682387537
409,0.0145730548888104
410,0.015289775141805
411,0.0153484997570151
412,0.0158209177596526
413,0.0161877007875711
414,0.0161627034433899
415,0.0162703073895728
416,0.0162370345035893
417,0.0161503126864335
418,0.0163475472918803
419,0.0160314042904008
420,0.0163719025007133
421,0.0163981551189694
422,0.01654020626252
423,0.0166455213299369
424,0.0166605008284896
425,0.0164486579281179
426,0.016231428831163
427,0.0157693833652191
428,0.0152838800846784
429,0.015379072434287
430,0.015443256968473
431,0.0159953689763097
432,0.0165739756875983
433,0.0172345480819053
434,0.0180558169114793
435,0.0184530094842391
436,0.0185811510296513
437,0.0189587233594965
438,0.0193362956893416
439,0.0197138680191868
440,0.0198360124117458
441,0.0202915828445468
442,0.0208515268528442
443,0.0211276780359324
444,0.0215563265037052
445,0.021984974971478
446,0.0224136234392509
447,0.0228647530545037
448,0.0230866166371422
449,0.0240131859981637
450,0.0239951612450048
451,0.0237781963423042
452,0.0237404975730075
453,0.0237027988037108
454,0.0236651000344141
455,0.0236414133679149
456,0.0236245448670178
457,0.0238906748217877
458,0.0239150305077369
459,0.0242891592708273
460,0.0241927947986413
461,0.0239824109647885
462,0.0246266980158273
463,0.0238237621432676
464,0.0235231872220929
465,0.0233477152922612
466,0.0230180399824945
467,0.022955426932909
468,0.0227231341546208
469,0.0224618984027283
470,0.023047008574595
471,0.0229266250653534
472,0.0230971988605606
473,0.0233237048190531
474,0.0234639851399471
475,0.0237330644219344
476,0.0232947246315889
477,0.0232983041949601
478,0.0233018837583313
479,0.0233054633217025
480,0.0231801157623831
481,0.0225810860170316
482,0.022233921751219
483,0.0221892417027457
484,0.0216514400235212
485,0.0211932448309349
486,0.021505446554861
487,0.0216521349466478
488,0.0219178581152176
489,0.0224665656875639
490,0.0227069986127141
491,0.0228763063003851
492,0.0234466675069529
493,0.0232686118833784
494,0.0236276089276569
495,0.0233614785240007
496,0.023549125957351
497,0.023095339518532
498,0.0233270673816459
499,0.0228001993801906
500,0.0230144617966134
501,0.0228739628942915
502,0.0232742109315195
503,0.0234448687810553
504,0.0232471347812423
505,0.0240260440206516
506,0.0239115098294086
507,0.0241167149447886
508,0.0242240564819582
509,0.0242693213095806
510,0.0239194748497294
511,0.0242908010437239
512,0.0240547524032646
513,0.0235477150775794
514,0.0233577353345003
515,0.023043635978016
516,0.0229420631421979
517,0.0229471877824909
518,0.0229011044091262
519,0.023414076108608
520,0.0239137242852523
521,0.0241998976054859
522,0.0244860709257194
523,0.024772244245953
524,0.0246820001888773
525,0.0247916469370895
526,0.0248176129409556
527,0.0247513808309173
528,0.0249181053320747
529,0.0252991748441007
530,0.0253672188213488
531,0.025393685400155
532,0.0253614641636196
533,0.0256422145579647
534,0.0257261393887207
535,0.0254637825651139
536,0.0257662984381525
537,0.0256143920096762
538,0.0254908090907199
539,0.0254048842376455
540,0.0255236757268833
541,0.0254713438721931
542,0.0253028422485566
543,0.0254556457447576
544,0.0256592621306429
545,0.0254792156342953
546,0.0256962855330894
547,0.025690365569497
548,0.0256844456059046
549,0.0256785256423122
550,0.0254944651141366
551,0.0257742008750869
552,0.0260247394766006
553,0.0257914991688279
554,0.0256636285893743
555,0.025978056587838
556,0.0256733143113108
557,0.025661294857191
558,0.0255443067256829
559,0.0253399398179274
560,0.025698940919408
561,0.0252945861559393
562,0.0257619569224393
563,0.0254034895278802
564,0.0255514189323873
565,0.0252547575240544
566,0.0251416068485658
567,0.0248731507073735
568,0.0250566451448031
569,0.0248075584124431
570,0.0248227513155087
571,0.0249165844141133
572,0.0249329894012127
573,0.0249619065524637
574,0.0251914464320562
575,0.0248679358261281
576,0.0249722867880297
577,0.0250766377499314
578,0.0251809887118331
579,0.0252853396737347
580,0.0253896906356364
581,0.0257025398501297
582,0.0255450907450996
583,0.0257097006663055
584,0.0253387682183924
585,0.0252644721951019
586,0.0245563885827114
587,0.0241883560225737
588,0.0239609680104091
589,0.0237335799982445
590,0.02350619198608
591,0.0236795687550412
592,0.0238578684405094
593,0.0239311288854568
594,0.0243036575078876
595,0.0242219789317671
596,0.0244889762870412
597,0.0246481822095977
598,0.0247030817956642
599,0.024750039638386
600,0.0250098482943421
601,0.025170616308195
602,0.0252725164265834
603,0.0251665755682883
604,0.0255078103544399
605,0.0253227681409261
606,0.0253499713041517
607,0.0252888075567035
608,0.025020385102797
609,0.0250322273550924
610,0.0248213949218743
611,0.0247652802660394
612,0.0245347393195716
613,0.0243867381288289
614,0.0241367716000141
615,0.0243807747778788
616,0.0240810082664378
617,0.0243068037280767
618,0.0242930797399528
619,0.0243196431462514
620,0.0242594031183751
621,0.0243901773015787
622,0.0239147152637096
623,0.0238755066709134
624,0.0237048558845228
625,0.0235342050981322
626,0.0233635543117417
627,0.0234131572289972
628,0.0233175877441758
629,0.0232139247102783
630,0.023382780804726
631,0.0230769550277189
632,0.0231728680394357
633,0.0233586064018143
634,0.0233753730821133
635,0.0234539876492827
636,0.0233097801479932
637,0.0235018332985194
638,0.0232976746325992
639,0.0234159660692711
640,0.0232515090280813
641,0.0231868932924463
642,0.0230062101883156
643,0.0228373410763114
644,0.0226684719643071
645,0.0224996028523029
646,0.0225320517530587
647,0.0225355297493427
648,0.0220944997671611
649,0.0225193898763105
650,0.0222403308810815
651,0.0224262773908304
652,0.0221669927640783
653,0.0218128802310225
654,0.0214275412944282
655,0.021580578619663
656,0.0214496397188538
657,0.0215927600042115
658,0.0219132147599564
659,0.022418777811313
660,0.0226462089571318
661,0.0227084241807215
662,0.02281013723259
663,0.0227103595432573
664,0.0225539201452489
665,0.022586087964949
666,0.0225807830983151
667,0.022654227122273
668,0.0227370512135756
669,0.0223270655818082
670,0.0224371088038244
671,0.0223048962300475
672,0.0222552302314133
673,0.0223561979854067
674,0.0224051896743421
675,0.0223790198490516
676,0.0223453595208536
677,0.0224877415138689
678,0.0222647414417327
679,0.0222309021002377
680,0.0226691925320427
681,0.0223608202777578
682,0.0218315928120281
683,0.0214374227605253
684,0.0206579835021592
685,0.020089572011567
686,0.0196321988566607
687,0.0191784878270346
688,0.019126019323935
689,0.0192158772983192
690,0.0194995427762811
691,0.0199041456664634
692,0.0200569949188337
693,0.0202676366286561
694,0.0205633130572586
695,0.0206612384130398
696,0.0210195881973215
697,0.0212388118757249
698,0.0210266822091287
699,0.0211046127329993
700,0.0215698137058536
701,0.0215596601649764
702,0.0220014844475611
703,0.022209759116906
704,0.0226298689066509
705,0.022792807628113
706,0.0232250470555576
707,0.0236530404286512
708,0.023812077402168
709,0.0242319236382525
710,0.0240941427992068
711,0.0242208510215886
712,0.0244006446923626
713,0.0235068223537819
714,0.0230605745333633
715,0.0218829195341268
716,0.0209451645568348
717,0.0204229378001986
718,0.0202873181559027
719,0.0206252340329232
720,0.0210579460875348
721,0.0210742160345702
722,0.0217622043596537
723,0.0217722504485354
724,0.0218496979873404
725,0.0220979791476588
726,0.0221092944469165
727,0.0227393879590032
728,0.0232513276624397
729,0.0240504707726356
730,0.0247755611301636
731,0.0258267685854818
732,0.0267898958856554
733,0.027841564149968
734,0.0285411519720635
735,0.0291483142014802
736,0.029716470172844
737,0.030189267139516
738,0.0306620641061881
739,0.0311348610728602
740,0.0318405556221065
741,0.0321800296279592
742,0.0325633564487986
743,0.0329466832696381
744,0.0333300100904775
745,0.0337240144348468
746,0.033690771590969
747,0.0340653734573707
748,0.0338210954813231
749,0.034108011457794
750,0.0342145459108695
751,0.0342904176490685
752,0.0347374557572865
753,0.0345531181579518
754,0.0341192165460418
755,0.0318637460294116
756,0.0296082755127814
757,0.0273528049961512
758,0.0238290885288936
759,0.0205549830379178
760,0.0185996729496262
761,0.0183491070905245
762,0.0190958540499244
763,0.0208416096760394
764,0.0231309029746158
765,0.0254553907914975
766,0.0279660294466797
767,0.0304840048855674
768,0.0320540580268781
769,0.0330982295568106
770,0.0340100500572039
771,0.0343398761006023
772,0.0347107499250913
773,0.0352607072065193
774,0.0350434564028268
775,0.0353310804923461
776,0.0353017482304936
777,0.034985587861947
778,0.0354789678803613
779,0.035125292452015
780,0.0355620015110972
