"wavelength","measurement"
380,0.00587442021669049
381,0.00565912773829449
382,0.00566775037479983
383,0.00551894290755633
384,0.00556435437337831
385,0.00584979791480959
386,0.00626109329117908
387,0.0064032865594311
388,0.00677159222587997
389,0.00707531335911496
390,0.00708832285093133
391,0.00717783610371091
392,0.00729608661301147
393,0.00752573853975554
394,0.00780253673052084
395,0.00833062529947052
396,0.00940949397005155
397,0.0105585291727424
398,0.0117075643754333
399,0.0128565995781242
400,0.013737738194575
401,0.0148937126849461
402,0.0155761678495297
403,0.0158615684102925
404,0.0162966671657962
405,0.0164797336992842
406,0.0170302020149954
407,0.0173047025480988
408,0.0175694977854266
409,0.0180074316636139
410,0.0190024152001374
411,0.0191045901453271
412,0.0194803572995143
413,0.0201853066092422
414,0.0199899208519566
415,0.0203160418827798
416,0.0202196709012729
417,0.0201864140373361
418,0.0203450576297385
419,0.0200850036321732
420,0.0203463974548528
421,0.0202799177300436
422,0.0204672914495109
423,0.0208316368278169
424,0.0208913080247793
425,0.0203968009270547
426,0.020185446844141
427,0.019638930485729
428,0.0191061997185686
429,0.0192364000572696
430,0.0193304686643233
431,0.0200502244501903
432,0.0208103296918263
433,0.0215231294181231
434,0.0225576599295092
435,0.0231141885280938
436,0.0231650996161057
437,0.023639867972875
438,0.0241146363296442
439,0.0245894046864135
440,0.0247062174675163
441,0.0252101076821502
442,0.0258471609393195
443,0.0262557183310012
444,0.0267554468551834
445,0.0272551753793656
446,0.0277549039035477
447,0.0283186252390362
448,0.0285951559144046
449,0.0297307844464768
450,0.0296255743522514
451,0.0295135272329113
452,0.0294434235188099
453,0.0293733198047086
454,0.0293032160906073
455,0.0292774314726191
456,0.0293649899081556
457,0.0297767798242325
458,0.0298368939331893
459,0.0302487925712888
460,0.030190929462324
461,0.0298319877878661
462,0.0307079471676278
463,0.0297924573088751
464,0.0293894684668864
465,0.0292282401445837
466,0.0288125261767655
467,0.0288039158601384
468,0.0286270272360173
469,0.0282645062344081
470,0.0289110739896866
471,0.0289237329297135
472,0.0291303139063253
473,0.0293448215332596
474,0.0295067161434257
475,0.0299121022162791
476,0.0292189402533872
477,0.0292619096122288
478,0.0293048789710703
479,0.0293478483299118
480,0.0293374849920157
481,0.0286964166573504
482,0.0280994637578812
483,0.0280309117274318
484,0.0272993145672873
485,0.0268301682194561
486,0.0269970770362313
487,0.0273899087717727
488,0.0276542719321868
489,0.0283460710093198
490,0.0285923836302419
491,0.0289057780951391
492,0.0297188374408144
493,0.0293566834758564
494,0.029869053858888
495,0.0294996076284128
496,0.0297305324608648
497,0.0292134180661496
498,0.0294560872030263
499,0.028763719237749
500,0.0290380520320021
501,0.0289556039320301
502,0.0294397862640785
503,0.0296209620441336
504,0.0293313555859381
505,0.0304171250543579
506,0.0302327534265573
507,0.0304140398348193
508,0.0306410352640646
509,0.030722109659668
510,0.0302871679062603
511,0.0306213996082268
512,0.0304694538555146
513,0.0296714597708145
514,0.0295792463126315
515,0.0291056749684434
516,0.028936231241856
517,0.0288605638848643
518,0.0288905467220266
519,0.0295286719452671
520,0.0301501316136819
521,0.0305493962415173
522,0.0309486608693526
523,0.0313479254971879
524,0.0311227602977258
525,0.0312198573700673
526,0.0313052854927833
527,0.0311562854288079
528,0.0315110067198705
529,0.0319725290472816
530,0.0319968129375776
531,0.0321904182205963
532,0.0320518053807693
533,0.0324270969647847
534,0.0325245101865999
535,0.0322333026123798
536,0.0326042764682539
537,0.0323611624407902
538,0.0320914738478361
539,0.0320591883239539
540,0.0323586999283232
541,0.0321120495216751
542,0.0319878465854722
543,0.0320736663516674
544,0.032411939018948
545,0.0321638469366704
546,0.0325091095662598
547,0.0324727864889574
548,0.0324364634116549
549,0.0324001403343525
550,0.0323890705657782
551,0.0326960653014739
552,0.0328740141220611
553,0.0326496641897025
554,0.0325322665427505
555,0.0329026452414651
556,0.0324882168532183
557,0.0325035182742315
558,0.032266816365873
559,0.0321936910337816
560,0.0324841892781767
561,0.0320781763850468
562,0.0326006021083718
563,0.032139238263
564,0.0324237411443608
565,0.0319797870675006
566,0.0317986757057475
567,0.0315859292042168
568,0.0318974018802917
569,0.0315302408709373
570,0.0315037306026905
571,0.0316051891372014
572,0.0316563344409969
573,0.0317552596218787
574,0.0319649743824349
575,0.0315948903012827
576,0.0317206084956721
577,0.0318463266900615
578,0.0319720448844509
579,0.0320977630788403
580,0.0322234812732296
581,0.0327160752992449
582,0.0324799272108956
583,0.0327990008200427
584,0.0322518703785333
585,0.0321612483478433
586,0.0312645511132018
587,0.0307895141012547
588,0.0304911399790147
589,0.0301927658567747
590,0.0298943917345347
591,0.0301787902002272
592,0.0304340075552943
593,0.0304950515191292
594,0.0309661266329676
595,0.0309060497008681
596,0.0311929054839937
597,0.031438931189962
598,0.0314647645797326
599,0.0314992453987487
600,0.031833918788774
601,0.0320837242070603
602,0.0323123338543136
603,0.0321300941096647
604,0.0324726342526837
605,0.032348033834934
606,0.0323048857202299
607,0.0322660289708415
608,0.03189652460738
609,0.0319740258693865
610,0.0317243766308294
611,0.0315964990948519
612,0.0313485483536493
613,0.0312378316625304
614,0.0308922288514579
615,0.0313345496723663
616,0.0307647899803833
617,0.0311135793715925
618,0.0310254158437187
619,0.0311865304316749
620,0.0310667697258981
621,0.0312440802396675
622,0.0306373583184578
623,0.0307062320151226
624,0.0304983035442721
625,0.0302903750734217
626,0.0300824466025713
627,0.0300653022151214
628,0.029938767370066
629,0.0298678612040165
630,0.030077990006224
631,0.0297616372421956
632,0.0298736606165671
633,0.0299551832578966
634,0.0300485002746866
635,0.0303432647939081
636,0.029967078075723
637,0.0303173211186894
638,0.0300361691734008
639,0.0302287433494234
640,0.029973323422174
641,0.0299449520454335
642,0.029728751674087
643,0.0295109513472904
644,0.0292931510204938
645,0.0290753506936972
646,0.0291486775489864
647,0.0291754775234488
648,0.028736343698253
649,0.0290722794730407
650,0.0288289153060818
651,0.0291024367525487
652,0.0286242653322493
653,0.0282264966537428
654,0.0277544850492513
655,0.0279858699012661
656,0.0278821117585442
657,0.0280978985127861
658,0.0284106657555759
659,0.0291231426615142
660,0.029435844589041
661,0.0294745233400141
662,0.029648262380101
663,0.0295689583401607
664,0.0293362682285767
665,0.0293685409747291
666,0.0293922953479962
667,0.0294832064535324
668,0.029598354420561
669,0.0290103294595513
670,0.0292110175779353
671,0.0292778288479473
672,0.0289851914550817
673,0.0291407190848591
674,0.0292357571481678
675,0.0291480043762777
676,0.0292278180245876
677,0.0294024925282539
678,0.0289905849266049
679,0.0289940542294138
680,0.0296096775917188
681,0.0291553726423049
682,0.0284218387320858
683,0.027878109193608
684,0.0269443411983376
685,0.0261185060761961
686,0.0256205232593552
687,0.0251139375496445
688,0.0249886775021374
689,0.0251143749528777
690,0.0253626391333816
691,0.0259301789504043
692,0.0260720048889868
693,0.0263256104666102
694,0.0268273030166064
695,0.026894339030466
696,0.0273397769529549
697,0.0276152619854728
698,0.0273804805459042
699,0.0274796062363704
700,0.0280692039951583
701,0.0279525895459458
702,0.0285876592570701
703,0.0287619817588355
704,0.0293842853215325
705,0.0295094932202516
706,0.0300485587572603
707,0.0306631323858605
708,0.0307923596003669
709,0.0313578229543366
710,0.0310282960014918
711,0.0312054394891748
712,0.0313590915772949
713,0.030240629857186
714,0.0296104124496026
715,0.0280646769947698
716,0.027086200057321
717,0.0262481738177062
718,0.0263649054289771
719,0.0266278056564829
720,0.027035871154192
721,0.0269117682106735
722,0.0278606398404249
723,0.0279484067211599
724,0.0280753478973649
725,0.0282258315641548
726,0.0284235786537834
727,0.0290387791544687
728,0.0297088564774063
729,0.0306220705870582
730,0.0315750160342059
731,0.0328397057117059
732,0.0340050056513491
733,0.0353401073212639
734,0.0362098668115555
735,0.0367794261347504
736,0.0375093307286489
737,0.0380531993756464
738,0.0385970680226438
739,0.0391409366696412
740,0.040039625055896
741,0.040527353371627
742,0.0409967171875386
743,0.0414660810034503
744,0.041935444819362
745,0.0421886051972407
746,0.0423551165103361
747,0.0425830711390436
748,0.0423830567080434
749,0.0426907526715838
750,0.0430221756841042
751,0.0429008264119845
752,0.0436697551602282
753,0.0433439860057137
754,0.0429189700487363
755,0.0400572966979564
756,0.0371956233471766
757,0.0343339499963967
758,0.0298678077283485
759,0.0259504505581155
760,0.0235011985422639
761,0.0232719771363206
762,0.0241005855876288
763,0.0262936827831842
764,0.0291202360619461
765,0.0318884631301108
766,0.0352401587353214
767,0.0382929136453899
768,0.0399964716615259
769,0.0415687279616569
770,0.0425656750554781
771,0.0429916667555096
772,0.0435395956715983
773,0.0442834827058826
774,0.0439906677340421
775,0.0441725992382394
776,0.0443546781680119
777,0.0439372713971414
778,0.0445404538951792
779,0.0440340227495924
780,0.0447315003092829
