"wavelength","measurement"
380,0.01252693013412
381,0.0118984922310602
382,0.0120113497020321
383,0.0114314607084899
384,0.0117552023197005
385,0.0122044135933687
386,0.0126909152777979
387,0.0131777480471699
388,0.0137541199835115
389,0.0142591513305349
390,0.0142032396732481
391,0.0141567602864844
392,0.0142615708038956
393,0.0146064107461744
394,0.0148205584532972
395,0.0157161289168979
396,0.0175648582356869
397,0.0194787786644258
398,0.0213926990931646
399,0.0233066195219035
400,0.0244670130891178
401,0.0259559744865556
402,0.0270597909919601
403,0.027270719466773
404,0.0276639340659658
405,0.0275935044914074
406,0.0279805176208583
407,0.0282975298542274
408,0.0284487714896334
409,0.0291209016097234
410,0.0303128192167381
411,0.0301603871210232
412,0.0309599689341362
413,0.0315209378126258
414,0.0313252765011339
415,0.0315845181529164
416,0.0313903862075513
417,0.031044637877489
418,0.0314053904137146
419,0.0307180634427085
420,0.0312754632942965
421,0.0311504778693205
422,0.0313189482914597
423,0.0313365773556116
424,0.0315082358787474
425,0.0308437006281277
426,0.0304500854044449
427,0.0293467950048481
428,0.0284873051283125
429,0.0285779666767081
430,0.0283752724868708
431,0.0295437051162404
432,0.0304475735235586
433,0.031451195353781
434,0.0325550449372554
435,0.0334705296006387
436,0.0334043453790909
437,0.0339776743499442
438,0.0345510033207976
439,0.0351243322916509
440,0.0352155719912269
441,0.035669749794826
442,0.0363281031165623
443,0.0366701645019599
444,0.0371780772568048
445,0.0376859900116497
446,0.0381939027664946
447,0.0386679005027244
448,0.0387882832850415
449,0.0403237811712628
450,0.0398665854907125
451,0.0395961512982842
452,0.0394127505394168
453,0.0392293497805494
454,0.039045949021682
455,0.0390734670547759
456,0.0388964567477936
457,0.0394607157979554
458,0.0395076571196368
459,0.0400247229590014
460,0.040080505316628
461,0.0394793050845035
462,0.0407336083368826
463,0.0392731747303899
464,0.0387398018108267
465,0.0384639198857159
466,0.0379651194222783
467,0.0380027087275967
468,0.0374550386312835
469,0.0371843300270803
470,0.0377633332668768
471,0.0377705443619421
472,0.0378988304714317
473,0.0383131187869272
474,0.038466464665859
475,0.0387414044605687
476,0.0379073776201597
477,0.0378703191037743
478,0.0378332605873889
479,0.0377962020710035
480,0.0377620645129366
481,0.0367922084600703
482,0.0359473848265309
483,0.0359328942183832
484,0.0349499570060442
485,0.0341660383658926
486,0.0345049379757862
487,0.034758539357426
488,0.0350380898166195
489,0.035937822117592
490,0.036193499038328
491,0.0364833592672482
492,0.0372510097687165
493,0.0368723886520074
494,0.0373869575693545
495,0.0368663532773691
496,0.0371306989147789
497,0.0365149987623189
498,0.0365774603541107
499,0.0358849953741692
500,0.036090641933921
501,0.0357641767577269
502,0.0364200092774172
503,0.0366095180391808
504,0.036196914515984
505,0.037368880582593
506,0.0372554204190867
507,0.0374078647194918
508,0.0377621807732292
509,0.0376432876954825
510,0.037188180575469
511,0.0377709442161044
512,0.0374884780025384
513,0.0363988554852106
514,0.0363597347248464
515,0.0357664992823327
516,0.035544865788896
517,0.0356481311411395
518,0.0355105424642105
519,0.0364164870666252
520,0.0371304644180613
521,0.0375911989597273
522,0.0380519335013932
523,0.0385126680430592
524,0.0382506107220642
525,0.038517533070385
526,0.0388060356786364
527,0.0386597812664238
528,0.0389421855391528
529,0.0393937357647132
530,0.0394767626372156
531,0.0396471584259771
532,0.0395764473414668
533,0.0400265435674642
534,0.040218078120592
535,0.0398232372175323
536,0.0402052155058645
537,0.0399936833446912
538,0.0396777045487247
539,0.0395830710168976
540,0.0397630763925374
541,0.0394871667846824
542,0.0392397585086236
543,0.0394314252420267
544,0.0397239317616503
545,0.0394207908025259
546,0.0398280466127645
547,0.0398117555048388
548,0.0397954643969131
549,0.0397791732889875
550,0.0396986424646991
551,0.0399132306549908
552,0.040326992840065
553,0.0399418762068844
554,0.0397438205269292
555,0.0401260256507959
556,0.0396433110474873
557,0.0395598915698596
558,0.0393512243133868
559,0.0391125508737613
560,0.0394581928507795
561,0.0388248629883103
562,0.0394671544708901
563,0.0388505514177685
564,0.0389358643621284
565,0.0384590996490221
566,0.0382209999850717
567,0.0376741865212181
568,0.0379069990007678
569,0.0375113174019282
570,0.0374313388472074
571,0.0375323989272167
572,0.0374299628232558
573,0.0373853920519274
574,0.0376068453853863
575,0.0372073906557256
576,0.0372919978302657
577,0.0373766050048058
578,0.0374612121793459
579,0.037545819353886
580,0.0376304265284261
581,0.0379822066756004
582,0.0377523238656416
583,0.0379788598656276
584,0.0372911879105031
585,0.0370396024944998
586,0.0358392208657494
587,0.0352575438098959
588,0.0348087877087392
589,0.0343600316075824
590,0.0339112755064257
591,0.0340635046907873
592,0.0344379376862074
593,0.0344463075857431
594,0.0349393791038186
595,0.0348185467421117
596,0.0351705846498645
597,0.0354123876565043
598,0.0353964740788257
599,0.0355016417182239
600,0.035840863835514
601,0.0360314381256262
602,0.0362337012883647
603,0.0360210849366521
604,0.036449578509146
605,0.0362555605329879
606,0.0361718615416882
607,0.0359870119670854
608,0.0356008961704063
609,0.0354237798785052
610,0.0351527983969372
611,0.0349410559837769
612,0.0346923701362395
613,0.0344616177314711
614,0.0340303659762061
615,0.0345812477216502
616,0.0339418550749734
617,0.0344091757511619
618,0.0343425583504549
619,0.0342840543026376
620,0.0342095057512192
621,0.0344316062962881
622,0.0337245793573669
623,0.03372678193932
624,0.0334300175788045
625,0.0331332532182889
626,0.0328364888577734
627,0.0329217131408683
628,0.0326626428914664
629,0.0325722202580973
630,0.0328628669272495
631,0.0324003879754204
632,0.0326076739282319
633,0.0327478313882122
634,0.0329959123952566
635,0.0330922256264335
636,0.0326685297857982
637,0.0329901519046653
638,0.032826514149766
639,0.0329511750635543
640,0.0327693424236335
641,0.0325290267183215
642,0.0324073350792946
643,0.0321206259797262
644,0.0318339168801578
645,0.0315472077805894
646,0.0315895487840903
647,0.0314580081823929
648,0.0308525632217418
649,0.0314205876463697
650,0.0310228431090221
651,0.0312892722269664
652,0.0309109373043424
653,0.0304493138917618
654,0.030035284507083
655,0.0302468219765129
656,0.0299189359857922
657,0.0303183305339346
658,0.0307059136748533
659,0.0312808012938306
660,0.0317204296416488
661,0.0317296032972943
662,0.0318771388671067
663,0.0317692420814497
664,0.0314846602109489
665,0.0317264299318326
666,0.0315531341917309
667,0.031742455564335
668,0.0317129510886435
669,0.0311902764014667
670,0.0313508853175046
671,0.0311280534506047
672,0.0309733217332252
673,0.0311490311076839
674,0.0312878686865135
675,0.0311703602903109
676,0.0310757071926656
677,0.0312677693044524
678,0.0309601695931726
679,0.0309368325377544
680,0.0317458949184307
681,0.0311662562400765
682,0.0304529742131144
683,0.0297183242333436
684,0.0287777179818013
685,0.0279615193781465
686,0.0273666661072266
687,0.0268126628325778
688,0.0267160765427556
689,0.0269517884150759
690,0.0273782687045843
691,0.0280625333596441
692,0.0283248282545586
693,0.0287162135844058
694,0.0293149220362554
695,0.0295033218475888
696,0.0301345527431867
697,0.0305403390169071
698,0.0303612287247954
699,0.0305127584018808
700,0.0313961972966534
701,0.0315125065890459
702,0.0322398859259385
703,0.0326478734213487
704,0.0334019937883935
705,0.0337320247569795
706,0.0345937588158831
707,0.0353211353557829
708,0.0354120206647643
709,0.0362316823462877
710,0.03631786525529
711,0.0363572487049123
712,0.0366774905916268
713,0.0353589283867095
714,0.0347542586792243
715,0.0328876174585973
716,0.0314891946029357
717,0.0307020518637072
718,0.0305912800006217
719,0.031101428215627
720,0.0318358653557711
721,0.0319626126170761
722,0.0329660343155236
723,0.0329359135942828
724,0.0331369476491178
725,0.0333667125502697
726,0.0335736616260804
727,0.0344480268222545
728,0.035155903590768
729,0.0363622866749325
730,0.037639262555305
731,0.0391726498108661
732,0.0407000238978353
733,0.0423615575674358
734,0.0434564379078071
735,0.044190866743056
736,0.0451341255394211
737,0.0457940510973709
738,0.0464539766553207
739,0.0471139022132704
740,0.0480973265751938
741,0.0488736575192797
742,0.0493350906075268
743,0.0497965236957739
744,0.050257956784021
745,0.0509744789184406
746,0.0510087548305313
747,0.0514007115479251
748,0.0510032217550132
749,0.0514482346245081
750,0.0515354667085749
751,0.0513129260969161
752,0.0521829297803851
753,0.05182818554073
754,0.0512292442591005
755,0.047829422270463
756,0.0444296002818254
757,0.0410297782931878
758,0.0355801523638368
759,0.0307074328244051
760,0.027745948264112
761,0.0271274500233246
762,0.0280275714344381
763,0.0305127171174759
764,0.0339800862631356
765,0.0372176097649725
766,0.0411228348857279
767,0.0448365414098983
768,0.0471001944501194
769,0.0485405402504885
770,0.0500723661180556
771,0.0506526442870844
772,0.0512857254535822
773,0.052017348030003
774,0.0518237594784013
775,0.0520426157393744
776,0.0522792213276528
777,0.0515337923267354
778,0.0525739115438842
779,0.0518339156847561
780,0.0526368119196806
