"wavelength","measurement"
380,0.0196230027869069
381,0.0190661107821075
382,0.0196001064219069
383,0.0212902157368513
384,0.0217644314388944
385,0.0241657597859367
386,0.0259763870308336
387,0.0298312095955274
388,0.0306700930442732
389,0.0330862307023505
390,0.0361059923274214
391,0.0366281454737041
392,0.039585643556029
393,0.0415609069737823
394,0.0471407781272333
395,0.0505960357079136
396,0.0600840675585298
397,0.0702607892417821
398,0.0804375109250343
399,0.0906142326082865
400,0.0981328803453321
401,0.109229037595498
402,0.117843205924136
403,0.123507547668276
404,0.13032774701601
405,0.134230421620408
406,0.142167884433987
407,0.147421813894402
408,0.154199464596431
409,0.161863639728028
410,0.173880983137448
411,0.178675857222137
412,0.186330540062446
413,0.194494825001933
414,0.197586634027458
415,0.202799052176037
416,0.203927569336894
417,0.205601836002383
418,0.211533759263662
419,0.209605707496867
420,0.215171111415153
421,0.215647673462467
422,0.21983424077642
423,0.22205325484221
424,0.223571361814041
425,0.220823657365039
426,0.218212663816933
427,0.214240277504368
428,0.207917158896093
429,0.207414783198136
430,0.208862742277366
431,0.215422017465554
432,0.224556789284654
433,0.232165873470004
434,0.243728167048024
435,0.248097545696367
436,0.251083468651123
437,0.255869444815429
438,0.260655420979735
439,0.265441397144041
440,0.267177441121236
441,0.271599907197051
442,0.278700976140075
443,0.280835516584444
444,0.285451158448493
445,0.290066800312541
446,0.29468244217659
447,0.299292551558389
448,0.299682596134845
449,0.312064794174244
450,0.308427067484212
451,0.307126978604603
452,0.305800739847733
453,0.304474501090862
454,0.303148262333992
455,0.304840827375645
456,0.30538851196719
457,0.307014067760133
458,0.309458825528868
459,0.315424588738164
460,0.316256381070482
461,0.313950214079133
462,0.324638178150848
463,0.31480203662164
464,0.312212017195099
465,0.310845063792966
466,0.308568395323867
467,0.30902187137432
468,0.307285854833131
469,0.306842855240802
470,0.314588351623113
471,0.317422634756386
472,0.320278576761345
473,0.326638099956458
474,0.32894208354315
475,0.335505457906417
476,0.329745971754681
477,0.331850139181011
478,0.333954306607341
479,0.33605847403367
480,0.335706949452416
481,0.329057041370564
482,0.323387977824205
483,0.323338121044416
484,0.316173495333073
485,0.309265468957633
486,0.314052848167632
487,0.315673001449917
488,0.318908173360225
489,0.327944285373067
490,0.331398846257059
491,0.334030209814434
492,0.342032300560346
493,0.337745903944439
494,0.342981890917426
495,0.339092322216213
496,0.341101733497921
497,0.334931064995634
498,0.336049372198112
499,0.328552459817412
500,0.330969613277685
501,0.328205437538234
502,0.333416593945523
503,0.334638035722592
504,0.331143733019421
505,0.340934288003326
506,0.339083517839765
507,0.340213330054757
508,0.341813390554488
509,0.340322745763348
510,0.33423590972488
511,0.338545517703402
512,0.334609071391167
513,0.324273823189158
514,0.321615065430794
515,0.315336993102342
516,0.312107696580778
517,0.310420854479578
518,0.307940880098585
519,0.313316166071984
520,0.317161833805534
521,0.319939913820893
522,0.322717993836251
523,0.32549607385161
524,0.322482627563853
525,0.322187560252951
526,0.322185155848854
527,0.318719953734181
528,0.320425307762831
529,0.323617003560092
530,0.322965984439696
531,0.322801651793784
532,0.321894144250155
533,0.323260530563698
534,0.323972216005162
535,0.319883013686958
536,0.322740841430212
537,0.320031910716714
538,0.317147283796633
539,0.315326549596588
540,0.316327298768289
541,0.314471706117062
542,0.31175616150719
543,0.313436900434703
544,0.315812757021334
545,0.313586488278137
546,0.316423519343409
547,0.315890394604191
548,0.315357269864973
549,0.314824145125756
550,0.31241067343631
551,0.314578665524781
552,0.317501408433039
553,0.314044875119464
554,0.312539663908664
555,0.31513793339437
556,0.31034164711367
557,0.310202507903698
558,0.307294611972607
559,0.305098946918787
560,0.308308089918822
561,0.30271534638396
562,0.308113723505863
563,0.303462298788837
564,0.3055929861061
565,0.300794574122429
566,0.299959998376845
567,0.29614731131062
568,0.299090491959845
569,0.296302662569117
570,0.296677101742943
571,0.298097431351661
572,0.298410914339356
573,0.299379580482623
574,0.302421639042301
575,0.299597620432037
576,0.301406550003195
577,0.303215479574353
578,0.305024409145512
579,0.30683333871667
580,0.308642268287828
581,0.312967595807851
582,0.312140025768295
583,0.315028577919557
584,0.311439832463711
585,0.311527345359231
586,0.303715152388861
587,0.301018814524152
588,0.298835689941264
589,0.296652565358376
590,0.294469440775488
591,0.29664175851654
592,0.300719530860781
593,0.301995622566694
594,0.306469753358445
595,0.307941886923151
596,0.310850860346785
597,0.312266153693819
598,0.313799099068753
599,0.314877019910733
600,0.31826730677293
601,0.320307355326907
602,0.323347288391159
603,0.32236609213969
604,0.326779384503418
605,0.324675028782332
606,0.326648458006781
607,0.325264382377437
608,0.321575263160502
609,0.321704823553905
610,0.320225458476147
611,0.319376509322343
612,0.317275719768547
613,0.316058516635953
614,0.313355772812202
615,0.317738369062547
616,0.315124706626255
617,0.31811069993803
618,0.318594591199318
619,0.31992664183116
620,0.320264880110263
621,0.322462567893488
622,0.316599869517858
623,0.317350291129413
624,0.315765177433536
625,0.314180063737659
626,0.312594950041783
627,0.313510602698215
628,0.311755917645939
629,0.311800375367073
630,0.314680008829456
631,0.310837937824968
632,0.313528701770108
633,0.315033237053436
634,0.316748073145262
635,0.317892108031111
636,0.315925403820265
637,0.319155662139235
638,0.318378565389117
639,0.320080666999546
640,0.318566748099629
641,0.317727731199152
642,0.317142584037155
643,0.315296954936767
644,0.313451325836378
645,0.31160569673599
646,0.314012865043179
647,0.314152850589138
648,0.30871262709315
649,0.313950445230126
650,0.311278321363373
651,0.31493425542236
652,0.311042328920017
653,0.307175419845011
654,0.30262098980359
655,0.305503092861636
656,0.303222904143154
657,0.306738780785888
658,0.31126307015185
659,0.318856202472085
660,0.322833205707531
661,0.324073848495494
662,0.326214263165308
663,0.325508573827353
664,0.323953424980717
665,0.325993111931961
666,0.326787534460522
667,0.328269551380568
668,0.327788254898689
669,0.322956454067079
670,0.325123702831239
671,0.32508270621842
672,0.32328238499567
673,0.325198561354706
674,0.325485638363486
675,0.325800863398643
676,0.325003769988887
677,0.327614285758342
678,0.324589337882574
679,0.324881893244579
680,0.331881502961384
681,0.326014508534138
682,0.318400324436027
683,0.312622860976733
684,0.301177394088311
685,0.293847436508962
686,0.287342932992229
687,0.282065862015634
688,0.279990670423476
689,0.281757209334661
690,0.283826708998268
691,0.289688683828482
692,0.290973937555395
693,0.29316254860316
694,0.297305412485448
695,0.297277490756753
696,0.301960349819039
697,0.303935314285599
698,0.300470008379669
699,0.300213992888229
700,0.305346874762173
701,0.303478422374547
702,0.308989077308423
703,0.309294204856085
704,0.31411019512093
705,0.314545098632273
706,0.320579853998835
707,0.324638010522827
708,0.324052586462026
709,0.328540148222203
710,0.326076332628415
711,0.325128081693167
712,0.326461758887177
713,0.313763113337832
714,0.307003903818477
715,0.291162953583045
716,0.278669935866148
717,0.269654861629811
718,0.266278004527172
719,0.26797675966353
720,0.271732506103296
721,0.269893009253577
722,0.277477136455108
723,0.275874105864676
724,0.27537217211964
725,0.276672526397707
726,0.276762299387051
727,0.280368713685777
728,0.285213856077641
729,0.291912153327458
730,0.299729090207931
731,0.308945474192675
732,0.318795042054168
733,0.330207123373201
734,0.335321338315071
735,0.339814113491815
736,0.344535281446213
737,0.347833815129531
738,0.351132348812848
739,0.354430882496166
740,0.361088799076541
741,0.364561330915354
742,0.368015157109318
743,0.371468983303282
744,0.374922809497246
745,0.375615481194878
746,0.377269563716216
747,0.379993121204669
748,0.376982122757233
749,0.380268535644708
750,0.381543805717668
751,0.379759365811684
752,0.386622268120083
753,0.38453312376628
754,0.379772835916095
755,0.355402422016432
756,0.33103200811677
757,0.306661594217108
758,0.26815629878713
759,0.234529883280617
760,0.212372009679345
761,0.210149835030216
762,0.217401632477636
763,0.235853645953251
764,0.26026324701685
765,0.284091348998325
766,0.313002585271508
767,0.339770684272326
768,0.355965864729579
769,0.367265392984839
770,0.378267002354343
771,0.382070283240112
772,0.387083489818132
773,0.392477131174725
774,0.389939429100723
775,0.392058170251525
776,0.394425376075503
777,0.389122438383054
778,0.396007192661538
779,0.389833458873622
780,0.397047945573139
