"wavelength","measurement"
380,0.00634366870370442
381,0.00613964572075845
382,0.00597131671681964
383,0.00593190157964667
384,0.00592848891382843
385,0.00615856770144463
386,0.00637619828699425
387,0.00668139964751037
388,0.00686247193245747
389,0.00699125278304336
390,0.00694099703447144
391,0.00689278769474064
392,0.00687455632915567
393,0.00690404430087142
394,0.00700747449353362
395,0.0074467372105952
396,0.00828695950234683
397,0.00911430866659362
398,0.0099416578308404
399,0.0107690069950872
400,0.0113341330232804
401,0.0117460273273218
402,0.0121809836045634
403,0.0122778395400319
404,0.0122955504213707
405,0.0122406398163956
406,0.0124144174549149
407,0.0125600247452829
408,0.0125164318186213
409,0.0127022440572248
410,0.013232678434547
411,0.0131940519840615
412,0.0134885649361654
413,0.0137799078257863
414,0.0137719202460649
415,0.0137839730483592
416,0.013680704112949
417,0.0134801349741473
418,0.0136355884794311
419,0.0134654046883179
420,0.0136630018626742
421,0.0136136459649363
422,0.013641400212509
423,0.0138131538397317
424,0.0137461487571493
425,0.0135587447895661
426,0.013351338262741
427,0.0129568403986317
428,0.0126136416054988
429,0.012542908516891
430,0.0125874686212019
431,0.0130611029453891
432,0.0134708876379304
433,0.0139142416247614
434,0.0144719240013119
435,0.014746751187407
436,0.014854748830099
437,0.0150860341707402
438,0.0153173195113814
439,0.0155486048520226
440,0.0156746831009644
441,0.0159436121795657
442,0.0162765474809352
443,0.0164316731813338
444,0.0166686159444368
445,0.0169055587075399
446,0.017142501470643
447,0.017455643649121
448,0.0175374160931109
449,0.0182059672570426
450,0.0180296055474839
451,0.0178977587052333
452,0.0178636338460251
453,0.017829508986817
454,0.0177953841276088
455,0.017811515169666
456,0.0177839130836589
457,0.0179597578076753
458,0.0179854876342989
459,0.0183171222709657
460,0.0182223925535682
461,0.018072131080909
462,0.0186023744122184
463,0.0179964138171279
464,0.0178297649280337
465,0.0176937750393169
466,0.0174222409574556
467,0.0174060298481964
468,0.0172011139743925
469,0.017127143213411
470,0.0173692508436895
471,0.0173881665047001
472,0.0174976571154448
473,0.0177096264721845
474,0.0177279887305556
475,0.0179644832859564
476,0.0176366871980174
477,0.0176551548993765
478,0.0176736226007356
479,0.0176920903020947
480,0.0175638452141235
481,0.0171002960102114
482,0.0168166464445071
483,0.01675458084833
484,0.0163994878237749
485,0.0159655270657075
486,0.0161752123565215
487,0.0162808591526648
488,0.0164409821694642
489,0.0168491689526807
490,0.0169909023977868
491,0.0171193993505149
492,0.0175458571895281
493,0.0173351647952848
494,0.0176760824791264
495,0.0174554260386906
496,0.0175178155622932
497,0.0172288635808947
498,0.0173178158470903
499,0.0169644273036253
500,0.017025441818769
501,0.0169347819498545
502,0.0172133732103841
503,0.017313666719911
504,0.0171394849159827
505,0.0177371619718632
506,0.0177070720067559
507,0.0178448719794663
508,0.0179757997902649
509,0.0180559502107527
510,0.0178557247166798
511,0.0181554806628195
512,0.0181281927716418
513,0.0176501799064675
514,0.0176240086525467
515,0.0173675272020297
516,0.0173822026321259
517,0.0173636529125101
518,0.0173685598770199
519,0.0178345078736099
520,0.0182651553867751
521,0.018566784216141
522,0.0188684130455068
523,0.0191700418748727
524,0.0191671953468797
525,0.0192752320101779
526,0.019461088271304
527,0.0193985846838128
528,0.019595456666114
529,0.0199559167537479
530,0.0200344516352876
531,0.0201567620908788
532,0.0201346245080105
533,0.020351087591393
534,0.0204761868477952
535,0.0202673535468182
536,0.020522152665813
537,0.0204715006796853
538,0.0202389021930676
539,0.0201849695206784
540,0.0203150155044981
541,0.0202047813508738
542,0.0200913722449366
543,0.0201678394088526
544,0.0203654710926145
545,0.0202817088981285
546,0.020484840213974
547,0.0204975810116591
548,0.0205103218093443
549,0.0205230626070294
550,0.0203725558231411
551,0.0205833744619173
552,0.0208298638418891
553,0.0206426254999275
554,0.0205616934521939
555,0.0208181658563412
556,0.0205349694520162
557,0.020489867655695
558,0.0203616069934349
559,0.0202145164405943
560,0.0204168345735772
561,0.0200448518630991
562,0.0204173573071744
563,0.0201017477102487
564,0.0201057815040353
565,0.0198599759138559
566,0.0196856015673025
567,0.0193480419675147
568,0.0195110240193707
569,0.0191625428761691
570,0.0191459033082542
571,0.0190921571723937
572,0.0191221182730357
573,0.0191059544735346
574,0.0191172284349201
575,0.0189399656072183
576,0.0189804091159716
577,0.019020852624725
578,0.0190612961334783
579,0.0191017396422316
580,0.019142183150985
581,0.0193347777819657
582,0.0192170889789471
583,0.019270058294428
584,0.0188528354597851
585,0.0187290324446573
586,0.0181394246681731
587,0.0176973016700168
588,0.0174202978725198
589,0.0171432940750228
590,0.0168662902775257
591,0.0169904416757969
592,0.0171619281464183
593,0.0171674961029492
594,0.0175320158898487
595,0.0175855845510101
596,0.0177570207955055
597,0.0179060432063495
598,0.0180843590464734
599,0.0181267081436936
600,0.01834346333135
601,0.0185327904628333
602,0.018712917829995
603,0.018606632045128
604,0.0188479661623517
605,0.0187275174320148
606,0.0187549006414335
607,0.0186472184777487
608,0.0184343704791791
609,0.0184004474443866
610,0.0182393590277172
611,0.0181434910968171
612,0.0179511049453185
613,0.0179196190238144
614,0.0176838808301036
615,0.0178691940587262
616,0.0176825531832459
617,0.0177857743663932
618,0.017723185258862
619,0.0178334610853962
620,0.0177912616416602
621,0.0178452459528099
622,0.0175300405295284
623,0.0174827060216479
624,0.0173534748193627
625,0.0172242436170775
626,0.0170950124147923
627,0.0170922392226886
628,0.0170470466880226
629,0.0169779278964457
630,0.0171760732413556
631,0.0169367237354045
632,0.0170570891296595
633,0.0171667088914845
634,0.0171546191176471
635,0.017359597834294
636,0.0171298860915606
637,0.017302135301585
638,0.0171315995398482
639,0.0172751238978645
640,0.0170876630238281
641,0.0170409085368296
642,0.0168638252386374
643,0.0166786888448153
644,0.0164935524509932
645,0.0163084160571711
646,0.0163015849856029
647,0.0162192746334854
648,0.0158275264548916
649,0.0161724672077938
650,0.015967952950562
651,0.0161591227029876
652,0.0159876127392446
653,0.0157442608697572
654,0.01544480987774
655,0.0157045116480439
656,0.0155669364322219
657,0.0157834550158054
658,0.0159602968600735
659,0.0164663671321033
660,0.0165335984923281
661,0.0166304903047116
662,0.0167405876790958
663,0.0166418226820139
664,0.0165394480993093
665,0.01666351014117
666,0.0166152161869497
667,0.0166951238297603
668,0.0167220064078067
669,0.0164397583653609
670,0.0164956570735446
671,0.0164493538526845
672,0.0164148981862466
673,0.0164267521347559
674,0.0165122528979193
675,0.0165302801030511
676,0.0165435509371833
677,0.0166890601070612
678,0.0164531145691387
679,0.0164235082053878
680,0.0168970096011937
681,0.0165661064374324
682,0.0162681732343449
683,0.0159145509915466
684,0.0153843778384095
685,0.015026756215649
686,0.0147157826839837
687,0.0144540604290345
688,0.01442444450898
689,0.0144788192738738
690,0.0147160971804825
691,0.0149895710938946
692,0.015105152333807
693,0.0154292223946967
694,0.0158020371143458
695,0.0160740084646436
696,0.0164690663218196
697,0.0167411816578571
698,0.0167915336087687
699,0.0170515901927964
700,0.0176298668719432
701,0.0177889355169764
702,0.0183926712417873
703,0.0188192968554956
704,0.0195374759987815
705,0.0198959908223916
706,0.0205113779138663
707,0.0210940386773426
708,0.0216358660361896
709,0.0221658353226801
710,0.0224269210472542
711,0.0227392607829731
712,0.0230482361725021
713,0.0222679236017961
714,0.0219215214501447
715,0.0208066527385283
716,0.019853985749727
717,0.0194100098351982
718,0.0194804226132214
719,0.0199857334059404
720,0.0206763206455286
721,0.0209187656132253
722,0.0219555977540579
723,0.0221757168098939
724,0.0225336007437887
725,0.0228986132068059
726,0.0233014890512559
727,0.0242126007126547
728,0.0250557184779567
729,0.0264118896596257
730,0.0278162917995536
731,0.0295092492215237
732,0.031178326544047
733,0.03294179599926
734,0.0343828485159788
735,0.0353198634703598
736,0.0365957032020264
737,0.037636961033098
738,0.0386782188641697
739,0.0397194766952413
740,0.0411890803131876
741,0.0421213862592201
742,0.0430047098938493
743,0.0438880335284786
744,0.0447713571631078
745,0.0454459319412161
746,0.0458502200125994
747,0.0465307622417304
748,0.0462353926767716
749,0.0469473010217884
750,0.0471841745129899
751,0.0472406781286438
752,0.0482980399066088
753,0.0480300964786459
754,0.0475189551195606
755,0.0444634932228806
756,0.0414080313262007
757,0.0383525694295208
758,0.0331832024834203
759,0.0287282254469537
760,0.0256014884311122
761,0.0249726712402486
762,0.0260450948613064
763,0.0282738666624927
764,0.0314274172658323
765,0.0346807839742812
766,0.0385373321224422
767,0.042309238324054
768,0.0443873104649823
769,0.0461921690637699
770,0.0477078532756423
771,0.0481891445339994
772,0.0488660209471999
773,0.0496654157585702
774,0.0494977385888596
775,0.0495792541663288
776,0.0498017370948846
777,0.0494402467228693
778,0.0500657129619769
779,0.0495268091548192
780,0.0501483818332425
