"wavelength","measurement"
380,0.00514094639917618
381,0.00486296328049882
382,0.0047690926001268
383,0.0046822804258353
384,0.00475779939518928
385,0.0048493023928943
386,0.00514401370742211
387,0.00538393862294899
388,0.00564848504742865
389,0.00577000065874819
390,0.00574721443387855
391,0.00571114842263578
392,0.00564083221078661
393,0.00560925411664986
394,0.00581957327710872
395,0.00615900468737522
396,0.00676510637358776
397,0.00747423740963271
398,0.00818336844567765
399,0.0088924994817226
400,0.00933861397145756
401,0.00973179163529373
402,0.010161593052294
403,0.0101822124103943
404,0.0102690676117222
405,0.0102528703531235
406,0.0103969297034058
407,0.0106001226640539
408,0.010619498604005
409,0.0108498087032961
410,0.0112923544433219
411,0.0114370057620621
412,0.0117276093235131
413,0.0119603286515302
414,0.0121235827613165
415,0.0123005980106098
416,0.0122425742176402
417,0.0122991530332141
418,0.0124381386628275
419,0.0123407456498876
420,0.0126122683635979
421,0.0126367549739081
422,0.0127979145827807
423,0.0129208440723147
424,0.0129895951748805
425,0.0127659757193735
426,0.0127470364183929
427,0.0124871115433227
428,0.0120990637362712
429,0.0120988363351055
430,0.012021990831638
431,0.0126638535008564
432,0.0131131610950065
433,0.0135946056934197
434,0.0140381892171111
435,0.0144150757167096
436,0.0144985445277834
437,0.0147408545807081
438,0.0149831646336328
439,0.0152254746865575
440,0.0153328916494981
441,0.0156126424749685
442,0.0159279889780379
443,0.0160718708557624
444,0.0162913678189256
445,0.0165108647820887
446,0.0167303617452519
447,0.0169942231138588
448,0.017067237484895
449,0.0176436377378275
450,0.017451534676525
451,0.0173531840469301
452,0.0172857428762291
453,0.0172183017055281
454,0.0171508605348271
455,0.0172214739521064
456,0.0171807598390424
457,0.0173989159326909
458,0.017439722860611
459,0.0177073541989791
460,0.0176663422768618
461,0.0175447715800292
462,0.0180860580750235
463,0.0174497080219732
464,0.0173581557596099
465,0.017193400712855
466,0.0169413651493294
467,0.0169210924253566
468,0.0167758829797711
469,0.0166670113932092
470,0.0170100158987085
471,0.0169916089877165
472,0.0170807361706889
473,0.0172579638451845
474,0.0172969178674191
475,0.0175192279080618
476,0.0171338288516539
477,0.0171641054498523
478,0.0171943820480506
479,0.017224658646249
480,0.017133999062749
481,0.0167070320683619
482,0.0164380236895981
483,0.016396992690916
484,0.015962078904288
485,0.0155761932723373
486,0.0158036126662367
487,0.0158267125057633
488,0.0159616701175992
489,0.0164083419111009
490,0.0165892384554903
491,0.0167441877984234
492,0.0170684825348008
493,0.0169046820705652
494,0.0172415104625911
495,0.0169722945467542
496,0.0170993377805517
497,0.0167998685004058
498,0.0168615588211638
499,0.0165262036394492
500,0.01667200522665
501,0.0165554811059473
502,0.0167833142912883
503,0.0169264640633923
504,0.0167394124070493
505,0.017360365905684
506,0.0172774714896614
507,0.0174125694852923
508,0.0175651407898291
509,0.017609117238046
510,0.0173980146429
511,0.0176863537844784
512,0.0175832998266659
513,0.0172281317785723
514,0.0171657381174522
515,0.0169512497498946
516,0.0169305953593299
517,0.0169373995949348
518,0.0169481031824878
519,0.0174158917063586
520,0.0177726759536493
521,0.0180520304819946
522,0.0183313850103399
523,0.0186107395386852
524,0.0186127122860722
525,0.0187058033143082
526,0.0188557900512851
527,0.0188109652126753
528,0.0190152754161301
529,0.0193356728986667
530,0.0193932838911194
531,0.0195350236722915
532,0.0195173697799418
533,0.0197487784983865
534,0.0198858342628385
535,0.0196695281443304
536,0.0199110491736565
537,0.0198127251092094
538,0.019648819459855
539,0.0195498423040145
540,0.0196810714839433
541,0.0195363793383701
542,0.019475764304435
543,0.0196097306476875
544,0.019775685888248
545,0.019632404085982
546,0.0198633508893044
547,0.0198943308971858
548,0.0199253109050672
549,0.0199562909129485
550,0.0198526414626905
551,0.0199946479067011
552,0.0202207461817987
553,0.0200481645951475
554,0.0199760252167451
555,0.0202009664824765
556,0.0199473845772561
557,0.0198871641639855
558,0.0198063835701498
559,0.0196739826391782
560,0.0199167785337879
561,0.0195486567790342
562,0.0198758409686385
563,0.0195607157209972
564,0.0196608028971604
565,0.0193563080122598
566,0.0191878288884254
567,0.0189893467260221
568,0.0190358773713517
569,0.0187220894754658
570,0.0187169635819692
571,0.0187295594595237
572,0.0187006825010215
573,0.0186925416014531
574,0.0187853799823354
575,0.0185603464766385
576,0.0186092370369122
577,0.0186581275971859
578,0.0187070181574595
579,0.0187559087177332
580,0.0188047992780069
581,0.019050810715784
582,0.0189252892929087
583,0.0189823548194807
584,0.018622894096643
585,0.0184450653784756
586,0.0178405119669292
587,0.0174585659077247
588,0.0171981464603688
589,0.016937727013013
590,0.0166773075656571
591,0.0167839635758474
592,0.0169868704764769
593,0.0170316015322911
594,0.0173943915003176
595,0.0174166158435014
596,0.0176095571962252
597,0.0177987667591253
598,0.0179077099431688
599,0.0180253269191883
600,0.018267005337166
601,0.0183691703552797
602,0.0185691768009292
603,0.0184588294013485
604,0.0187327602254139
605,0.0186285717924826
606,0.0186209434679131
607,0.018584426052661
608,0.0183217246741733
609,0.0183354062547641
610,0.0181889797828617
611,0.0181186422487073
612,0.0179111668871801
613,0.0178658562532435
614,0.0176607358535837
615,0.0178692770900321
616,0.0176378269864671
617,0.0178090231320455
618,0.0177712327078767
619,0.0178764470843887
620,0.0177943753156315
621,0.0179082200088792
622,0.0175441143358786
623,0.0175141195323805
624,0.017403893273446
625,0.0172936670145115
626,0.017183440755577
627,0.0171579636907659
628,0.0170856147296136
629,0.0170738290547615
630,0.0171906659933677
631,0.0170349151739081
632,0.0171332841913747
633,0.0173028387175094
634,0.0172689255487709
635,0.017359597834294
636,0.0172534989482209
637,0.0174379399216617
638,0.0173236440311219
639,0.0173566191246065
640,0.0172764139399677
641,0.0172782258476458
642,0.0170840398302569
643,0.0169001575551177
644,0.0167162752799785
645,0.0165323930048393
646,0.0164410775795167
647,0.0164411688792305
648,0.0160904174079255
649,0.0164396065959796
650,0.0162747121102135
651,0.0164155648912631
652,0.0162258087980484
653,0.0160318605555721
654,0.0157717041290726
655,0.0159445759112304
656,0.0158793417206748
657,0.0160522688686601
658,0.0162574797424445
659,0.0167155855967654
660,0.0168780400263078
661,0.016988984887215
662,0.0171287590341834
663,0.0170305475791409
664,0.0169717367549324
665,0.0169911309164292
666,0.0169818893530844
667,0.0171076510345788
668,0.0170890047798895
669,0.0168269956182571
670,0.0169358337032282
671,0.0169063581603641
672,0.0168299578458952
673,0.0169219923588029
674,0.0169940766467879
675,0.016975244871375
676,0.0169784827560441
677,0.0171004179543216
678,0.0168940938347794
679,0.0169326284960713
680,0.0173835384573966
681,0.0171261525957352
682,0.016745741628786
683,0.0164310472299043
684,0.0158834582603545
685,0.0154937242800367
686,0.0151789589854019
687,0.0149065256919915
688,0.0148783766583413
689,0.0149326130377252
690,0.0152202079157099
691,0.0154861882537645
692,0.0156376597756527
693,0.0159137792573845
694,0.016312236812006
695,0.016514378834041
696,0.0169751006156338
697,0.0172881919011335
698,0.0172642585103656
699,0.0175234501849568
700,0.0180817647543099
701,0.0182956548190642
702,0.0188381860925128
703,0.0193024006703301
704,0.019939562016883
705,0.0203074801358864
706,0.0209024553646604
707,0.0215341045986184
708,0.0219408676998663
709,0.022542797451471
710,0.0227081895959942
711,0.0230489606347087
712,0.0233175897288452
713,0.0225737624978072
714,0.0221338048222318
715,0.0210508478091834
716,0.0200865495182804
717,0.0195492464159188
718,0.0196879732008722
719,0.0200668619110812
720,0.0207344425596593
721,0.0209418759933678
722,0.0219577565680113
723,0.0220954255370875
724,0.0224600574944057
725,0.0227723225905304
726,0.0231201210020659
727,0.023917061158213
728,0.0247807187928123
729,0.0259905334592796
730,0.027368531643931
731,0.0290661388190316
732,0.0305915650630705
733,0.0322422088121149
734,0.0336188913089339
735,0.0344887200982899
736,0.0356840194632324
737,0.036645440387255
738,0.0376068613112776
739,0.0385682822353002
740,0.0399845451584806
741,0.0408147710331831
742,0.0416367921933805
743,0.042458813353578
744,0.0432808345137754
745,0.0438522152171996
746,0.0442698747884707
747,0.0447785871896771
748,0.044609833446942
749,0.0451951536468371
750,0.0454349816686737
751,0.045491969633612
752,0.0464298355238344
753,0.0462130947345104
754,0.0457778578275697
755,0.0428242730368052
756,0.0398706882460408
757,0.0369171034552763
758,0.0320538936918596
759,0.027801509582154
760,0.024891051819996
761,0.0243253315023418
762,0.0253754681370406
763,0.0274789024521503
764,0.0305050778427811
765,0.033569520653203
766,0.0372787989417975
767,0.0408113535655984
768,0.0428927469587627
769,0.0444682315749985
770,0.0457771263195243
771,0.0463640610760896
772,0.0471153197008264
773,0.0478198789223067
774,0.0476114887356026
775,0.0477916939394108
776,0.0479837112979764
777,0.0475369754519026
778,0.0482508769510703
779,0.0477546097194929
780,0.0483604894811008
