"wavelength","measurement"
380,0.00116050120712939
381,0.00111628149490339
382,0.00118782826013074
383,0.00121796252093751
384,0.00126293375927829
385,0.00127243368573814
386,0.0014032914294935
387,0.00150541448122964
388,0.0015593114044846
389,0.00164427924937742
390,0.00162878462101735
391,0.00168750209779021
392,0.00164359667060845
393,0.00170873433042373
394,0.00187290610721228
395,0.0019392853181941
396,0.00225015227071194
397,0.00252300778916013
398,0.00279586330760832
399,0.00306871882605651
400,0.00329840181119285
401,0.00350363648181348
402,0.00367499506514166
403,0.00385390916717464
404,0.00390811278739403
405,0.00399802651513206
406,0.00410223701863574
407,0.00425871218757804
408,0.00437282416514084
409,0.00450771292381577
410,0.00476532947263052
411,0.00486782242257456
412,0.00505742042221769
413,0.00522918286307569
414,0.0053410802396611
415,0.00543802581202326
416,0.0054482179878065
417,0.00547973879600835
418,0.00556194041306833
419,0.00548630494843259
420,0.0056717008014553
421,0.00574286665850025
422,0.0057567862929897
423,0.00590859233796036
424,0.00588490115591803
425,0.00585680800912928
426,0.00580434635369365
427,0.00568733400593097
428,0.00554167789567101
429,0.00552010538985543
430,0.00555674002626079
431,0.00587256822160849
432,0.00608570743003308
433,0.00626349622600559
434,0.00659840337439815
435,0.0067429465306777
436,0.00686859572638403
437,0.00699393806176356
438,0.00711928039714308
439,0.0072446227325226
440,0.00736520562297883
441,0.00752201398920318
442,0.00778979252593488
443,0.00785780952203212
444,0.00804755037939251
445,0.00823729123675291
446,0.0084270320941133
447,0.00860668179411562
448,0.00873099346811246
449,0.00907646676557972
450,0.00905770950328186
451,0.00899755965309003
452,0.00901700356561025
453,0.00903644747813047
454,0.00905589139065069
455,0.00908422203861355
456,0.0090813353187773
457,0.00924449807989439
458,0.00927914781000168
459,0.00944585733911709
460,0.00940681405251448
461,0.00937927570700406
462,0.00969247037682322
463,0.00942327649961994
464,0.00933026301939637
465,0.00930340611927822
466,0.00919351038912583
467,0.00923567298842987
468,0.00917558262993164
469,0.00911017171959332
470,0.00926222679227293
471,0.00933215125831948
472,0.00938908641988877
473,0.00952716950562207
474,0.00961247674274116
475,0.00975662324273859
476,0.00956859139475672
477,0.0096104524477716
478,0.00965231350078648
479,0.00969417455380136
480,0.00966878877475948
481,0.00941964227686332
482,0.00929002397855374
483,0.00923840824566594
484,0.00910183341958056
485,0.00887813220566868
486,0.00897019494499513
487,0.00905575176211848
488,0.00917181563439383
489,0.00943453992924262
490,0.00947579462100197
491,0.00962330452927876
492,0.00987023871396508
493,0.00979681558875839
494,0.00998212669390729
495,0.00987589136643332
496,0.0099476598315071
497,0.00976850162025021
498,0.00988765752996495
499,0.00973532249627479
500,0.00977821072815304
501,0.0097325739599369
502,0.00992007229721283
503,0.00998784408944132
504,0.00989753363860876
505,0.0102658507607104
506,0.010250906317052
507,0.0103164894235039
508,0.0104258657741561
509,0.0104931968598897
510,0.0103115351270615
511,0.0105499483945766
512,0.0104954321146234
513,0.010222844243554
514,0.0102147424757005
515,0.0100832211692501
516,0.0100821927875108
517,0.0100498758426033
518,0.0100691040589982
519,0.0102940030668807
520,0.010531916375062
521,0.0106741735770541
522,0.0108164307790462
523,0.0109586879810383
524,0.0109598234927702
525,0.0110244532933336
526,0.0111106406978185
527,0.0110492001592161
528,0.0111438720262209
529,0.0113199841526571
530,0.0113579032474789
531,0.0114030520424604
532,0.0113864606520988
533,0.0114802173014947
534,0.011575454295517
535,0.0114611182556256
536,0.0115698753298424
537,0.0114970695319148
538,0.0114140726266996
539,0.0113689892871661
540,0.011407674894183
541,0.0113336719873144
542,0.0112709872678136
543,0.0113348640755888
544,0.0114118451706449
545,0.0113433837550634
546,0.0114493471108238
547,0.0114498557016784
548,0.0114503642925331
549,0.0114508728833878
550,0.011379152206773
551,0.0114802817993116
552,0.0115569709830412
553,0.0114773740331017
554,0.0114187005042414
555,0.0115221079529199
556,0.0113705000552549
557,0.0113796854844679
558,0.0112981559193057
559,0.0112500810854411
560,0.0113499324835983
561,0.0111685083341593
562,0.0113461729442607
563,0.0111739728899322
564,0.0112038951968854
565,0.0110333649083232
566,0.0109555722112531
567,0.0108373153949875
568,0.0108703979851542
569,0.0107440094118369
570,0.0106932042875555
571,0.010746807057696
572,0.0107083412915853
573,0.0107144170250673
574,0.0107644351075276
575,0.0106611597191664
576,0.0106843886947366
577,0.0107076176703068
578,0.010730846645877
579,0.0107540756214471
580,0.0107773045970173
581,0.0108793773766905
582,0.0108328555317949
583,0.010841740677469
584,0.010616037032064
585,0.0105375373382708
586,0.0102025455393101
587,0.00998509459518459
588,0.00981808196770544
589,0.0096510693402263
590,0.00948405671274715
591,0.00954233784262215
592,0.00965269494586813
593,0.00963408640257415
594,0.0098035758910461
595,0.00978957865582836
596,0.00987622537889495
597,0.00998628278345814
598,0.00999848102498755
599,0.0100410035355725
600,0.0101639838275921
601,0.010209375242446
602,0.0102566806513492
603,0.0101924958526717
604,0.0103024685263984
605,0.0102136063220243
606,0.0102261066294538
607,0.0101732502393074
608,0.0100275186523488
609,0.0100014809560924
610,0.00991993228643144
611,0.00981498898534146
612,0.00969806879839699
613,0.0096692228520995
614,0.00952435418355834
615,0.00961931619882934
616,0.00949093692975952
617,0.0095485109355563
618,0.00953563061437043
619,0.00954405402940277
620,0.00947893518358013
621,0.00951312186568334
622,0.00931648746265659
623,0.00927628320967041
624,0.00919663850373293
625,0.00911699379779545
626,0.00903734909185797
627,0.00898803108980025
628,0.00893492664330015
629,0.00887579921753015
630,0.00897361743890859
631,0.00883047354889317
632,0.00886265365273925
633,0.00889738260189398
634,0.00892300017519292
635,0.0089204262952736
636,0.00883547383719518
637,0.00887492970526151
638,0.00880702463593215
639,0.00883108860797066
640,0.00875097362560786
641,0.0087057475132833
642,0.00858528221411228
643,0.00846858924790848
644,0.00835189628170469
645,0.0082352033155009
646,0.0082095708448936
647,0.00816213144736687
648,0.00796200925868629
649,0.00807818274989982
650,0.00799946452275395
651,0.0080128932280824
652,0.00793162749556815
653,0.00780556480484584
654,0.00762752507213367
655,0.007710785531813
656,0.00763979902983483
657,0.00771232211894505
658,0.00775273108818758
659,0.00795106663041575
660,0.00799710609148879
661,0.00802966623896305
662,0.00803699760417821
663,0.00797729285066658
664,0.0078810857612451
665,0.00791029792973566
666,0.00786909980222973
667,0.00790614324988364
668,0.00785634238250701
669,0.00768200183538519
670,0.00769803383646338
671,0.0076744043905715
672,0.00760470743747453
673,0.00761072543835268
674,0.00763979881992808
675,0.00759099338279994
676,0.00756503829142601
677,0.00757343553324021
678,0.00748397022344234
679,0.00740767951095377
680,0.00759762823812346
681,0.00741462149043829
682,0.00725423967316392
683,0.00710955938961741
684,0.0068773593732836
685,0.00665614768185061
686,0.0064887276174341
687,0.00634684572282061
688,0.0062835508387367
689,0.00627908234209792
690,0.00638576362550069
691,0.00652573504441681
692,0.00644808924948644
693,0.00658086860085663
694,0.00669994219111594
695,0.00676035202497974
696,0.00689583099558878
697,0.00692298375046943
698,0.00687439932269415
699,0.00691058926695746
700,0.00705767021669488
701,0.00704319271975424
702,0.00719482414004338
703,0.00726586849817245
704,0.00746328891991595
705,0.00748318041633283
706,0.00761479728253348
707,0.00776009841050927
708,0.00783446732488464
709,0.00794553685250124
710,0.00787455728919147
711,0.00792551411649714
712,0.00793654346052914
713,0.0076038592704352
714,0.00736327513546031
715,0.00691511867878882
716,0.00653245051851495
717,0.00622663352527855
718,0.00618486047561352
719,0.00627263280775467
720,0.00631805534841556
721,0.00625101842062663
722,0.00645561099861852
723,0.00640549951958678
724,0.00637938989486538
725,0.00636687130510022
726,0.0063274347477804
727,0.00649231460678792
728,0.00657650703267513
729,0.00675731241675579
730,0.0070183838819096
731,0.00729676884404167
732,0.00759675410938864
733,0.00787048340677389
734,0.0080694005942245
735,0.00819665625350094
736,0.0083028245541753
737,0.00842288443816237
738,0.00854294432214944
739,0.00866300420613651
740,0.00879077857472696
741,0.0088719255360499
742,0.00891639804304563
743,0.00896087055004136
744,0.0090053430570371
745,0.00909490870463982
746,0.00901420094542319
747,0.00914751248887985
748,0.00898502405458334
749,0.00900454882638925
750,0.00902644741769529
751,0.00890259130843389
752,0.00901332233766223
753,0.00880148312826089
754,0.00874283227142188
755,0.00816435309844477
756,0.00758587392546765
757,0.00700739475249054
758,0.0060989219331636
759,0.00526304972657815
760,0.00464798944020223
761,0.0044768391854919
762,0.00464450253367883
763,0.00500911036147797
764,0.00545748600640859
765,0.00599855652362897
766,0.00658257904382184
767,0.00714302050349299
768,0.00756723959170769
769,0.00772567992545161
770,0.00796240733970075
771,0.00798836475357008
772,0.00810810573762702
773,0.00816294589941204
774,0.00809905522687722
775,0.00807194787544036
776,0.0081100925921993
777,0.00799329754616474
778,0.00805554769234899
779,0.00790966753133976
780,0.00794095400544872
