"wavelength","measurement"
380,0.0354651596439804
381,0.03395758621296
382,0.0328744888949831
383,0.0322608901004953
384,0.0326108926072608
385,0.0337907278744613
386,0.035427950989669
387,0.0369535786125616
388,0.0383176384170399
389,0.0388926805082489
390,0.0380514062705195
391,0.0378109094231556
392,0.0377165865586777
393,0.0374731205132034
394,0.0386667575185171
395,0.039926347893016
396,0.0442205475346451
397,0.0485220027909599
398,0.0528234580472747
399,0.0571249133035895
400,0.059400714672772
401,0.0619724106204351
402,0.0638245657056933
403,0.0637679286137669
404,0.0635859391998544
405,0.0631363957975211
406,0.0636226489997279
407,0.0636852591733571
408,0.063415070293242
409,0.0642726000915594
410,0.0666617271515503
411,0.0662514171799134
412,0.0674547773095975
413,0.0684353348961221
414,0.068052289535676
415,0.0685750786484883
416,0.0676074155849455
417,0.0667352673334951
418,0.0672197851332983
419,0.065975850225951
420,0.0672133858484671
421,0.0666464852061468
422,0.0671711506113174
423,0.067734987781497
424,0.0673404928688846
425,0.0656309680208947
426,0.0650574785106142
427,0.0632377160223011
428,0.0615610223742577
429,0.0611138835482848
430,0.0611751257485888
431,0.0632226408291329
432,0.0654554270970335
433,0.0674868020638356
434,0.0704743127209123
435,0.0718536436416637
436,0.0723881979980983
437,0.0734582576182985
438,0.0745283172384986
439,0.0755983768586987
440,0.0761251428684433
441,0.0772295159812805
442,0.079149153127849
443,0.0795635170129721
444,0.0808318447874008
445,0.0821001725618296
446,0.0833685003362584
447,0.0847403427801398
448,0.0851945923298305
449,0.0885836434759908
450,0.0877882226618952
451,0.087296041069579
452,0.0870967706766501
453,0.0868975002837211
454,0.0866982298907922
455,0.0869966615325343
456,0.0871745082508727
457,0.0880232206784386
458,0.088271482021568
459,0.0897955505747317
460,0.0898013500980743
461,0.0891221656793233
462,0.0914310886925592
463,0.0890915886624733
464,0.0878426634862073
465,0.087319341338119
466,0.0861911839368617
467,0.085888488604864
468,0.0853037875948942
469,0.0845280836108597
470,0.0865132773576772
471,0.0863890600496361
472,0.0869842815346449
473,0.0879335811488997
474,0.088197427401111
475,0.0896156836611204
476,0.0874746419221153
477,0.0876749176883345
478,0.0878751934545537
479,0.0880754692207729
480,0.0878708953526085
481,0.0855706287749368
482,0.0840640674532974
483,0.0837937535208133
484,0.0816621120230072
485,0.0797841499251546
486,0.0807238056832362
487,0.081383433264356
488,0.0824598365858433
489,0.0844320088339729
490,0.0851478203964825
491,0.0860714624122155
492,0.087942228381536
493,0.0870974965935263
494,0.0884529006255936
495,0.0876137964179411
496,0.0881277033416226
497,0.0864349196180833
498,0.0869503545461423
499,0.0848436074886584
500,0.0854618654937088
501,0.0848595913466438
502,0.0861074115589435
503,0.0867520002319779
504,0.0857322609837877
505,0.0888602535867391
506,0.0884615522414313
507,0.0891165594511216
508,0.0896955498549985
509,0.0901187373020575
510,0.0886506502516832
511,0.090200151432457
512,0.0898210696004815
513,0.0873608729026603
514,0.0869311528334632
515,0.0856205765760193
516,0.0852519045580803
517,0.0855059864040686
518,0.0854751167582103
519,0.087329646789828
520,0.0892148879480205
521,0.0904678863958536
522,0.0917208848436868
523,0.0929738832915199
524,0.092695885474887
525,0.0931068402409979
526,0.0937341945866005
527,0.0934365882291781
528,0.094368593180281
529,0.0958551439903182
530,0.0960330086683894
531,0.0965837014565422
532,0.0962902391219834
533,0.0974281906803063
534,0.0979218423694144
535,0.0970954416670103
536,0.0981472807630995
537,0.0974797066275743
538,0.0966892854479205
539,0.0963594896704654
540,0.0969675931568214
541,0.0961840515939331
542,0.095914095889346
543,0.0965569740042254
544,0.0971200755182699
545,0.096481397370655
546,0.0975459101761148
547,0.0976266193151644
548,0.0977073284542139
549,0.0977880375932635
550,0.0974251619850448
551,0.0980625286350881
552,0.0991331189402138
553,0.0983068498383558
554,0.098208089670539
555,0.099246231217365
556,0.0978817544389244
557,0.0980024513756514
558,0.0973351855121193
559,0.0966036378300489
560,0.0976145080724224
561,0.0962199039334053
562,0.0979166050160385
563,0.0963890353947439
564,0.0967736367847733
565,0.0955639552573314
566,0.0946007511905787
567,0.0935389481290814
568,0.0941351222849186
569,0.0930321871417385
570,0.0930303742104403
571,0.0930096109945094
572,0.0931383184968446
573,0.0929000611784127
574,0.0934855823264172
575,0.0926082734112733
576,0.0928669498061117
577,0.0931256262009501
578,0.0933843025957886
579,0.093642978990627
580,0.0939016553854654
581,0.0952599220397363
582,0.094592237099396
583,0.0949935954434329
584,0.0931206902331795
585,0.0922409991075448
586,0.0890421519103153
587,0.0872926473604683
588,0.0858837240937413
589,0.0844748008270143
590,0.0830658775602873
591,0.0835242935205228
592,0.0844668269774508
593,0.0848733313774344
594,0.0863668527460825
595,0.0864879916927766
596,0.087492244249109
597,0.0882484852281294
598,0.0887638632558812
599,0.0893964553540781
600,0.0906386620156463
601,0.0913129089683642
602,0.0918485905001999
603,0.0916103176380649
604,0.0928080051936592
605,0.0921762607232774
606,0.0923108632402259
607,0.091942531240843
608,0.0907802103583608
609,0.0908372456692831
610,0.0898532331023287
611,0.0895228026026302
612,0.0886158662614687
613,0.088330480050714
614,0.087111019675503
615,0.0884912298367493
616,0.0873434369744125
617,0.0880470358060632
618,0.0878826395870782
619,0.0882229235514816
620,0.0879052255678838
621,0.0884710092691288
622,0.0867597642962032
623,0.0862683963374924
624,0.085644804043063
625,0.0850212117486337
626,0.0843976194542044
627,0.084209415997417
628,0.0838784112602458
629,0.0837910697752824
630,0.0844433276291906
631,0.0835444539956288
632,0.0839309625845539
633,0.0846154420726896
634,0.0848810740531534
635,0.0852074268093499
636,0.0845638392195717
637,0.08562314312683
638,0.0851473782868961
639,0.0853711066390248
640,0.0849528570408732
641,0.0844182856021464
642,0.0838448050998754
643,0.0829354633730761
644,0.0820261216462769
645,0.0811167799194776
646,0.0808184138465581
647,0.0805431752186069
648,0.0788678012072618
649,0.0804674922114499
650,0.079670172861529
651,0.0804859981772347
652,0.0796360368488723
653,0.0786929867773978
654,0.0774473307486707
655,0.0781703089640018
656,0.077430435410667
657,0.0788535415793052
658,0.0798623367051241
659,0.0820135488030729
660,0.0829323421003539
661,0.0832732257013588
662,0.08391543509572
663,0.0833723846280049
664,0.0830142578971677
665,0.0832358205909693
666,0.0832486635703306
667,0.0834978141902913
668,0.0836860967730569
669,0.0820859126102795
670,0.08270718561109
671,0.0825914223624131
672,0.0819315317368284
673,0.0823430115202668
674,0.0826416960259922
675,0.0824632344336445
676,0.0827051708309762
677,0.0831939373606832
678,0.0822216691927696
679,0.0821834694387522
680,0.0841404051959305
681,0.0830878145735979
682,0.0807234745062607
683,0.0791484256227473
684,0.0763271800871558
685,0.0743108224125734
686,0.072701389935654
687,0.0709904469231308
688,0.0707223893720594
689,0.070720630843918
690,0.0716124552698116
691,0.0728217541150158
692,0.0731259186486909
693,0.0739146311294012
694,0.0752562308938562
695,0.0761424709508794
696,0.0777686085859504
697,0.0788144056305752
698,0.0778818984349758
699,0.0786539438547863
700,0.0807161306029249
701,0.0807011228127471
702,0.082900565236518
703,0.0840281801369226
704,0.0863496168889644
705,0.0874620124173906
706,0.0894488221417298
707,0.0914377770115425
708,0.0926738128390397
709,0.0943329615919069
710,0.0943067865541493
711,0.0949794482363219
712,0.095027612769784
713,0.0913196081245587
714,0.0887681818269369
715,0.0833829464140424
716,0.0790194087316142
717,0.0761289549252989
718,0.0757087686972859
719,0.0771335979774927
720,0.0786396942958707
721,0.0787494992686042
722,0.0814058402389349
723,0.0811893629888654
724,0.0817260106257684
725,0.0823116117977536
726,0.0826917197387156
727,0.0846987333792201
728,0.087139680420675
729,0.0907792161907305
730,0.0945838829480781
731,0.0993836516262265
732,0.104005056501933
733,0.1086592719083
734,0.112575677090092
735,0.114586382869994
736,0.117491721293764
737,0.119814355201837
738,0.12213698910991
739,0.124459623017982
740,0.128278176613202
741,0.130103419064957
742,0.131965415142417
743,0.133827411219876
744,0.135689407297335
745,0.136835519155947
746,0.1374721688746
747,0.138835217363543
748,0.137535654296206
749,0.139168100193839
750,0.139218938844371
751,0.139074730206868
752,0.141481985563443
753,0.140326779369374
754,0.13897102644224
755,0.129789993466917
756,0.120608960491595
757,0.111427927516273
758,0.0969223399411043
759,0.0837539327919046
760,0.074658666435536
761,0.072923464040052
762,0.0756018605645433
763,0.0822691392477909
764,0.0909566000103998
765,0.100087758654981
766,0.110567851918192
767,0.121176716458194
768,0.127273784147052
769,0.131937686352809
770,0.135588762741768
771,0.137264997133364
772,0.139381992839631
773,0.141227518673777
774,0.140443609082853
775,0.141040379724647
776,0.141595230616336
777,0.140022830311525
778,0.142101746869335
779,0.140353998272374
780,0.142186442076862
