"wavelength","measurement"
380,0.0047139855856818
381,0.00451055074115262
382,0.00450460329445438
383,0.00438419803765039
384,0.00445805638088635
385,0.00457350007179286
386,0.00483142159853099
387,0.00511100780117662
388,0.00518496278223582
389,0.00534258317307135
390,0.00527331325544809
391,0.00523185020932175
392,0.00524183218955442
393,0.00523156546393229
394,0.00534850900162988
395,0.00562071273121847
396,0.00626462133871797
397,0.00687343902510858
398,0.00748225671149919
399,0.00809107439788981
400,0.00860240305913458
401,0.00896434019412547
402,0.0093324839472187
403,0.00941219391801861
404,0.00941010183289999
405,0.00944303834956824
406,0.00948998566832367
407,0.00956332112618027
408,0.00966746165054317
409,0.00986089893073863
410,0.0102878555430815
411,0.010389877205517
412,0.0106182072875422
413,0.010917040292883
414,0.0109134014778082
415,0.0110647185379251
416,0.0110339982060459
417,0.0109271298959536
418,0.0110645932849588
419,0.0109371014236298
420,0.0112511915201653
421,0.0112914817556986
422,0.0113908280169657
423,0.0114794206018718
424,0.0115452656087311
425,0.0113994880025064
426,0.0112562508365918
427,0.011045113773014
428,0.0106918906795125
429,0.0106613084167645
430,0.010745626678051
431,0.011143910092133
432,0.0115538193316331
433,0.011895871665627
434,0.0124310663968293
435,0.0125921995076817
436,0.0127620485539945
437,0.0130017408143582
438,0.0132414330747218
439,0.0134811253350855
440,0.0134997749127423
441,0.0137260466579369
442,0.0140457730623926
443,0.0142036664729879
444,0.0144091680482564
445,0.0146146696235249
446,0.0148201711987935
447,0.0150096192191242
448,0.015073558960353
449,0.0155951516321153
450,0.0154988805363736
451,0.0154480030559276
452,0.015379876876953
453,0.0153117506979783
454,0.0152436245190036
455,0.0152546698935743
456,0.0153319640240223
457,0.0155024878251856
458,0.0155270136978736
459,0.0157541257589619
460,0.0157104879717955
461,0.0156357157947514
462,0.0160837581332188
463,0.0156822206132567
464,0.0153908760008878
465,0.0153405294445703
466,0.0151115212298813
467,0.0150640886197844
468,0.0149918446640783
469,0.0148628103087334
470,0.0151369541845388
471,0.0151607686925975
472,0.0152660177874657
473,0.0154419031225159
474,0.0154601200761017
475,0.0157153727873607
476,0.0153123641748263
477,0.0153404554351818
478,0.0153685466955374
479,0.0153966379558929
480,0.0153712444384689
481,0.014981004958392
482,0.0147762904874977
483,0.0146616383975833
484,0.0143238297232065
485,0.0139775361856197
486,0.0141604404206429
487,0.0141846854002633
488,0.0143956858497537
489,0.0147887816931227
490,0.0148891724671656
491,0.0149957353165848
492,0.0153530557548843
493,0.0152098055388592
494,0.0154992922479705
495,0.015277625593313
496,0.0153556803566288
497,0.0151267876864988
498,0.0152054717478647
499,0.014915275217647
500,0.0149879089261602
501,0.0148868701440081
502,0.0151306107437046
503,0.0152058755039589
504,0.0150982986459143
505,0.015621856422727
506,0.0155594586305299
507,0.0157361466613228
508,0.015866562445735
509,0.0159010110515998
510,0.0157477674381159
511,0.0160209533663673
512,0.0159719735465229
513,0.0155644058251302
514,0.0155023858048866
515,0.0153614078201535
516,0.0153054236089279
517,0.0153604534648914
518,0.015408356807307
519,0.0157947054586398
520,0.0161603740556619
521,0.0164291213346784
522,0.0166978686136948
523,0.0169666158927113
524,0.0169462739766374
525,0.0171066203626533
526,0.0171445148366637
527,0.0171596801165674
528,0.0173372127238691
529,0.0176654981804664
530,0.0177388020897343
531,0.0178192647671514
532,0.0178195456368763
533,0.0180464706648024
534,0.018167086230686
535,0.0179881441998334
536,0.0181753350779982
537,0.0181010347380585
538,0.0179971883999725
539,0.0179012142096955
540,0.0180048769960651
541,0.0179312734868942
542,0.0178391480723696
543,0.0179655724053361
544,0.018096834398581
545,0.0179847862058848
546,0.0181628697444501
547,0.0182159522246773
548,0.0182690347049046
549,0.0183221171851318
550,0.0181476281923891
551,0.0183508010317468
552,0.0185669839850648
553,0.0183775574222289
554,0.018303124304001
555,0.0185538156534749
556,0.0182668309458181
557,0.0182927555124199
558,0.0182197314264104
559,0.0180148441653872
560,0.0182878081011409
561,0.0179061314856989
562,0.0182226323139439
563,0.0179779729679107
564,0.0179804430054361
565,0.0177391902985303
566,0.0176386999756779
567,0.0174051094094293
568,0.0173992611392864
569,0.0171835193771187
570,0.0171476719004387
571,0.0171866717332696
572,0.0171468035056488
573,0.017137074632355
574,0.0172336113659877
575,0.016998527612639
576,0.0170509774482257
577,0.0171034272838123
578,0.017155877119399
579,0.0172083269549856
580,0.0172607767905722
581,0.0174478913553635
582,0.0173826229834704
583,0.0174149313423329
584,0.0170859292702099
585,0.0169430290547249
586,0.0164057310009584
587,0.0160036290922464
588,0.0157897775221627
589,0.0155759259520789
590,0.0153620743819951
591,0.0154097124318785
592,0.0156130483275884
593,0.0156932752666754
594,0.0159799186079151
595,0.0160264642044524
596,0.0162670240111105
597,0.0163942091885025
598,0.0165344551748707
599,0.0166628247050044
600,0.0168479449651125
601,0.0169868098204344
602,0.0171898745858513
603,0.0171012467920393
604,0.0173195673989774
605,0.0172585552451147
606,0.0172539714017615
607,0.0171877702946498
608,0.0170080310293083
609,0.0169708213386572
610,0.0169099378696594
611,0.0167634243017973
612,0.0166515819766606
613,0.0165371477805613
614,0.0163569021762944
615,0.0165856892128316
616,0.0163467178568072
617,0.0165259818776089
618,0.0165111496095218
619,0.0165708143954716
620,0.01653645103123
621,0.0166267096441452
622,0.0163024918645357
623,0.0162261655923448
624,0.0161415521848556
625,0.0160569387773664
626,0.0159723253698773
627,0.0159178565407557
628,0.0158747138414541
629,0.0158271139966566
630,0.015987936769564
631,0.0158599945183057
632,0.0159088768774553
633,0.016080908504216
634,0.0160523785318101
635,0.0161888564210886
636,0.0160585746671719
637,0.0162597741258537
638,0.0160893905881777
639,0.0161748760633692
640,0.0161062260688017
641,0.0160336280878415
642,0.0159068634908443
643,0.0157162349221006
644,0.0155256063533569
645,0.0153349777846132
646,0.0153687282638042
647,0.0152543955047108
648,0.0149761649598348
649,0.0152779017565665
650,0.0151112774519275
651,0.0153128261175908
652,0.0151248136817999
653,0.0149103930329624
654,0.0146838141206055
655,0.0148598410923876
656,0.0147279050860914
657,0.0149411716101937
658,0.0151434487111696
659,0.0155941025057859
660,0.0157286930129229
661,0.0158297917448054
662,0.0159277111943241
663,0.0158772081437973
664,0.0157587877612273
665,0.0158549997192336
666,0.0158558118631784
667,0.0158794450384144
668,0.0159503688049659
669,0.0156936182927073
670,0.0157576817459712
671,0.0157466322337416
672,0.0157149857931534
673,0.0157568209623684
674,0.0157799859726267
675,0.0157952039519087
676,0.0158058039457011
677,0.0159558659988526
678,0.0157935969063663
679,0.0157577355175709
680,0.0162714725003613
681,0.0160257110215262
682,0.015603189343934
683,0.0153287928055163
684,0.0148653283873954
685,0.0145099832062716
686,0.0142127513557329
687,0.0139372182269022
688,0.0139380886346644
689,0.0139682874509899
690,0.0142403693133222
691,0.0145404132446227
692,0.0147262528078784
693,0.014944665532009
694,0.0153378782758077
695,0.0155090634592926
696,0.0160466722301498
697,0.0163255407790672
698,0.0162744907476472
699,0.0165426082876227
700,0.0171155640439164
701,0.0172693878781268
702,0.017893064954905
703,0.0182846305996965
704,0.0188588888127539
705,0.0192787568521494
706,0.0198487189000207
707,0.0204559430914928
708,0.0208119740648351
709,0.0215319743334312
710,0.0216459251243108
711,0.0219755042349174
712,0.0222669946152787
713,0.0215268553580779
714,0.0211667115252998
715,0.0201233881222682
716,0.0192685389310939
717,0.0187106786612463
718,0.0188191336159232
719,0.0194294236564031
720,0.0199556089103071
721,0.020167678258595
722,0.0211218804115051
723,0.0212691533349638
724,0.0215809202977061
725,0.0220002559926091
726,0.022306649459602
727,0.0231997917625487
728,0.0240198406633612
729,0.0252452444575115
730,0.026467877230271
731,0.0280715068056424
732,0.0296483778629626
733,0.0312190071102203
734,0.0326169802177274
735,0.0334560874239001
736,0.0346330507087894
737,0.0355507579566802
738,0.036468465204571
739,0.0373861724524619
740,0.0387721220297129
741,0.0395316329088897
742,0.040346843195578
743,0.0411620534822664
744,0.0419772637689548
745,0.0425921182802937
746,0.0429761432533994
747,0.0435764599428412
748,0.043434663697422
749,0.0439238613221856
750,0.0442050804500138
751,0.0441838806018953
752,0.0450183033235159
753,0.0449437398069966
754,0.0444881325530081
755,0.0415960877984673
756,0.0387040430439266
757,0.0358119982893858
758,0.0311953084731894
759,0.0270723563308326
760,0.0242682962679114
761,0.0237161723265985
762,0.0246847307032495
763,0.0268122389076139
764,0.0296399054738427
765,0.0327102988611876
766,0.0362507191506812
767,0.0397971607603941
768,0.0417095508496722
769,0.0432614753328586
770,0.044464512081636
771,0.0450972662805077
772,0.0457878290206308
773,0.0464952804992666
774,0.0462796250732962
775,0.0464581073775069
776,0.0467436595021701
777,0.046275812946571
778,0.0468840155933266
779,0.046431152976909
780,0.0470937638782738
