"wavelength","measurement"
380,0.000553970147949214
381,0.000545594816295774
382,0.000591511407475132
383,0.000556355490761235
384,0.000630874304968365
385,0.000653778224153403
386,0.000697101942310641
387,0.00077755264930617
388,0.000785583670914596
389,0.000789506776528687
390,0.000796750522492629
391,0.000854632533500676
392,0.000892372315852146
393,0.000875826689071474
394,0.00099644340806156
395,0.00104954555290159
396,0.00116967928270202
397,0.00134305781007955
398,0.00151643633745708
399,0.00168981486483461
400,0.00183334670726302
401,0.00196903936558049
402,0.00208852891290347
403,0.00220404847350224
404,0.00229303400598965
405,0.00237584714197542
406,0.00247289035091173
407,0.00260755283879518
408,0.00272041329524912
409,0.00281581056901152
410,0.00303264820280356
411,0.00310296511739644
412,0.00327302365639568
413,0.00343152024501538
414,0.00347347045374632
415,0.00359158449020195
416,0.00358736095264969
417,0.00359195422799688
418,0.00367386817948482
419,0.00368513025158349
420,0.00383942639599709
421,0.00387926036780137
422,0.00391308813665952
423,0.00406866618288086
424,0.00402226441125395
425,0.00404907259147472
426,0.00392579641482667
427,0.00389365772555826
428,0.00379559484099816
429,0.00380066333781951
430,0.00384607612665862
431,0.00400940825748767
432,0.00418349208963973
433,0.00432266225104762
434,0.00453217819530273
435,0.0046489096069026
436,0.00474283865249674
437,0.0048334843807197
438,0.00492413010894267
439,0.00501477583716563
440,0.00506196960707345
441,0.00519973178751942
442,0.00533810028181157
443,0.00537629723232385
444,0.00549746632314603
445,0.00561863541396821
446,0.00573980450479038
447,0.00586343892599567
448,0.00596664371396901
449,0.00619391848724981
450,0.00617033429899144
451,0.0061805786545201
452,0.0061859923682013
453,0.00619140608188249
454,0.00619681979556368
455,0.00632050797012452
456,0.00631497289434575
457,0.00640859613851314
458,0.00646278792756623
459,0.00657520171988223
460,0.00660058240664072
461,0.00655269807688225
462,0.0067660867936208
463,0.00658377552015281
464,0.00654989316948077
465,0.00652885071983556
466,0.00642714591561736
467,0.00650455350882073
468,0.00644006552979645
469,0.00641161779713729
470,0.00654464736594713
471,0.00655115792485605
472,0.00664009811032178
473,0.00673568016652183
474,0.00678182137871159
475,0.00690980751050509
476,0.00678130913051098
477,0.00681368829328179
478,0.0068460674560526
479,0.0068784466188234
480,0.00684613499083398
481,0.00669848609952684
482,0.00655346235103097
483,0.00657405585653174
484,0.00646669144744611
485,0.00633112032791959
486,0.00639218650397875
487,0.00644887655074832
488,0.00654111925096491
489,0.00674599144633614
490,0.00678937000478065
491,0.00682529785665154
492,0.007034051498875
493,0.00697131934822692
494,0.00707388659839569
495,0.00702137765327643
496,0.00703920982483259
497,0.00697605780398832
498,0.00702688119510873
499,0.00688493370337143
500,0.00696078140884707
501,0.00691478186108923
502,0.00703157891761749
503,0.007089512651368
504,0.00704842472819482
505,0.00730278760564341
506,0.007276825657851
507,0.00734615910745409
508,0.0074304046189446
509,0.00746808439132489
510,0.00736762079443421
511,0.0075136166187068
512,0.00748883463417933
513,0.00728768653087623
514,0.00727048181061573
515,0.00719558195492124
516,0.00715037372325628
517,0.00717502995375511
518,0.00714723812017349
519,0.00732223447043446
520,0.0075091540127969
521,0.00761595504820251
522,0.00772275608360811
523,0.00782955711901372
524,0.00782971971680518
525,0.00786441510354043
526,0.00795024826391847
527,0.00789780658716264
528,0.00798017488836364
529,0.00810661400636593
530,0.00812666064654346
531,0.0081579011047408
532,0.00816182984959325
533,0.0082555709116673
534,0.00826782165489727
535,0.00824335564558096
536,0.00829607378675898
537,0.00828414440300366
538,0.00822031307180271
539,0.00814864782906007
540,0.00821320314639072
541,0.00818709069420843
542,0.00811324425284837
543,0.00815907862010151
544,0.00826340619828576
545,0.00817320980478994
546,0.0082451542789189
547,0.0082518065465406
548,0.00825845881416231
549,0.00826511108178401
550,0.00823762637663663
551,0.00825596133828431
552,0.00832223982409811
553,0.0082828787971595
554,0.00824973322279973
555,0.00832639268727938
556,0.00821993341338911
557,0.00821561287209275
558,0.008177934225912
559,0.0081138898204788
560,0.0081838460093629
561,0.0080327116038133
562,0.00821682696258604
563,0.00807871289463116
564,0.00811999499497006
565,0.00797029675633902
566,0.00794699813272016
567,0.00780855506367408
568,0.00786654561974433
569,0.00778310504861813
570,0.00775738042549546
571,0.00779276202062503
572,0.00776423389382078
573,0.00775382108875465
574,0.00780446693629222
575,0.00771408177159681
576,0.00772867171428097
577,0.00774326165696514
578,0.0077578515996493
579,0.00777244154233346
580,0.00778703148501762
581,0.00784664500342237
582,0.00779329622799963
583,0.00781655048544889
584,0.00768488989130595
585,0.00761720115502806
586,0.00737320541278354
587,0.00721469541059174
588,0.00710479285912453
589,0.00699489030765732
590,0.00688498775619011
591,0.00692938671868473
592,0.00699120562720991
593,0.00701368265492428
594,0.00710825138343823
595,0.00710299415789587
596,0.00716578523862058
597,0.00722741721265576
598,0.00723738511809144
599,0.00725422677399227
600,0.00733829146172406
601,0.0073706269339147
602,0.00743264230671091
603,0.00737863836666095
604,0.00745729836495065
605,0.00739417718220096
606,0.00739488329816801
607,0.00731889065316632
608,0.00727351524151401
609,0.00723880920219413
610,0.00716931649271486
611,0.00711376562576901
612,0.00704100964152215
613,0.0070267150241777
614,0.00691775934977407
615,0.00696828653268808
616,0.00688825262607661
617,0.00693968099937766
618,0.00689988857853247
619,0.00691837385546858
620,0.00688527486008182
621,0.00690156782809654
622,0.00681079470139183
623,0.0067451172408867
624,0.00669455785160168
625,0.00664399846231666
626,0.00659343907303164
627,0.00654504963741194
628,0.0065085017100735
629,0.00648866678734698
630,0.00653164767194202
631,0.00645707912676725
632,0.00648632840775282
633,0.00645829178859372
634,0.00648782383176637
635,0.00651156785013344
636,0.00643760398117044
637,0.00649021060875651
638,0.00642622821316305
639,0.00645253225682738
640,0.00639472384913538
641,0.00636194801768863
642,0.00628394238608359
643,0.00620733976510955
644,0.00613073714413551
645,0.00605413452316147
646,0.00604968810796667
647,0.00600139609398444
648,0.00586863516304471
649,0.00595902839633202
650,0.00587523198151696
651,0.00592977084384936
652,0.00584728394640107
653,0.00572981127241802
654,0.00563915578773519
655,0.0056429648895291
656,0.00560369131902027
657,0.00563549242535325
658,0.0057289223772929
659,0.00587375776867111
660,0.00590819283754032
661,0.00587882986067293
662,0.00591300573185949
663,0.00584774741147224
664,0.00579775609393972
665,0.00580381235789409
666,0.00580412055933123
667,0.00580895541508493
668,0.00577612509407327
669,0.00568945223872626
670,0.00568537751694106
671,0.00568069632720016
672,0.00559932684868638
673,0.00559931723490856
674,0.00562220693831708
675,0.00559288407759183
676,0.00560502472221581
677,0.00555971489981835
678,0.0055148930109534
679,0.00545582520553762
680,0.00561022696931304
681,0.00548263298550254
682,0.0053587170819401
683,0.00524508479129742
684,0.00508895537839257
685,0.00495861055185744
686,0.00482070857975851
687,0.00475112902446065
688,0.00466891318461171
689,0.00471571507538973
690,0.0047460079973112
691,0.00485688581601847
692,0.00486600121332441
693,0.00494002117643639
694,0.00502547999117036
695,0.00507379878562496
696,0.00514895455850892
697,0.00520433198328022
698,0.00516948523005431
699,0.00518373017385985
700,0.00529754403588162
701,0.00530184336521306
702,0.00540828903976702
703,0.00547966040684944
704,0.00565786494866972
705,0.00563910734384715
706,0.00577679221183102
707,0.00581623106445203
708,0.00587692999425124
709,0.00595244094815425
710,0.005923083762678
711,0.00598298682381865
712,0.00596341812836413
713,0.0057480868046032
714,0.00555991651592234
715,0.00529169183747906
716,0.00498810443822678
717,0.00477992359195353
718,0.00475909948036103
719,0.0047519150555586
720,0.00482917843191078
721,0.0047642698315705
722,0.00496246532491407
723,0.0049354560320508
724,0.0049173676676098
725,0.00488259940332262
726,0.00486363316152743
727,0.00499600776415291
728,0.00505585410445917
729,0.00519283724392914
730,0.00535595961763584
731,0.0055717422678745
732,0.00576366213379568
733,0.00598229626480342
734,0.00613449660943761
735,0.00626492356236045
736,0.00632953354506247
737,0.00637990660119737
738,0.00643027965733227
739,0.00648065271346717
740,0.00663565659268494
741,0.00669527086113216
742,0.00674797957658536
743,0.00680068829203857
744,0.00685339700749178
745,0.00687466180915767
746,0.00686427433404592
747,0.0068619263071525
748,0.00674369673186508
749,0.00680981394733749
750,0.00680109716788057
751,0.00671844559808265
752,0.00682021805522007
753,0.0066501346951935
754,0.00659539803729067
755,0.00616558393372164
756,0.00573576983015262
757,0.00530595572658359
758,0.00464067241212355
759,0.00397283542133654
760,0.00357432884417558
761,0.00345070085227631
762,0.00359211608357881
763,0.00385052351361457
764,0.00423262461584503
765,0.00457772792918115
766,0.00504592470807134
767,0.00549223298755464
768,0.0057233386442616
769,0.0059586180773902
770,0.00602582366451573
771,0.00606507336231659
772,0.00615172436207758
773,0.00621160383706321
774,0.00614853390438354
775,0.00614254406378953
776,0.00618155064898201
777,0.0060749744458387
778,0.00611452802752748
779,0.00601710898646458
780,0.00608507699607472
