"wavelength","measurement"
380,0.112728884198528
381,0.107989988694239
382,0.105343158616452
383,0.103005947012911
384,0.10389844236952
385,0.108288519997219
386,0.113009983618195
387,0.117098649861823
388,0.121051632382337
389,0.12395944978892
390,0.121593770404615
391,0.120626348647255
392,0.119981030852909
393,0.120030876175137
394,0.121476061478478
395,0.127156084377562
396,0.140565638542382
397,0.154221780711536
398,0.167877922880689
399,0.181534065049843
400,0.188584306606259
401,0.197179567055786
402,0.203222771990656
403,0.202801524507366
404,0.202450133215077
405,0.200652923881672
406,0.203611312597749
407,0.202742248010745
408,0.201795197115237
409,0.204845429063059
410,0.211900257123724
411,0.211694878976226
412,0.216368929664969
413,0.218546249533211
414,0.217298444443709
415,0.21845361101539
416,0.216005049870098
417,0.213032631019266
418,0.215116035442943
419,0.21101156212784
420,0.215051583426081
421,0.213684312002231
422,0.214692272388639
423,0.214700875902669
424,0.215639213475669
425,0.211457527556764
426,0.208400317463954
427,0.202752827445681
428,0.196941728132945
429,0.195428650035343
430,0.19558931217445
431,0.202800129771205
432,0.209265991177686
433,0.21650952000598
434,0.225759594286984
435,0.229430711459233
436,0.232041978876936
437,0.235734187167434
438,0.239426395457932
439,0.24311860374843
440,0.244201345795966
441,0.248305606802558
442,0.253889112617506
443,0.255761145564013
444,0.259836818769711
445,0.263912491975409
446,0.267988165181107
447,0.272134472477656
448,0.27323004318452
449,0.282989688371416
450,0.281827814775351
451,0.28048293218192
452,0.279609880630459
453,0.278736829078998
454,0.277863777527537
455,0.279050530151872
456,0.279682498464176
457,0.282524585290607
458,0.284303713565881
459,0.288360665299644
460,0.288802034012991
461,0.285910557601524
462,0.294697178534509
463,0.286625260104984
464,0.283080065420238
465,0.280542366540678
466,0.277480959729504
467,0.2769572299545
468,0.274623711282517
469,0.27302122582351
470,0.278528796000365
471,0.278036815760413
472,0.280790589991122
473,0.284368460099591
474,0.285157608295768
475,0.289911148329517
476,0.283573389714032
477,0.283885318632747
478,0.284197247551463
479,0.284509176470179
480,0.283372476042977
481,0.276879830343248
482,0.272025296542008
483,0.270742981364507
484,0.264256172903676
485,0.258215784870428
486,0.261103631696501
487,0.262760882935956
488,0.265844291345053
489,0.273075484494347
490,0.27518914780749
491,0.276989451435635
492,0.284111145485564
493,0.280690138270513
494,0.285498781662974
495,0.281904201937645
496,0.283310711021652
497,0.277932878381555
498,0.279858671470135
499,0.273671080385139
500,0.274759249035196
501,0.272313829725431
502,0.276443123508041
503,0.278247638273889
504,0.274439530077021
505,0.283664370427325
506,0.282340323729731
507,0.283690887451687
508,0.285529424278135
509,0.285648941047265
510,0.280888989489208
511,0.284533788528379
512,0.282707825003225
513,0.274433497195466
514,0.272545758067673
515,0.268097578720897
516,0.265702304263243
517,0.265265340012466
518,0.264456735607579
519,0.269621508648605
520,0.274604320773356
521,0.277528948149348
522,0.28045357552534
523,0.283378202901333
524,0.281824905768085
525,0.282400537510095
526,0.282902077415984
527,0.281641422341727
528,0.283382852077944
529,0.286841062015704
530,0.287485703713282
531,0.287652506273938
532,0.286723229409692
533,0.289292580747819
534,0.29003151001486
535,0.286768011254711
536,0.289279297911857
537,0.288096762290327
538,0.285396666072332
539,0.283497813463433
540,0.284738899516974
541,0.282887415610985
542,0.281051394051204
543,0.2829530977681
544,0.284593366401365
545,0.28261127167643
546,0.285302487709753
547,0.28514451641881
548,0.284986545127867
549,0.284828573836924
550,0.283465873695797
551,0.286137574048164
552,0.288839749615943
553,0.2864025911968
554,0.285688058977607
555,0.288929351137373
556,0.284860314581352
557,0.284443513812372
558,0.282987677478598
559,0.281286296837497
560,0.285033140684005
561,0.280295531453879
562,0.285614572819584
563,0.282054569657043
564,0.284012187140074
565,0.280213529541748
566,0.278734144877797
567,0.275449662365957
568,0.277896807836945
569,0.274989804007324
570,0.275488833007464
571,0.276159964597042
572,0.27663899140908
573,0.276632969687291
574,0.279315857250758
575,0.276182609375582
576,0.277391690538611
577,0.27860077170164
578,0.279809852864668
579,0.281018934027697
580,0.282228015190726
581,0.285365049574118
582,0.284006559036494
583,0.285154185466849
584,0.280255184080409
585,0.277917861213951
586,0.269621174454977
587,0.263804871589191
588,0.260219000802355
589,0.256633130015519
590,0.253047259228682
591,0.254149807102594
592,0.257089559076384
593,0.25836510572803
594,0.262668212682507
595,0.263371131052559
596,0.266345197291441
597,0.26877877230647
598,0.269966292307069
599,0.271575113685105
600,0.274284607496169
601,0.276588858796993
602,0.278827797564951
603,0.278178570279896
604,0.281377516300846
605,0.280106282191314
606,0.280661308198159
607,0.279485789770928
608,0.27579881592857
609,0.276233260530294
610,0.273813836116575
611,0.272680900603012
612,0.270319153782485
613,0.269826028698623
614,0.266863742364275
615,0.270635548739578
616,0.267077303822553
617,0.269575324325998
618,0.269758858444355
619,0.270516178215085
620,0.270039676936778
621,0.27141496812984
622,0.266234093063539
623,0.266426597666877
624,0.264460015659733
625,0.262493433652589
626,0.260526851645445
627,0.260164937319259
628,0.258878485977728
629,0.258440335669326
630,0.260524173525995
631,0.257345558589397
632,0.259180643701812
633,0.260976779843252
634,0.261472569198018
635,0.263165546481322
636,0.260645182572171
637,0.26414263301574
638,0.262619766710493
639,0.263139668054508
640,0.262148388857593
641,0.261305426094335
642,0.260191590257556
643,0.257524413673725
644,0.254857237089895
645,0.252190060506064
646,0.252512764842015
647,0.251581803222804
648,0.247150992067139
649,0.251506092319185
650,0.249577054846894
651,0.251756052327249
652,0.249118338109933
653,0.245735031166683
654,0.241817302449533
655,0.244650712104
656,0.243355074337022
657,0.246249735239214
658,0.249557713106418
659,0.256900960179471
660,0.259352069945914
661,0.260720204014045
662,0.26239943132285
663,0.261977416902816
664,0.260942528857879
665,0.261439548105486
666,0.262220870825918
667,0.262974784571754
668,0.262912893873521
669,0.258688110345938
670,0.260064549593137
671,0.259902116741408
672,0.25860316855147
673,0.259547203072008
674,0.26005625857455
675,0.259743303084536
676,0.259878585763095
677,0.261652044522457
678,0.257944327474356
679,0.258111281684521
680,0.263629666575354
681,0.260218485737027
682,0.253463607593711
683,0.248184911657177
684,0.239475949396732
685,0.23237778375127
686,0.226972917993176
687,0.221137729008085
688,0.219493941039341
689,0.218747523778241
690,0.220825168484822
691,0.223793555127633
692,0.222754586154845
693,0.224148344810224
694,0.226077620021117
695,0.226015406762496
696,0.229796151093472
697,0.229984163036495
698,0.226915363025595
699,0.226395947542488
700,0.229508401200227
701,0.227916510829752
702,0.231611817708529
703,0.232639826155203
704,0.236453117002112
705,0.237365187733964
706,0.240682699820589
707,0.243092436665684
708,0.243926358974841
709,0.247058812926732
710,0.244227312055414
711,0.24364281099683
712,0.242351326345367
713,0.230370532554865
714,0.222448322045009
715,0.208237901964695
716,0.195079287602859
717,0.185807740483846
718,0.183200825607984
719,0.183871003103067
720,0.186227887796396
721,0.184272971670282
722,0.188648957058271
723,0.187055469183297
724,0.185995042757348
725,0.185699710412217
726,0.184606737299261
727,0.187873031206587
728,0.190289899289244
729,0.196381598043395
730,0.203152888784229
731,0.210771023584838
732,0.218556253959861
733,0.226875096361573
734,0.233009957658348
735,0.235776470149441
736,0.240623751972115
737,0.243459504312243
738,0.246295256652372
739,0.2491310089925
740,0.25528323161804
741,0.256986808708881
742,0.259387397106729
743,0.261787985504576
744,0.264188573902424
745,0.265053491102426
746,0.26528464926634
747,0.267084779843013
748,0.264384228908943
749,0.265589217082554
750,0.265728364832675
751,0.264524302794278
752,0.26831272131755
753,0.266180635899186
754,0.262717131447502
755,0.245097420170502
756,0.227477708893502
757,0.209857997616502
758,0.182738777864565
759,0.158596705922803
760,0.141804877054577
761,0.139165955280159
762,0.143359014388319
763,0.154835451258092
764,0.171588451086882
765,0.186871609057307
766,0.206644306571846
767,0.225243775667898
768,0.23643363476605
769,0.244795209011673
770,0.251486216926935
771,0.254078261288323
772,0.257277231778773
773,0.260998851605417
774,0.260103930396112
775,0.260343995113142
776,0.261065038425734
777,0.258825839245257
778,0.262609358853071
779,0.259561966782102
780,0.263087187353421
