"wavelength","measurement"
380,0.00121105338809817
381,0.00120495089775553
382,0.00124588387927846
383,0.00125134569504557
384,0.00122582007814448
385,0.00135152736875721
386,0.00141952389605709
387,0.00150530417506658
388,0.00165171576041275
389,0.00169223204905772
390,0.00169419439498154
391,0.00173737300579498
392,0.0017894220540097
393,0.00179773754499666
394,0.00190382822424124
395,0.00202224280705668
396,0.00229498534995667
397,0.00259224321719176
398,0.00288950108442684
399,0.00318675895166192
400,0.00337835328616356
401,0.00364151008205792
402,0.00382562780636437
403,0.00396779084776255
404,0.00405813395405795
405,0.00407658057446356
406,0.00425350167455391
407,0.00442932382962398
408,0.00451677247506399
409,0.00460945460121041
410,0.00490786928305166
411,0.00499008029591067
412,0.00523458643083199
413,0.00547221643464651
414,0.00550054273332371
415,0.00557842879235933
416,0.00559002755857568
417,0.00561447644568232
418,0.00568001192606741
419,0.00563294211712595
420,0.00582788664891302
421,0.00587696088115232
422,0.00595426057194103
423,0.00602357246638766
424,0.0061117018798623
425,0.00602640073916512
426,0.00597863194186346
427,0.00587104718303353
428,0.0056996523216726
429,0.00569933979005341
430,0.00572758583912696
431,0.00596790554268013
432,0.00627259235443126
433,0.0064138952204988
434,0.00677721661347616
435,0.00693125831362645
436,0.00705364823721456
437,0.00720093982739353
438,0.0073482314175725
439,0.00749552300775147
440,0.00756649621565088
441,0.00774120192075559
442,0.00799419343714564
443,0.0080739277669121
444,0.00825562713248927
445,0.00843732649806645
446,0.00861902586364362
447,0.00882440593480653
448,0.0089719749210439
449,0.0093292570931564
450,0.00927260941376793
451,0.00926691322522857
452,0.00927417937026711
453,0.00928144551530566
454,0.0092887116603442
455,0.00932464363639431
456,0.00935230342985609
457,0.00947612612234575
458,0.00955345797591956
459,0.00972132208938647
460,0.00970944284920354
461,0.00964474321612498
462,0.0100338983275652
463,0.00975177472431745
464,0.00967044626387371
465,0.00959229046516281
466,0.00948938574086916
467,0.00951411399623455
468,0.00942222601745818
469,0.00943112470232981
470,0.00962966815555109
471,0.0096321848199023
472,0.00970651794912108
473,0.00989237209464701
474,0.00988463076447057
475,0.0101180609677118
476,0.00989321864005386
477,0.00993734154614217
478,0.00998146445223049
479,0.0100255873583188
480,0.0100044910416915
481,0.0097752563437945
482,0.00963541765139108
483,0.00961607221131483
484,0.0094115098968474
485,0.00920728495606968
486,0.00930851779976397
487,0.00942596584334665
488,0.00948123436401206
489,0.00981502789916859
490,0.0098458817444168
491,0.00998636029658437
492,0.0102533407173596
493,0.0101669167141269
494,0.0103828369979926
495,0.0102478488751323
496,0.0103333845662741
497,0.0101799319908467
498,0.0102628466750799
499,0.010026720784866
500,0.0101465516920853
501,0.0100883296007852
502,0.010275972303374
503,0.0103861310256639
504,0.0103246444612081
505,0.0106585524052642
506,0.0106620618520987
507,0.0107561786874207
508,0.0108548736014256
509,0.0108978413427515
510,0.0107916627980563
511,0.0109974137662322
512,0.010981850145788
513,0.0106837625140537
514,0.0106865491629334
515,0.0105350821444682
516,0.010503484685046
517,0.0105079557636916
518,0.0105197098361733
519,0.0107665305994177
520,0.0110087647055502
521,0.0111725422378231
522,0.011336319770096
523,0.0115000973023689
524,0.0114554402577801
525,0.0115402695314634
526,0.0116062383215413
527,0.011546286196138
528,0.0116644331360851
529,0.0118962156023171
530,0.0119075124603386
531,0.011942536608117
532,0.0119653838008743
533,0.0120960158363629
534,0.0121461034754027
535,0.0119939379427283
536,0.0121409943257506
537,0.012091290450788
538,0.0120224700358426
539,0.0119384508714473
540,0.0120011143439875
541,0.0119386889820766
542,0.0119001963902388
543,0.0119396151264316
544,0.012025803766833
545,0.0119280673646149
546,0.01205134893022
547,0.0120558860102635
548,0.0120604230903069
549,0.0120649601703504
550,0.0119879240212113
551,0.0120594890139433
552,0.0121764181406062
553,0.0120997139805895
554,0.0120571321734467
555,0.0121741072007533
556,0.0119840914486163
557,0.011980367582905
558,0.0118980981112197
559,0.0118058117913099
560,0.0119529526200838
561,0.0117255926348507
562,0.0119429466555675
563,0.0117668643136923
564,0.0118060180886419
565,0.0116196653571951
566,0.0115786044130433
567,0.0114314378374633
568,0.0114704661529252
569,0.0113020589785001
570,0.0112979679508983
571,0.0113373434405856
572,0.0112929842514721
573,0.0112884440479431
574,0.0113582667203361
575,0.0112064272548422
576,0.0112371986014635
577,0.0112679699480849
578,0.0112987412947062
579,0.0113295126413276
580,0.0113602839879489
581,0.0114624333592473
582,0.0113831067521181
583,0.0114075083783986
584,0.011221833863779
585,0.0111171140174354
586,0.010750148363809
587,0.0105112918885359
588,0.0103487205824674
589,0.0101861492763989
590,0.0100235779703304
591,0.0100684433251171
592,0.0101645344033885
593,0.0101833459818213
594,0.0103165705297002
595,0.010320969595276
596,0.0104343149729021
597,0.0105162667613537
598,0.0105477193671184
599,0.010607337735782
600,0.0107043650637449
601,0.0107647672795982
602,0.0108480746648281
603,0.0107711102103417
604,0.0108745743958845
605,0.0107903013373522
606,0.0108141300007586
607,0.0107475308906541
608,0.010587747041151
609,0.0105850534680776
610,0.0104790726780558
611,0.0103595877484767
612,0.0102735680491623
613,0.0102252465012111
614,0.0100916355347462
615,0.0101744204230462
616,0.0100307644768138
617,0.0100868162647851
618,0.0100585686953958
619,0.0100929616718723
620,0.0100137161151897
621,0.0100810002123232
622,0.00985614806018037
623,0.00983675072871667
624,0.0097343407785071
625,0.00963193082829753
626,0.00952952087808795
627,0.00950268840075805
628,0.00943360906363684
629,0.00940969485058082
630,0.00945142107422105
631,0.00932243133642724
632,0.00934627221853259
633,0.00940791429756715
634,0.00937647813894998
635,0.00944392727539365
636,0.00933546351462629
637,0.00941232692067192
638,0.00929318761504088
639,0.00935093044053608
640,0.00923980879562319
641,0.00916544303367807
642,0.00908697648386887
643,0.00897018858336071
644,0.00885340068285256
645,0.0087366127823444
646,0.0086761992920976
647,0.0086241980361303
648,0.00839403775337275
649,0.00853185848453278
650,0.00844998019013029
651,0.00848474664683987
652,0.00840567558026328
653,0.00824276250232809
654,0.00808629205839739
655,0.00806948355539123
656,0.0080328725812542
657,0.00812512951474626
658,0.00821926452921199
659,0.00841348057303828
660,0.008455351642959
661,0.00847487008171997
662,0.00847093754233513
663,0.00842291165076867
664,0.00831068652231564
665,0.00832498019379527
666,0.00833569354158011
667,0.00836053728355546
668,0.00831925497077146
669,0.0080924892569805
670,0.00814458305668333
671,0.00807663016894936
672,0.00801773510586335
673,0.00801799262757678
674,0.00803093700802418
675,0.00798785447986439
676,0.00797043067036662
677,0.00797356871583302
678,0.00787489056022398
679,0.00779196886922069
680,0.00801081159617219
681,0.00787056152105494
682,0.00766177535814133
683,0.00749076586739447
684,0.00725624751525402
685,0.00705891736947041
686,0.00687217777444661
687,0.0067189979481986
688,0.00666743700078816
689,0.00670576062417176
690,0.00677376782233329
691,0.00688873587954592
692,0.00694650497042211
693,0.00698890660161895
694,0.00716810369815951
695,0.0071969872908081
696,0.00735242384771816
697,0.00741429573041607
698,0.00735732490339026
699,0.00741185913440069
700,0.00757200567670808
701,0.00759415491197942
702,0.00776555173470504
703,0.00781579093272146
704,0.0080245277474105
705,0.00809953470001661
706,0.00826570672161655
707,0.00840648189009855
708,0.00845733622015465
709,0.00860866986086912
710,0.00856684927198145
711,0.00860282837920902
712,0.00864121056827431
713,0.00826552788143794
714,0.00801846078584202
715,0.00752389789871422
716,0.00714637089890027
717,0.00678676802179186
718,0.00675100183977076
719,0.00680579284893828
720,0.00688918720377817
721,0.00684858355387127
722,0.00703865987998898
723,0.007033301699728
724,0.00699807944004905
725,0.00699410839448669
726,0.00696249481992544
727,0.00710599495887092
728,0.00722903198066882
729,0.00741876781075509
730,0.00768995743884821
731,0.00798845574742665
732,0.00829735468289316
733,0.00862939001957162
734,0.00877401422650315
735,0.00895887550985607
736,0.00911041400897299
737,0.00921724461843892
738,0.00932407522790484
739,0.00943090583737077
740,0.00964752605038992
741,0.00974158328012699
742,0.00981667736584421
743,0.00989177145156144
744,0.00996686553727866
745,0.00999951206257993
746,0.0100023390357443
747,0.0100597965143633
748,0.00986933963322041
749,0.00990452168295201
750,0.00988016214981077
751,0.00982089588367307
752,0.00993825854325064
753,0.00973555837766951
754,0.00961201462405328
755,0.00898282401957779
756,0.0083536334151023
757,0.00772444281062681
758,0.00671211107960014
759,0.00578798823985139
760,0.00513812687214093
761,0.00489751543142598
762,0.00511055800854622
763,0.00549098723793342
764,0.00602964944475284
765,0.00657429859078223
766,0.0072875680969072
767,0.00791167037326348
768,0.00827535843976696
769,0.00855740848021602
770,0.00871335560168066
771,0.00878170117167601
772,0.00889942747382895
773,0.00898226308398067
774,0.00894597676875156
775,0.0088763648885366
776,0.00896629800861013
777,0.00874201139777333
778,0.00886554624693256
779,0.00873341710908857
780,0.00874273793019351
