"wavelength","measurement"
380,0.026044186642221
381,0.0250723560054482
382,0.0245082918203576
383,0.0237705238055811
384,0.0239952691938337
385,0.0247951479767197
386,0.0259944139037219
387,0.0268191764527378
388,0.0279295511939334
389,0.02862538085267
390,0.0282868671162013
391,0.028137107754434
392,0.0283607519216769
393,0.0283601959120424
394,0.028847009136958
395,0.0303280777265283
396,0.0336586601516497
397,0.0372513191456251
398,0.0408439781396006
399,0.0444366371335761
400,0.0465024312853158
401,0.0492030158378806
402,0.0510850066773814
403,0.0518676646598284
404,0.0519798568860203
405,0.0521895003913177
406,0.053352481320355
407,0.0540366338212119
408,0.054559518796987
409,0.0559755822581961
410,0.058616573003908
411,0.0592952383329327
412,0.0613097583388408
413,0.0628094133315612
414,0.0630266867034484
415,0.0642553642240944
416,0.0639753287826154
417,0.0640088575106129
418,0.0654086681882444
419,0.0645013234667388
420,0.0660764603263689
421,0.0662508984246447
422,0.0668061789026893
423,0.0673289152751432
424,0.0677037125063769
425,0.0661382764095038
426,0.0654780655333166
427,0.0637255566720673
428,0.0620854016897401
429,0.061747022458143
430,0.0615824704815394
431,0.0638643540195611
432,0.0659653492644622
433,0.0676849218149968
434,0.0702135926420661
435,0.0714840540443497
436,0.0721866947179584
437,0.0729378456604106
438,0.0736889966028627
439,0.0744401475453149
440,0.0746306374464056
441,0.0751266518508986
442,0.0765613564033287
443,0.0765514192973293
444,0.0771931109259948
445,0.0778348025546602
446,0.0784764941833257
447,0.0792508772717648
448,0.0789291480872584
449,0.0812517228283194
450,0.0802574309713482
451,0.0792528786725477
452,0.078580047644665
453,0.0779072166167822
454,0.0772343855888994
455,0.0767719767207113
456,0.0763109479083705
457,0.0768558261057096
458,0.076847440669274
459,0.0777823870216541
460,0.0776085348384373
461,0.076357688751494
462,0.0784132963366606
463,0.0756854465256491
464,0.0748853793492162
465,0.0738321412651474
466,0.0728523276434325
467,0.0724680875829269
468,0.0714341741895809
469,0.070856106486273
470,0.0718489905628003
471,0.0717656512868847
472,0.0718258681623594
473,0.0723851380932681
474,0.0725127830984374
475,0.0732923243332564
476,0.0714759185402098
477,0.0712232217074882
478,0.0709705248747666
479,0.070717828042045
480,0.0702112513895313
481,0.0681986493009644
482,0.0669340276399279
483,0.0663290962772628
484,0.064532998619766
485,0.0629251660882678
486,0.0631750945056372
487,0.0635376593169654
488,0.0638759712080752
489,0.0653115685341043
490,0.0654999546772301
491,0.0657251848046609
492,0.0669376195739798
493,0.0659620240794787
494,0.0668260981715214
495,0.0655693769878876
496,0.0658693106776478
497,0.0643923513458309
498,0.0645415959436544
499,0.0629028626370448
500,0.0630608496145516
501,0.0624309076062965
502,0.0631968288292417
503,0.0634037191205539
504,0.062540245808834
505,0.064412917085839
506,0.0638695162474714
507,0.0639636151218852
508,0.06401684865874
509,0.0639360927691337
510,0.0624302326831073
511,0.0632313314995575
512,0.0626278042853392
513,0.0606579812885146
514,0.0600314971983294
515,0.0588652262992804
516,0.0583805857587445
517,0.058147393136308
518,0.0579377700656163
519,0.0588102154652636
520,0.0597015187810721
521,0.0602607621776527
522,0.0608200055742333
523,0.0613792489708139
524,0.0609133989181482
525,0.0608989416073543
526,0.0609568776651311
527,0.0605855005611476
528,0.0607363905058876
529,0.0615518065637793
530,0.0612622255895388
531,0.0613952714217272
532,0.0611715387733476
533,0.0613926451660813
534,0.0614964608781133
535,0.0608249326993662
536,0.0613544975386668
537,0.0606879130716567
538,0.060173306469781
539,0.0597100893519577
540,0.05988052019385
541,0.0593953624300455
542,0.0590279757422931
543,0.0591485521208801
544,0.0594080933683432
545,0.0588162232469821
546,0.0591650496643557
547,0.059028964493032
548,0.0588928793217083
549,0.0587567941503846
550,0.0583804878054095
551,0.0586319894972887
552,0.0588749972339075
553,0.0583052665273109
554,0.0579688377825854
555,0.0583796746527563
556,0.0575533521502179
557,0.0572255928613192
558,0.0567619012259863
559,0.0560860526489773
560,0.0567641520144303
561,0.0556529301162452
562,0.0563888029772836
563,0.0554909115047471
564,0.055610737915815
565,0.0547501682852222
566,0.0542353324161165
567,0.0535702264802913
568,0.0537506583113518
569,0.0530557939676682
570,0.0528880056575913
571,0.0529461418533748
572,0.0526957425486845
573,0.0525273445137383
574,0.0529106688371587
575,0.0520196495314158
576,0.0521014081912514
577,0.0521831668510871
578,0.0522649255109227
579,0.0523466841707584
580,0.052428442830594
581,0.053048677305936
582,0.0526874950156081
583,0.0529353352157635
584,0.0518671711350543
585,0.0517107867305034
586,0.0503098911309666
587,0.0495947662532481
588,0.0490180617204142
589,0.0484413571875803
590,0.0478646526547465
591,0.048124373871221
592,0.0484478688239152
593,0.048476780500552
594,0.0492200948747955
595,0.049066263713627
596,0.0493105123906719
597,0.0495015433268419
598,0.0494477949634235
599,0.0494916956395027
600,0.0498483992272562
601,0.0501027091849902
602,0.0502926308406544
603,0.050033654371042
604,0.050357150071818
605,0.0500748667041108
606,0.0499886656996821
607,0.0496631454795104
608,0.049078379952008
609,0.0489765636744003
610,0.0485714205239269
611,0.0482241347777341
612,0.0477950917310918
613,0.0474892684451919
614,0.0469987338086512
615,0.0475525396751349
616,0.0469026003163814
617,0.0472665792228774
618,0.0472106282023939
619,0.0472756795405244
620,0.0471799890771133
621,0.0473826778949884
622,0.0464402868125667
623,0.0462797813148312
624,0.0459466658386607
625,0.0456135503624902
626,0.0452804348863197
627,0.0453336135180435
628,0.0451456592720533
629,0.0450244820398325
630,0.0454443470777139
631,0.0447582326448128
632,0.0449654708864793
633,0.0452283242694035
634,0.0453318931929282
635,0.045646394080913
636,0.0452240817146725
637,0.0455024186709478
638,0.0451981740812714
639,0.0453656646123336
640,0.0450095697970195
641,0.0449042555765289
642,0.0447538977852667
643,0.0444034705611557
644,0.0440530433370448
645,0.0437026161129339
646,0.0437338031680058
647,0.0437026329101778
648,0.0430424108987539
649,0.0436641707149321
650,0.043235209623344
651,0.0434794191838419
652,0.0430619606298608
653,0.0423374885844387
654,0.0416108898143109
655,0.0419432709058877
656,0.0415968088912457
657,0.0419877200544743
658,0.0423719948153794
659,0.0433574967029684
660,0.0436815328188831
661,0.0438343659937792
662,0.0439358340126504
663,0.0437592026835884
664,0.0433807880954383
665,0.0435098826659764
666,0.0435949302232394
667,0.0435215205231901
668,0.0435628812024151
669,0.0426871523744574
670,0.0429252314364378
671,0.0428920180741683
672,0.0426678317824414
673,0.0427938046572406
674,0.0429549893616595
675,0.0428239801237257
676,0.042787074045651
677,0.0431685087321912
678,0.0427616114374362
679,0.042626506698981
680,0.0435796181758466
681,0.0427948077619436
682,0.0418366415601531
683,0.0411646810200289
684,0.0397175621579171
685,0.0386414990189032
686,0.0378147896049806
687,0.0371676689545526
688,0.0370370513704789
689,0.0374011695674691
690,0.0381004348793017
691,0.039081383763919
692,0.0396471565228581
693,0.0401651256447788
694,0.0409848459077172
695,0.0413216618066982
696,0.0422758994616442
697,0.0428073995631156
698,0.0425890701033981
699,0.0431998156184809
700,0.0443644774348449
701,0.0444752683252991
702,0.0456768915521083
703,0.0461932366006782
704,0.0474254443875435
705,0.0479479058519309
706,0.0491336575549319
707,0.0499605384498932
708,0.0506613757982356
709,0.05181802274324
710,0.0517414261746396
711,0.0522855667257387
712,0.0529843836685818
713,0.0515387623137799
714,0.0510688644043917
715,0.0491909662059022
716,0.0476923147137378
717,0.0470056112768124
718,0.047128062155956
719,0.0480302825411201
720,0.0492152207017521
721,0.0493150633317975
722,0.0512016488506823
723,0.0516850553747135
724,0.0520437462910297
725,0.0529709368071603
726,0.0532983827600988
727,0.0549843925616764
728,0.0560930552341294
729,0.0582374597608011
730,0.0597303344555611
731,0.0622654011242074
732,0.0643174206234267
733,0.0668651152442403
734,0.068572625189862
735,0.0695022208259742
736,0.0711217587255898
737,0.0720028135808644
738,0.0728838684361389
739,0.0737649232914135
740,0.0756507697678706
741,0.0764985795638313
742,0.077379533944723
743,0.0782604883256147
744,0.0791414427065065
745,0.0797167756823001
746,0.0798202847847559
747,0.0806696912030773
748,0.0800599838874705
749,0.0810072477159205
750,0.0811855121449333
751,0.0812601387662262
752,0.0823556146575355
753,0.0821018969599666
754,0.0808309161219738
755,0.0756082652116522
756,0.0703856143013307
757,0.0651629633910091
758,0.0569815058624521
759,0.0499505078658155
760,0.0454124906805336
761,0.0450084451131707
762,0.0466881438207286
763,0.050409099158868
764,0.0555146948456705
765,0.0605548620781096
766,0.0665920436299489
767,0.072068403569566
768,0.0753369750542991
769,0.0776532438663102
770,0.0798315345491976
771,0.0807575903873623
772,0.0815558713412096
773,0.0827254510388945
774,0.0823937498022385
775,0.0826160892697187
776,0.0829693369902701
777,0.0820531640899723
778,0.0831869199660103
779,0.0824708932391087
780,0.0833882430570342
