"wavelength","measurement"
380,0.0136060276800594
381,0.0131372240821329
382,0.0126518996514958
383,0.0121689618340258
384,0.0122818534661426
385,0.012684701796131
386,0.0132594977240385
387,0.0138065372564122
388,0.0141248832685647
389,0.0144675242612252
390,0.0141977202773934
391,0.0139173376880442
392,0.0138669841256459
393,0.0137956257481203
394,0.0137773611248244
395,0.0146273904688453
396,0.0159017525095109
397,0.0173872349867056
398,0.0188727174639004
399,0.0203581999410952
400,0.021173558109009
401,0.0221147216028368
402,0.02272173900829
403,0.0227664111114685
404,0.0225158550486835
405,0.0221737800234127
406,0.0224936117561918
407,0.022427308421036
408,0.0223451220616434
409,0.0225514984250654
410,0.0233734001315193
411,0.0231639609522379
412,0.0237428785635533
413,0.0239831972778071
414,0.0238176475852281
415,0.0239641375155902
416,0.0234922989904926
417,0.0233438971062139
418,0.0235364212421913
419,0.0229188925817594
420,0.0231899613087552
421,0.0230946020185282
422,0.023184355999123
423,0.0231734099516858
424,0.0231511707536104
425,0.0225925070834592
426,0.0221791247358921
427,0.0216244955389465
428,0.0208180490993955
429,0.0206467794862318
430,0.0205721374340661
431,0.0213017494033359
432,0.0218130061869314
433,0.0225065043077701
434,0.0232230501609215
435,0.023890951711784
436,0.0238051812010413
437,0.0240864969615084
438,0.0243678127219755
439,0.0246491284824427
440,0.0246899175491018
441,0.0249289385733567
442,0.0253759421183647
443,0.0256210297583861
444,0.0258983703793588
445,0.0261757110003315
446,0.0264530516213041
447,0.0268155544519567
448,0.0270214820020871
449,0.0277925804103642
450,0.0274993137039091
451,0.0272399691991805
452,0.0270844767940943
453,0.0269289843890081
454,0.026773491983922
455,0.0267257692469748
456,0.0265767402834478
457,0.0269043063558968
458,0.0269467858895736
459,0.027223785104743
460,0.0271271025835639
461,0.0268584342423468
462,0.0274983023600472
463,0.0266853896889976
464,0.0261810725439178
465,0.0259449987003504
466,0.0255847207384398
467,0.0253225330591983
468,0.0250927370521514
469,0.0247630221095443
470,0.0253170145912263
471,0.0251700847180174
472,0.0251465594027397
473,0.0254438928841696
474,0.0253763472280138
475,0.0257221542633571
476,0.0250870992108244
477,0.0250235269719836
478,0.0249599547331428
479,0.0248963824943021
480,0.0247319183118267
481,0.0240840550601224
482,0.0236263539738118
483,0.0234334027713911
484,0.0228203219473631
485,0.0222680546323756
486,0.0224365486700671
487,0.0225051178244433
488,0.0225942571099879
489,0.0232308143482475
490,0.0232782194382166
491,0.0235917778718688
492,0.0240383335563809
493,0.023757750490009
494,0.0240839213893494
495,0.0237345674809864
496,0.0238323221046269
497,0.0234249544853268
498,0.0235211944008012
499,0.0230891278717859
500,0.0232274573699989
501,0.0230965159217665
502,0.0235050879151564
503,0.0236815878508326
504,0.0234503100963067
505,0.0242679429666985
506,0.0243308281440308
507,0.0245255859919179
508,0.0247572573873648
509,0.0249337815515466
510,0.0246966472929637
511,0.025249329189095
512,0.0252032241365262
513,0.0247209009332829
514,0.024794902575899
515,0.0245479371799589
516,0.0245662375695765
517,0.0249014825509105
518,0.0250058233036389
519,0.0258264923455754
520,0.0266814786940046
521,0.0273045982607447
522,0.0279277178274848
523,0.0285508373942249
524,0.0286144713999172
525,0.0289872742749538
526,0.0293157232911599
527,0.0294272115478424
528,0.0299362510731437
529,0.0305217947610731
530,0.0308520515264294
531,0.0310861381703965
532,0.0311585351005383
533,0.0316350237586973
534,0.0318697949036853
535,0.0316362158208077
536,0.0320725677842834
537,0.0319696430505498
538,0.0317489395868446
539,0.0317624579413882
540,0.031945629368756
541,0.0318227116332229
542,0.0316511073020777
543,0.031939536956713
544,0.032116029119375
545,0.0319802875213009
546,0.0322763088388712
547,0.0322896997003382
548,0.0323030905618052
549,0.0323164814232722
550,0.0320853692339337
551,0.0323347452705954
552,0.03264334759466
553,0.0324799905903337
554,0.0322397179651566
555,0.032492649042614
556,0.0319788462662789
557,0.0318386956134868
558,0.0315720641747986
559,0.0311323925658332
560,0.0313930758022233
561,0.0307315485315927
562,0.0311342635802444
563,0.0305202671171704
564,0.0305645620505272
565,0.0298680055777326
566,0.0295874480450928
567,0.0289665945245136
568,0.0289584751994288
569,0.0283221412671497
570,0.0281594293649511
571,0.0279538773268991
572,0.0277261004240409
573,0.0275566121309259
574,0.0274990170072983
575,0.0269672029204194
576,0.0268672327722712
577,0.026767262624123
578,0.0266672924759747
579,0.0265673223278265
580,0.0264673521796783
581,0.0266242044618665
582,0.0263375006718096
583,0.0263731232923694
584,0.0258270574050515
585,0.0256219897066456
586,0.0248564480683821
587,0.0243240320736262
588,0.0239965337233147
589,0.0236690353730033
590,0.0233415370226919
591,0.0233521668228096
592,0.0235609590188016
593,0.0235538792357366
594,0.0237986178462838
595,0.0236911824937666
596,0.0237535940536927
597,0.0238587993305442
598,0.0238337763110933
599,0.0238243352742501
600,0.0239326581470643
601,0.0239499498276381
602,0.023976502876341
603,0.0237832831659623
604,0.0240528104978288
605,0.0237581517126444
606,0.0236776132028737
607,0.0235142835587783
608,0.0231242134792656
609,0.023025056983383
610,0.0227215247744685
611,0.0225505115474698
612,0.0222434673424075
613,0.0219807742265745
614,0.0216779853872945
615,0.0217751252148574
616,0.0215087485099552
617,0.0216325975985656
618,0.0215567137584935
619,0.0214549103291376
620,0.0213606608053902
621,0.0214521191477162
622,0.0209734508952881
623,0.0209363264439685
624,0.0207881376069706
625,0.0206399487699726
626,0.0204917599329747
627,0.0203798196378054
628,0.0203360580810953
629,0.0202450500353203
630,0.0203927516165159
631,0.0201144418078111
632,0.0202423762640294
633,0.0203534295173928
634,0.0202710483155314
635,0.0202589167291066
636,0.020073614997777
637,0.0201795339837565
638,0.0199234101956612
639,0.0199042650487933
640,0.0197292754303217
641,0.0195480696053797
642,0.0193706205812625
643,0.0191223982653531
644,0.0188741759494436
645,0.0186259536335342
646,0.0186005642567673
647,0.0184553561253805
648,0.0181001596906022
649,0.0183745696019766
650,0.0180198479166275
651,0.0181836779328111
652,0.0180101688488923
653,0.0175684693277104
654,0.0172502682327246
655,0.0172883897400843
656,0.0170805691210828
657,0.0171996404997193
658,0.017341670140699
659,0.0176497903136013
660,0.017734257801978
661,0.017716893912537
662,0.0177114945471374
663,0.0175320714084026
664,0.0173952313926131
665,0.017325495167659
666,0.017252822127305
667,0.017306478390603
668,0.0172736534930594
669,0.0169066735017672
670,0.0169437628570475
671,0.0168654058884753
672,0.0168894255492578
673,0.0167576382693691
674,0.016902463703563
675,0.0168937108471041
676,0.0169432868191437
677,0.0171008721747408
678,0.0169432113127138
679,0.0168333965853927
680,0.0172701282054255
681,0.0171484207515265
682,0.0168388488961085
683,0.0167937071749648
684,0.0163450195879662
685,0.0160607953135095
686,0.0160017447686369
687,0.0158472418876586
688,0.0160465635033749
689,0.016482013645877
690,0.0173207048605194
691,0.0181340716924875
692,0.0188491158542088
693,0.0196925812277288
694,0.020736823952057
695,0.0213977077196093
696,0.0226112817126016
697,0.0236682682964113
698,0.0242376737752874
699,0.0253354429846901
700,0.0268074470398107
701,0.0276152244107484
702,0.0291578432236761
703,0.0303809177296257
704,0.0319074398661255
705,0.0330503189658232
706,0.0346573178085817
707,0.0360210038605436
708,0.0373995033756458
709,0.0387746994949049
710,0.0396802328770277
711,0.0409935467257473
712,0.0423616851952098
713,0.0421178785904338
714,0.0424306650057565
715,0.0416419996067432
716,0.0412578535007581
717,0.0410570402092631
718,0.0421066558959095
719,0.0435526170460024
720,0.0453259584711427
721,0.0459254451917181
722,0.0486978176277618
723,0.0495397501445369
724,0.0506171535449009
725,0.0521473990264044
726,0.052997037056949
727,0.0550902291800885
728,0.0568480013732591
729,0.0591976497689642
730,0.0614868069780115
731,0.0643327519053898
732,0.0669712357366399
733,0.0700172874483768
734,0.0721523078501444
735,0.0733619197798627
736,0.0755520939747016
737,0.0768136001304139
738,0.0780751062861263
739,0.0793366124418386
740,0.0814018630293681
741,0.0825553682204524
742,0.083739482970684
743,0.0849235977209156
744,0.0861077124711472
745,0.0869794837745467
746,0.0873152197832646
747,0.0884170994302942
748,0.0876055366377886
749,0.0886585015453595
750,0.0891308212323201
751,0.0889417947507962
752,0.0904884869364414
753,0.0900088465995729
754,0.0891925694895957
755,0.0837052843830028
756,0.07821799927641
757,0.0727307141698172
758,0.0638138241211156
759,0.0558919679978323
760,0.0502191513215496
761,0.0493432266416001
762,0.0514103784975651
763,0.0555116776619416
764,0.061099888991524
765,0.0666750149780542
766,0.0734930363497524
767,0.0798855016774143
768,0.0832785323175091
769,0.0859764549716178
770,0.0881070108269881
771,0.0891574333668693
772,0.0900064689395348
773,0.0912770130364085
774,0.0909221871405629
775,0.091029526777541
776,0.0913131184074319
777,0.0904400753426353
778,0.0916560014032354
779,0.0908048686463719
780,0.0920757606187942
