"wavelength","measurement"
380,0.00177223969088461
381,0.00181693710457845
382,0.00176726451127754
383,0.00173804799451054
384,0.00183231511655861
385,0.00197991554087722
386,0.00212550565798903
387,0.00217301213322398
388,0.00231471545735161
389,0.00246665383376801
390,0.002426855798477
391,0.002489660686053
392,0.00252604386446705
393,0.00255586497602822
394,0.00268871021845555
395,0.00283109315029154
396,0.00313867520625838
397,0.00349767746871145
398,0.00385667973116451
399,0.00421568199361758
400,0.00449521226799201
401,0.00472414617073015
402,0.00500921687466964
403,0.00512230290747126
404,0.00511452999475859
405,0.00519457086355919
406,0.00526850841974566
407,0.00534200939808964
408,0.00540883543137875
409,0.00556485120740745
410,0.00585321488811574
411,0.0058834235419114
412,0.00608814858770506
413,0.00621924313193438
414,0.00625744370432693
415,0.00635147299682765
416,0.00631630320685511
417,0.006285367699151
418,0.00637524559403668
419,0.00628539335453918
420,0.00647485296536481
421,0.00642840156409585
422,0.00655313435773471
423,0.00657038144132277
424,0.00661611187404437
425,0.00652750963487882
426,0.00645584431215945
427,0.0062745395278776
428,0.0061092543777454
429,0.00610598748617143
430,0.0061553564242663
431,0.00641808169306224
432,0.00662756406161835
433,0.00686258506359342
434,0.00716900251003233
435,0.00733570538466008
436,0.00743691976284512
437,0.00756205242728135
438,0.00768718509171757
439,0.00781231775615379
440,0.00784381242750855
441,0.00800871799049594
442,0.00824699221223259
443,0.00836909461604596
444,0.0085171394726854
445,0.00866518432932483
446,0.00881322918596426
447,0.00899325518918976
448,0.00907590702382391
449,0.00944221286483755
450,0.00938532099523117
451,0.00934410357998651
452,0.00934300954404228
453,0.00934191550809805
454,0.00934082147215383
455,0.00939005180096273
456,0.00934075615570282
457,0.00947314075193709
458,0.00955324555392806
459,0.00973091392266012
460,0.00973443065261887
461,0.00967459869644244
462,0.00994108565809798
463,0.0096514313970732
464,0.00954237682548592
465,0.00953278875826119
466,0.00941632312799069
467,0.00940196920042414
468,0.0093567747031412
469,0.00922043421386391
470,0.00945181891267783
471,0.00944512568043703
472,0.0095302747056483
473,0.00962526060064534
474,0.00966548967512539
475,0.00987296791838664
476,0.00960746612078451
477,0.00962756017213168
478,0.00964765422347885
479,0.00966774827482602
480,0.00966286540562642
481,0.00942577985976566
482,0.00925295682771893
483,0.00926298633864538
484,0.00900212979103845
485,0.00882419270393562
486,0.00889427814078666
487,0.00897661613169942
488,0.00908912214935649
489,0.00931723818852597
490,0.0093989275495568
491,0.00950117270391722
492,0.00975223473400475
493,0.00965381313783242
494,0.00982986402222879
495,0.00972821246526173
496,0.00975185771801808
497,0.00965895768815465
498,0.00968143124652509
499,0.00950965877264704
500,0.00959769338473899
501,0.00957091254153709
502,0.00974929559941155
503,0.00981791373184552
504,0.00973867087952473
505,0.0101129185271996
506,0.0100910092902317
507,0.0101810467034716
508,0.0103221389190103
509,0.0103140613794766
510,0.0102004953145743
511,0.0104317549069837
512,0.0103754874400223
513,0.0101407961651339
514,0.010082530126079
515,0.0100209058250421
516,0.00998564525696502
517,0.0100525915482826
518,0.010087594093466
519,0.0103587490551518
520,0.0106297758247489
521,0.0108213342434184
522,0.011012892662088
523,0.0112044510807575
524,0.0111874692765905
525,0.0113257597494468
526,0.0114177394929841
527,0.0113690872724712
528,0.0115453559929305
529,0.0117393583883855
530,0.011805476852608
531,0.0118661973877417
532,0.0118897578630115
533,0.0120099582330007
534,0.0120781235773799
535,0.0120111051332243
536,0.0121485359310248
537,0.0121066817497714
538,0.012054657748119
539,0.0119688438644392
540,0.0120642580282758
541,0.0120117219053922
542,0.0119700033941977
543,0.0120578371341848
544,0.0121273763213969
545,0.012073885743122
546,0.0121789564626847
547,0.0121795988746687
548,0.0121802412866528
549,0.0121808836986369
550,0.0121437807995464
551,0.0122084069961594
552,0.0123008938245158
553,0.0122251755632751
554,0.012140938302941
555,0.012281996799036
556,0.0121175463639432
557,0.0120753982911834
558,0.0120001059926798
559,0.0118810388701639
560,0.0120105558317579
561,0.0117962705002197
562,0.0119481002592269
563,0.0117868439039055
564,0.0117885789775275
565,0.0116207973814844
566,0.0115255747103767
567,0.0113769059210871
568,0.011383775619127
569,0.0112534824508067
570,0.0111781268436017
571,0.0111850098942954
572,0.0111316034393028
573,0.0111083162659404
574,0.011157146266963
575,0.0109744900167867
576,0.010966370872805
577,0.0109582517288234
578,0.0109501325848417
579,0.0109420134408601
580,0.0109338942968784
581,0.0110420130603001
582,0.0109384508208391
583,0.0109615878146138
584,0.0107858112723687
585,0.0107348323421291
586,0.0103912761553882
587,0.0102251420444668
588,0.0101133733638254
589,0.0100016046831839
590,0.0098898360025425
591,0.00989742769506723
592,0.0099550249417934
593,0.00997050403249373
594,0.0100747945055625
595,0.010059744791087
596,0.0100883856269705
597,0.0100928207636694
598,0.0100837921270228
599,0.0100853734162634
600,0.0101221309508883
601,0.0101738068416417
602,0.0101911775502785
603,0.0100884860536213
604,0.0102123315731282
605,0.0100959776170282
606,0.0100937900373229
607,0.0100302431729604
608,0.00986122487405894
609,0.00981993427855835
610,0.00972094650529446
611,0.00964420143293534
612,0.00951702501924742
613,0.00945012715984477
614,0.00925029374671322
615,0.00934788621570064
616,0.00926641468669664
617,0.00929986121115574
618,0.00925748347988597
619,0.00926957244765988
620,0.00919678083938492
621,0.00924871799471528
622,0.00903476607352487
623,0.00900688526542601
624,0.00893051783228884
625,0.00885415039915167
626,0.0087777829660145
627,0.008747382529296
628,0.00869197869199073
629,0.00866725211655809
630,0.008704904957135
631,0.00858999562213197
632,0.0085970796468751
633,0.00862204731560835
634,0.00860148241351852
635,0.00860558180263066
636,0.00849189623270897
637,0.00859743441003302
638,0.0084501311905692
639,0.0084716314479437
640,0.00839655486440596
641,0.00833076961363286
642,0.00825948950701744
643,0.00815837200831897
644,0.00805725450962049
645,0.00795613701092202
646,0.00795485118675051
647,0.00793938627249775
648,0.00776312327763789
649,0.00786492709700728
650,0.00773168102010193
651,0.00777866395426142
652,0.00764632947823869
653,0.00749828864055861
654,0.00733956133749892
655,0.00733540203614727
656,0.0072663602070398
657,0.00722998137951827
658,0.00730683422374094
659,0.00747420077660053
660,0.00751628497332603
661,0.00748115430918515
662,0.00749269222998937
663,0.00740389672830561
664,0.00732714892363259
665,0.00732454314543867
666,0.00730177696743292
667,0.00725862136825466
668,0.00727041290780168
669,0.00711024030164979
670,0.00708979713731729
671,0.00705080129892682
672,0.00698887232663744
673,0.00698300940543395
674,0.00699460766369393
675,0.00698317919413253
676,0.00693518172757035
677,0.00693813064816671
678,0.00690813027937224
679,0.00682558165315515
680,0.00700531431115915
681,0.00687733169307255
682,0.00674912189446986
683,0.00662338244094965
684,0.0063943355140673
685,0.00627032883681624
686,0.00613772076712765
687,0.00608492166457502
688,0.00603697205959311
689,0.00618766775966251
690,0.00633018425283004
691,0.00657114082603374
692,0.00667167539703809
693,0.00683947189894353
694,0.00704641761015007
695,0.00717911880818681
696,0.00740560980211681
697,0.00755472119580096
698,0.00761940929750379
699,0.00775946465305291
700,0.00804402378221596
701,0.00811186658712152
702,0.0084103695714511
703,0.00854437357000736
704,0.00889085082164767
705,0.00896803384286935
706,0.00926048005745654
707,0.00949492294145124
708,0.00961769600007441
709,0.00988697265511479
710,0.00989071754889316
711,0.0100972453231777
712,0.0102554638251933
713,0.0100546270372831
714,0.00997286054400165
715,0.00963653415585736
716,0.00942751689680368
717,0.0092529445701601
718,0.00928525177695326
719,0.0094371788193318
720,0.00967401344548706
721,0.00969226209188906
722,0.0100966155696256
723,0.0101645810484846
724,0.0102323626729699
725,0.0103702261376426
726,0.0104133286457825
727,0.0106902463176927
728,0.0108435292481116
729,0.0111066520235873
730,0.0114561316629327
731,0.0118489158822629
732,0.0121667214503704
733,0.0125599433337809
734,0.0127020760352962
735,0.0129242742405528
736,0.0131260920783776
737,0.0132278657585022
738,0.0133296394386268
739,0.0134314131187514
740,0.0136762367570781
741,0.0137841726012311
742,0.0138604434880287
743,0.0139367143748263
744,0.014012985261624
745,0.0140117150812983
746,0.0139880303362389
747,0.014072312683995
748,0.0138741705606198
749,0.0139908807563072
750,0.0139696218962322
751,0.0138950107303758
752,0.0140408975900799
753,0.0138285477951919
754,0.0136830839121569
755,0.0128078435802048
756,0.0119326032482527
757,0.0110573629163006
758,0.00968257837426094
759,0.00846352568043391
760,0.00762030511203079
761,0.00737155910998224
762,0.00764124651583302
763,0.00819157595381303
764,0.00897428423312939
765,0.00971511810774531
766,0.0106285616029346
767,0.0115194816199682
768,0.011945322027324
769,0.0123008722973768
770,0.0125438481730755
771,0.0126130187832442
772,0.0127224510968731
773,0.0128285680050065
774,0.0127604597546567
775,0.0126896097612708
776,0.0127133262115812
777,0.0126187021291911
778,0.0126914690352403
779,0.0124775318036044
780,0.0126310668563914
