"wavelength","measurement"
380,0.0276463691902604
381,0.0269183311062544
382,0.0259759417549032
383,0.0254071129816309
384,0.0252671554637281
385,0.0267475806748118
386,0.027718729092776
387,0.0286691859438483
388,0.0297181870612615
389,0.0304651803507502
390,0.0298074796455009
391,0.0297393205025626
392,0.0294860841240673
393,0.0296588088618482
394,0.0299337689791525
395,0.0313038076572
396,0.0343133978941723
397,0.0375927058420189
398,0.0408720137898655
399,0.0441513217377121
400,0.0464085427933187
401,0.0479442877521526
402,0.0493269903880118
403,0.0490506381750729
404,0.0490608225379238
405,0.0490356350843088
406,0.0491016220488926
407,0.0491202135576235
408,0.0491052330059644
409,0.0499554117308346
410,0.0513673593153797
411,0.0514459360130406
412,0.0526130295651773
413,0.0531119535494937
414,0.0530832641516008
415,0.0533385023544866
416,0.0527874454135337
417,0.0523734446623328
418,0.0530239021299422
419,0.0518103564951191
420,0.0527240627153056
421,0.0527115818567616
422,0.0529191041836362
423,0.0527732435544656
424,0.0532697026356267
425,0.0520712599396278
426,0.0514714890425797
427,0.0499843574342799
428,0.0486836759174516
429,0.0481950759974834
430,0.0483097085726651
431,0.0503760432835264
432,0.0520699508039626
433,0.0537647572212099
434,0.0559033109392025
435,0.0568172838468798
436,0.0578988044464133
437,0.0586342520168324
438,0.0593696995872515
439,0.0601051471576706
440,0.0601938671978951
441,0.0612945462291112
442,0.0626270822558507
443,0.0632287707823316
444,0.0641971016382935
445,0.0651654324942553
446,0.0661337633502172
447,0.0668054926880602
448,0.0673941411911816
449,0.0697273755059866
450,0.0693232474222603
451,0.0690288435578691
452,0.068842079688996
453,0.0686553158201229
454,0.0684685519512498
455,0.0684581518508817
456,0.0684222814448508
457,0.0692712688759895
458,0.0695261492472536
459,0.0705796914572927
460,0.0707006787414038
461,0.070123629666257
462,0.0717796310945174
463,0.069816985815828
464,0.0690010647744327
465,0.0683764224950168
466,0.0676265113179848
467,0.0675138899825573
468,0.0668547928939896
469,0.0664320063338991
470,0.0678139721715419
471,0.067868881647456
472,0.0683266239500873
473,0.0689495014131692
474,0.0691454469356058
475,0.0702935472313245
476,0.0686621574538686
477,0.0687039242579634
478,0.0687456910620583
479,0.0687874578661532
480,0.0685685625081995
481,0.0667420123160033
482,0.0656832610621912
483,0.0653325472454213
484,0.0637671386490088
485,0.0624663222741533
486,0.0629190780275313
487,0.0637545017425551
488,0.0642782889947411
489,0.0657109853185431
490,0.0666485120861389
491,0.0671707477071513
492,0.0689162608663202
493,0.0678629330864414
494,0.0692328444486169
495,0.0681059963147732
496,0.0685743485607373
497,0.0672667070788436
498,0.0677864736296223
499,0.0664356087016802
500,0.0669574492670683
501,0.0663911347727794
502,0.0679199715300422
503,0.0682356298307452
504,0.0676416875769156
505,0.0700006662513541
506,0.0696649838276385
507,0.0698890109141303
508,0.0705209197290409
509,0.0705936464454231
510,0.069390937710431
511,0.070503892609806
512,0.0700809370734443
513,0.0681845242946401
514,0.0678523460490479
515,0.0669313148856971
516,0.0665482063126415
517,0.0666669612598074
518,0.06674898514969
519,0.068162958578783
520,0.0695812480706142
521,0.070492504636693
522,0.0714037612027718
523,0.0723150177688506
524,0.0722719616960071
525,0.0723461690924118
526,0.0729539721651354
527,0.0726821978374501
528,0.0732286745780582
529,0.074474870344677
530,0.0745103016197094
531,0.0746022075910179
532,0.0747473162299524
533,0.0755531813166938
534,0.0759583865050668
535,0.0754600790564421
536,0.0760831265132479
537,0.0757913975623563
538,0.075355688815739
539,0.0750208598872786
540,0.0755735981932575
541,0.0750102546451427
542,0.0747636828916054
543,0.0754842244997593
544,0.0759625617769051
545,0.0755511880323484
546,0.0763595659859304
547,0.0763671369288417
548,0.076374707871753
549,0.0763822788146643
550,0.0762901310760449
551,0.0768978765410291
552,0.077711091118045
553,0.0771182910250407
554,0.0768807836168297
555,0.0778188545746438
556,0.0767844826749065
557,0.0768509163956664
558,0.0762868561903624
559,0.0757200780373446
560,0.0770366565779411
561,0.0758423821150227
562,0.0771178659173992
563,0.0760005405705165
564,0.0765641697976502
565,0.0756816242769936
566,0.0752346666945347
567,0.0746020315139614
568,0.0752525145254688
569,0.0744433340547755
570,0.0744982047117791
571,0.0745980804821834
572,0.0747044993467745
573,0.0746547566025838
574,0.0753761738737025
575,0.0741687124990507
576,0.0744547075399532
577,0.0747407025808557
578,0.0750266976217582
579,0.0753126926626607
580,0.0755986877035632
581,0.0765047692006502
582,0.0760615172640203
583,0.0765642093175608
584,0.0753032002416039
585,0.0750912910412331
586,0.0729220075196634
587,0.0722173912428085
588,0.0716084100871402
589,0.0709994289314718
590,0.0703904477758034
591,0.0707231047526571
592,0.0715702041116041
593,0.0714886593291014
594,0.0726206015630788
595,0.0724783382205655
596,0.0729333028120153
597,0.0734041514494957
598,0.0732599310923245
599,0.07349042329282
600,0.0738622212442456
601,0.0744276994629135
602,0.0746035467569237
603,0.0743525618999839
604,0.0752121026588579
605,0.0747802822492871
606,0.0747279258244416
607,0.074365694896061
608,0.0735092710585961
609,0.0735247368969039
610,0.07303872739275
611,0.0727193670703079
612,0.0721381869952934
613,0.0718533624244476
614,0.0710005253759286
615,0.0718630364986722
616,0.0712959018001647
617,0.0716622439639018
618,0.0716192231907221
619,0.0720332510918971
620,0.071798751008727
621,0.0721629134544592
622,0.0707796468501506
623,0.0708603423994188
624,0.0704215832494247
625,0.0699828240994307
626,0.0695440649494367
627,0.069593837360142
628,0.0694385324714542
629,0.0693929343149803
630,0.0698465938675565
631,0.0689713086498116
632,0.0693701613164664
633,0.0698943964595823
634,0.0701894568651223
635,0.0702673681450288
636,0.0696571446084091
637,0.070232090701626
638,0.0700223170454138
639,0.070265181817552
640,0.0700087545326661
641,0.0699235230023469
642,0.0695693389614442
643,0.0691791047709933
644,0.0687888705805424
645,0.0683986363900915
646,0.0684813893174588
647,0.0685460271093219
648,0.0674356254348961
649,0.0686511562621767
650,0.0679940557138968
651,0.0683322478298526
652,0.0674043334238549
653,0.0666284346805908
654,0.0653297247225686
655,0.0659804217289403
656,0.0650509385075287
657,0.0661929246693804
658,0.0668859318218057
659,0.0685457922324206
660,0.0689164557807109
661,0.0691745410094737
662,0.0694154745537698
663,0.0691074127481732
664,0.0685925030492819
665,0.0689105811992043
666,0.0691156606005455
667,0.0690664776723425
668,0.069296782561134
669,0.0679656500298096
670,0.0685839376815934
671,0.0682020991562304
672,0.0679511788786367
673,0.0684701079658153
674,0.0684967972011159
675,0.0684712266758014
676,0.068515563980413
677,0.0690013331248996
678,0.0684658487908889
679,0.0682781517076315
680,0.0697753162195086
681,0.0689923643639003
682,0.0672698393680358
683,0.0661445736133075
684,0.0641517733141561
685,0.0626030838878522
686,0.0611820444155197
687,0.0606039653778205
688,0.0604486135034741
689,0.0609125148512872
690,0.0622220432112846
691,0.064021198903014
692,0.0649710112904709
693,0.0656322281641526
694,0.0671390336431585
695,0.0675166609607309
696,0.0686338706529492
697,0.0697111527295577
698,0.0693156462308256
699,0.0699365741108286
700,0.0718754069316785
701,0.0716045938929828
702,0.073601067605962
703,0.0741736690322733
704,0.0761950247224049
705,0.0762827303354272
706,0.0780224895058271
707,0.079284254231891
708,0.0799594836876188
709,0.081052767833793
710,0.0808773346370501
711,0.0812156069375222
712,0.0821342520571969
713,0.0794718415531563
714,0.0783948114178803
715,0.0754163184672586
716,0.0728272391265874
717,0.0714858080664468
718,0.0713886341630332
719,0.0725216975009437
720,0.0740317157935304
721,0.0736044567769804
722,0.0759326411754893
723,0.0762470804758814
724,0.0763526386089198
725,0.0773402902592334
726,0.0773506928842246
727,0.0792252276933917
728,0.0806497429565236
729,0.0827967131157317
730,0.0848065959880226
731,0.0876485547705046
732,0.0902308782354276
733,0.0932196273717988
734,0.0944861900489544
735,0.0957078242366514
736,0.09753148805008
737,0.0983503573639273
738,0.0991692266777746
739,0.0999880959916218
740,0.102085328118215
741,0.102719739875066
742,0.103576259432329
743,0.104432778989591
744,0.105289298546854
745,0.105708840350607
746,0.105846428713599
747,0.106946359214627
748,0.105600960071859
749,0.106680579376535
750,0.106759298929132
751,0.106545305016566
752,0.108249704011766
753,0.107436581433532
754,0.106106747610763
755,0.0991093006137391
756,0.0921118536167156
757,0.0851144066196922
758,0.0741549099289072
759,0.0651178286634095
760,0.0596185541100496
761,0.0593164848105764
762,0.0616290845284612
763,0.0668393161355091
764,0.0734865125128301
765,0.0794227784520244
766,0.0875080367471841
767,0.0946735753303004
768,0.0985537085295023
769,0.101628160428866
770,0.104175931672597
771,0.105066288511039
772,0.106346935372565
773,0.1080571030153
774,0.10743828812709
775,0.107782422212431
776,0.10803642968894
777,0.107033425300389
778,0.108641641910187
779,0.107490720283782
780,0.109076839378875
