"wavelength","measurement"
380,0.00964245281383965
381,0.00920286684284977
382,0.00928334546860016
383,0.00908906829535723
384,0.00920248102660677
385,0.00962377836855543
386,0.00988923802519468
387,0.010414207513157
388,0.010723396953301
389,0.0108901729296069
390,0.0108389255652613
391,0.0107435662276732
392,0.0107545589097099
393,0.0109236397599717
394,0.0113462861019799
395,0.0119691442117433
396,0.0132673543971437
397,0.0145785766979693
398,0.015889798998795
399,0.0172010212996207
400,0.0178177017698398
401,0.0184966622207324
402,0.0191301654537864
403,0.0191830867478365
404,0.0192126642075501
405,0.0191389116406896
406,0.0193628286765031
407,0.0195804006657351
408,0.0196711747117447
409,0.0199886625838791
410,0.0208561731292147
411,0.0209001433576419
412,0.0211014490384494
413,0.0215884486882275
414,0.0214120966559644
415,0.0214726387557097
416,0.021201436528601
417,0.0210459234174931
418,0.0212293012730773
419,0.0207594306717617
420,0.0212696183574948
421,0.0212112081203049
422,0.0212320432474961
423,0.0212741572246919
424,0.0212198590204283
425,0.0208362867202472
426,0.020402954043835
427,0.019874230081775
428,0.0193910503916827
429,0.0195297250950717
430,0.0194462389236547
431,0.0203539212066656
432,0.020962621684068
433,0.0216973302347163
434,0.0223939095421425
435,0.0227337797817441
436,0.0230155600961696
437,0.0233056736753988
438,0.0235957872546279
439,0.023885900833857
440,0.0240510828252326
441,0.0243399516488908
442,0.024829997889932
443,0.0251047355828579
444,0.0254751752154055
445,0.025845614847953
446,0.0262160544805006
447,0.0266283689601476
448,0.0265216923744137
449,0.0273508390990923
450,0.0271373182051084
451,0.0269102689848426
452,0.0268238668451337
453,0.0267374647054248
454,0.0266510625657158
455,0.026524195655362
456,0.0267178258962281
457,0.0270253143630808
458,0.0270674780276964
459,0.0274733466512181
460,0.0274541177616745
461,0.0270458611077253
462,0.0276753606810577
463,0.0267713642228078
464,0.0265498060432895
465,0.0262970899743087
466,0.0259100799533437
467,0.0259260866031002
468,0.0257816469449462
469,0.0256467784989019
470,0.0261231303019712
471,0.0261074373897512
472,0.0262480388206124
473,0.0263825156308007
474,0.0263963934156818
475,0.0266482669772262
476,0.0261126721355271
477,0.0260977834178208
478,0.0260828947001145
479,0.0260680059824082
480,0.025868453564554
481,0.0252010802850617
482,0.0247019771241188
483,0.0246414751854597
484,0.0241091060881491
485,0.0237892028980472
486,0.0240808900884978
487,0.0243295566594867
488,0.0246147552587139
489,0.0251900842913486
490,0.0253125771996907
491,0.025461169634459
492,0.0259803123778186
493,0.0256198825138197
494,0.0258921939638287
495,0.0254777704346424
496,0.0255054622993339
497,0.025037063880685
498,0.0252549043772864
499,0.0245382893044536
500,0.024793949290995
501,0.0246511414622163
502,0.0250691039097337
503,0.025342281931227
504,0.0250170936721668
505,0.0256818740838004
506,0.0254705171800754
507,0.0255243562802486
508,0.0255921656782658
509,0.0255405886029772
510,0.0249841933222471
511,0.0253273787357525
512,0.0249500795178995
513,0.0241053926322544
514,0.023916641520171
515,0.0236025866259472
516,0.0234920717557317
517,0.0234825516628441
518,0.0235074093180892
519,0.0238524242997723
520,0.0243222165508705
521,0.0244923539991646
522,0.0246624914474588
523,0.0248326288957529
524,0.0246039883368427
525,0.0246001383465598
526,0.0245795003165364
527,0.0245287610798049
528,0.0245662434609528
529,0.0248006025460403
530,0.0247405485847865
531,0.0247819170844666
532,0.0246715174133665
533,0.024917246257006
534,0.0249467137024688
535,0.0247541440730825
536,0.024814554547968
537,0.0247374943401408
538,0.0245016850828098
539,0.0244063001505106
540,0.0245673300635086
541,0.0243306077744155
542,0.0242297969591329
543,0.0243315252816223
544,0.024391032132691
545,0.0241657240654227
546,0.0243490606913111
547,0.0242969134041402
548,0.0242447661169694
549,0.0241926188297986
550,0.0240829178001659
551,0.024250172498403
552,0.0245003724907994
553,0.0241764248311978
554,0.0240863596972588
555,0.0242855122721604
556,0.0239449939209539
557,0.0238805258417589
558,0.0237599212482693
559,0.0235580181040145
560,0.0237985612773835
561,0.0233067332014911
562,0.023729910562635
563,0.0233002133655507
564,0.0233762491464102
565,0.0229918518597521
566,0.0228782296129599
567,0.0226341911809979
568,0.0228115209864144
569,0.0226282293073208
570,0.0225707444247523
571,0.0225397208615379
572,0.0225418810688404
573,0.0224817484996797
574,0.0226006241944304
575,0.0223178724873796
576,0.0224344925013918
577,0.0225511125154039
578,0.0226677325294161
579,0.0227843525434282
580,0.0229009725574403
581,0.02324956752787
582,0.0231396146381636
583,0.0233206233882252
584,0.0229245280674166
585,0.0229276803002907
586,0.0224164678881778
587,0.0223011766637491
588,0.0221840729634638
589,0.0220669692631785
590,0.0219498655628932
591,0.0221310134261138
592,0.0222491423368694
593,0.0222505067309811
594,0.0224625755003181
595,0.0223629564690186
596,0.0225066694139763
597,0.0225332114116426
598,0.0225157566207337
599,0.0224664642806121
600,0.022602551584994
601,0.0227248671523995
602,0.0228508443591657
603,0.0225998324610398
604,0.0228661107598299
605,0.0226948922545071
606,0.0226323105897457
607,0.0225965780707224
608,0.0223032588391503
609,0.0222796461132644
610,0.0221693545746425
611,0.0220193876395241
612,0.0218874404673717
613,0.0218542111371055
614,0.0215966234646451
615,0.0220040875057307
616,0.0217386279648763
617,0.0219522747110095
618,0.021871116909938
619,0.0219435420202389
620,0.0218235761698802
621,0.0220223470013467
622,0.0215423832841863
623,0.021474494874826
624,0.0213278251997048
625,0.0211811555245837
626,0.0210344858494626
627,0.020923688901483
628,0.0208822050734793
629,0.0208518788773394
630,0.0211405099832579
631,0.020996101544206
632,0.0211402842138739
633,0.0213004481005529
634,0.0214373219531218
635,0.0215324814922047
636,0.021334648919053
637,0.0216197185531768
638,0.0214791954831806
639,0.0216830600214768
640,0.0215476674580678
641,0.0215789334422162
642,0.0214975930136237
643,0.0214463947942242
644,0.0213951965748247
645,0.0213439983554253
646,0.0216165253682188
647,0.0216619100753474
648,0.0213464705313745
649,0.0216978577975052
650,0.0214800935894804
651,0.0215074655254073
652,0.0212678688213054
653,0.0209561332235235
654,0.0205478719021436
655,0.020944876840851
656,0.0209044155715837
657,0.0210953829579376
658,0.021249915771185
659,0.0217181865536239
660,0.0218801047263119
661,0.0218843542678888
662,0.0219828657507027
663,0.0218946180412788
664,0.021781448424556
665,0.0218659529927248
666,0.0219947123219329
667,0.0220264000943262
668,0.0221242990615311
669,0.0217330023028749
670,0.0219274193898865
671,0.0218823671580982
672,0.0219644870027458
673,0.0220167770457323
674,0.0221218934971597
675,0.0221154001477696
676,0.0221944153721377
677,0.0223808280769847
678,0.0221329255499506
679,0.0221969949235244
680,0.0227242879442736
681,0.0222562032535018
682,0.0214439226332736
683,0.0210188430026408
684,0.0201626831415881
685,0.0194725143964589
686,0.019005432904582
687,0.0189783153726232
688,0.0190564829033767
689,0.0194804972553156
690,0.0201899455846643
691,0.0209798830978684
692,0.0213081466075112
693,0.0218427267686783
694,0.0224121138496079
695,0.02248318286978
696,0.0229216401024921
697,0.0231012061307345
698,0.0230669928886733
699,0.0232355476042174
700,0.0238207955819837
701,0.0237302181517492
702,0.0242009376551457
703,0.0243150221108855
704,0.0248054768832141
705,0.0248319067283547
706,0.0252172492279878
707,0.0254947076139766
708,0.0256766264297285
709,0.0259915387168614
710,0.0258031052945054
711,0.0259300505164344
712,0.0259098604147762
713,0.0253076186054182
714,0.0251565899970261
715,0.0244580921764847
716,0.0240900714588989
717,0.0238273063794304
718,0.0238976244083985
719,0.0243053363491363
720,0.0245372449985118
721,0.0242662860826459
722,0.0250076671159591
723,0.0250011367522062
724,0.0251830504322127
725,0.0254424645149027
726,0.0253715783544902
727,0.0258526890403562
728,0.0261699348132534
729,0.0266731221816792
730,0.0270491082618283
731,0.0275614187460648
732,0.0280998478447711
733,0.0284427133369517
734,0.0287754672930367
735,0.0289885956073647
736,0.0292015383159059
737,0.0293520312110162
738,0.0295025241061265
739,0.0296530170012368
740,0.0299265647901171
741,0.0300790252583047
742,0.0302025736714075
743,0.0303261220845103
744,0.0304496704976131
745,0.0305227411933023
746,0.0305169117836102
747,0.0307311811173922
748,0.030387945435285
749,0.0307384621623981
750,0.0307314299066597
751,0.0306358129720802
752,0.0310967751121408
753,0.0306591097557827
754,0.029374582259109
755,0.0267582717501701
756,0.0241419612412311
757,0.0215256507322922
758,0.0181225085805963
759,0.015573586427543
760,0.0146791610078849
761,0.0146000041044824
762,0.0156739375615726
763,0.0175862053084922
764,0.0200846334172835
765,0.0222177016746383
766,0.0246826520045879
767,0.026811599266109
768,0.0281210910396297
769,0.0291978706782423
770,0.0300609922460442
771,0.0304596376931472
772,0.0308288901670109
773,0.0312849219012776
774,0.031124658794413
775,0.0312160162104439
776,0.0314793595434069
777,0.0311396246448412
778,0.0316183799678365
779,0.0310683745764114
780,0.0316550964118654
