"wavelength","measurement"
380,0.00116018213051816
381,0.00114590640581615
382,0.00117943515842097
383,0.00115428608014921
384,0.00121449448586856
385,0.0012793651214035
386,0.00136634476055635
387,0.00146194902690679
388,0.00157896635046529
389,0.00163509988402336
390,0.00166815944929236
391,0.00166732234902523
392,0.00167425497229645
393,0.00173754179411467
394,0.00180630348197114
395,0.0019136614380804
396,0.00209551057776647
397,0.00235322392569675
398,0.00261093727362704
399,0.00286865062155733
400,0.00308359716405542
401,0.00327071808217444
402,0.00340446975248017
403,0.00348364047696251
404,0.00352306655167491
405,0.00355217952290006
406,0.00363108284532174
407,0.00367221999233046
408,0.00373701750029634
409,0.00385271115142614
410,0.00404840135525346
411,0.00407061252384537
412,0.00419009805932754
413,0.00434521172567301
414,0.0043306518063522
415,0.00440200084537655
416,0.00437648856070765
417,0.00438661161432196
418,0.00443349242537708
419,0.00437584991859054
420,0.00452316657098667
421,0.00448165095027194
422,0.00451384617908338
423,0.00455689725571005
424,0.00462291929732567
425,0.0045746482124389
426,0.0045431071858321
427,0.00444019934546961
428,0.00425247160143785
429,0.00432196928130092
430,0.00430364947056646
431,0.00448118659807711
432,0.0046831534725324
433,0.00483542930397739
434,0.00505369821741493
435,0.00518875441099868
436,0.00530231284329077
437,0.00538354122521681
438,0.00546476960714286
439,0.0055459979890689
440,0.00560450048072557
441,0.00573759672091349
442,0.00594188139680545
443,0.00599726327234598
444,0.0061219033314396
445,0.00624654339053322
446,0.00637118344962684
447,0.00651341177173933
448,0.00659486916622753
449,0.00683640689359854
450,0.00681774132857037
451,0.00677492269202186
452,0.00677419952004536
453,0.00677347634806886
454,0.00677275317609236
455,0.0067597431531577
456,0.00674937998618049
457,0.00690152697835635
458,0.00690869929869698
459,0.00705909738800115
460,0.00708199146347693
461,0.00700723596669405
462,0.00726138842556127
463,0.00701359432426728
464,0.00697485479688519
465,0.00693081413570855
466,0.00686066889732454
467,0.00686543739428015
468,0.00682177505951486
469,0.00673495218293213
470,0.0068965558223378
471,0.00689787565464593
472,0.00694463796116413
473,0.00704540807667444
474,0.00709179875780479
475,0.00718814340627409
476,0.0070311075408949
477,0.00704064703019907
478,0.00705018651950324
479,0.0070597260088074
480,0.00704959978550199
481,0.00688429055772031
482,0.006783387670109
483,0.00679328409531843
484,0.00663357429511091
485,0.00650277230108543
486,0.00657863611438901
487,0.00661758209760952
488,0.00671297747806217
489,0.00689684583688092
490,0.00699234648538367
491,0.00704359078122846
492,0.00721754781083117
493,0.00713832106823876
494,0.00727468973755833
495,0.00717178766018947
496,0.00723708953344733
497,0.00710836486462153
498,0.00717307862404793
499,0.00700357388848365
500,0.00706332316063772
501,0.00701766639303437
502,0.0071454136296018
503,0.00722408193267024
504,0.00713350562497336
505,0.00739696982335511
506,0.0073444917554692
507,0.00736383354864725
508,0.00741819718815877
509,0.00742029655334996
510,0.00729682408154129
511,0.0074086684454405
512,0.00732864362024507
513,0.00713778433685253
514,0.00708347601682332
515,0.00697533233628525
516,0.00692808073544286
517,0.00692908028374945
518,0.00689803761718906
519,0.00700778619997435
520,0.00714532581685444
521,0.00721977994206134
522,0.00729423406726824
523,0.00736868819247514
524,0.00732213962938231
525,0.00733862642479452
526,0.00733239527041381
527,0.00726796301391669
528,0.0073226957871702
529,0.00740273526523235
530,0.00743274700992208
531,0.00741900456722194
532,0.00738808313366891
533,0.00745784366913089
534,0.00749219498434379
535,0.00740203273291553
536,0.0074862540517863
537,0.00745335240256339
538,0.00739600604963395
539,0.0073511761310383
540,0.00738417845665439
541,0.00735088057603117
542,0.00731056280163701
543,0.00734746357106381
544,0.00739579648294986
545,0.00730646898090816
546,0.00736529540840594
547,0.00734680523964826
548,0.00732831507089057
549,0.00730982490213289
550,0.00726021242930401
551,0.00730483969800699
552,0.00734196952549766
553,0.00727000708577875
554,0.00724506026771043
555,0.00729956025189693
556,0.00722082704629366
557,0.00720459262669604
558,0.00714712665445277
559,0.00707305063317263
560,0.00717106629021068
561,0.00703271593581047
562,0.00714073300908302
563,0.00704325236351869
564,0.007063294002709
565,0.00695434124071163
566,0.00694288740659648
567,0.00684584478700523
568,0.00691198422428114
569,0.00681159603843618
570,0.00678344268766901
571,0.00679417435171401
572,0.00677813341907634
573,0.00676578228467231
574,0.00679314575384872
575,0.00672875705571056
576,0.00675260134204477
577,0.00677644562837899
578,0.00680028991471321
579,0.00682413420104743
580,0.00684797848738164
581,0.00692909544853851
582,0.00692099000769287
583,0.00695336934255159
584,0.00686204791987663
585,0.00689541394336645
586,0.00672089985535344
587,0.00665074511108016
588,0.00659568590987172
589,0.00654062670866327
590,0.00648556750745483
591,0.006530618323103
592,0.0065802912488625
593,0.00655688212558878
594,0.00662577319206703
595,0.00657878764087227
596,0.00658470968892688
597,0.00658039557748135
598,0.00656418913402514
599,0.00652271510227803
600,0.00653408759869325
601,0.00655830095208077
602,0.00657753383540132
603,0.00652615499392602
604,0.00657179150224484
605,0.00653763538916233
606,0.00652189731930162
607,0.00651178027173462
608,0.0064266197868188
609,0.00641241648524067
610,0.00638127929001849
611,0.00631446985436462
612,0.00626165639064258
613,0.00622197436203607
614,0.00612711108868527
615,0.00616726433833609
616,0.00611713509857761
617,0.00616595708601916
618,0.00615790163316151
619,0.00614597007470854
620,0.00610773544310145
621,0.00617470634724931
622,0.00602437105541402
623,0.00601350760392404
624,0.00594285462322004
625,0.00587220164251605
626,0.00580154866181205
627,0.00577078171635054
628,0.00573409112879832
629,0.00573533942409432
630,0.00576135834059125
631,0.00568028612750154
632,0.00572794918673407
633,0.0057466412801087
634,0.0057501325956048
635,0.00577960220279867
636,0.00575872777132247
637,0.00578563810363562
638,0.00573907523647345
639,0.00576892950084887
640,0.00572745528930629
641,0.00571502609226503
642,0.00568487199478239
643,0.00565635106114752
644,0.00562783012751266
645,0.00559930919387779
646,0.00564935164050754
647,0.00562481958113712
648,0.0055180115825287
649,0.00562261122555638
650,0.00554515559090703
651,0.00555557278909724
652,0.00550222804860168
653,0.00538060337556866
654,0.00525436022943253
655,0.00529461270797417
656,0.00522434903707522
657,0.00524926839954014
658,0.00529066193978225
659,0.00541354567037662
660,0.00544357382024805
661,0.00542994020882439
662,0.00544285129998272
663,0.00540198432345221
664,0.00534612742624237
665,0.00536392632539525
666,0.00535546797915692
667,0.00535033116000166
668,0.00536389371049935
669,0.00524185075963798
670,0.00526403871920345
671,0.00521108068665519
672,0.00521239224784298
673,0.00521530552119719
674,0.00521475103621249
675,0.00518671594597888
676,0.00518342698193674
677,0.00518987807814371
678,0.00513914923917063
679,0.00509962113628588
680,0.00520939667782259
681,0.00510838134097616
682,0.00495925505374028
683,0.00483614895996948
684,0.00462007783251901
685,0.0044211407125874
686,0.00426647969813388
687,0.00414787850353137
688,0.00409495415440904
689,0.0041642312774524
690,0.00425644525771816
691,0.00441277323197048
692,0.00450211552664394
693,0.00455542971329862
694,0.00466517768419374
695,0.00466454330724475
696,0.00473024244822309
697,0.00471249141579125
698,0.00465768856391184
699,0.00465549041463622
700,0.00473135582835417
701,0.00468031782470173
702,0.00471846823359343
703,0.00471618178325902
704,0.00475844802046494
705,0.00472890690164313
706,0.00478459022511153
707,0.00482561881545354
708,0.00477075970671068
709,0.00484380328798777
710,0.00475616565418774
711,0.00476741030423944
712,0.00479119949688999
713,0.00464322220145144
714,0.00461030944921044
715,0.00444709846230679
716,0.00434369226783903
717,0.00421290830491529
718,0.00419320965358546
719,0.00423526911882759
720,0.00421258823185567
721,0.0041285881395042
722,0.00426413991183738
723,0.00423460852180276
724,0.00423795772706239
725,0.0042322157683849
726,0.0042017510530151
727,0.00422446251080111
728,0.00426714383537406
729,0.00427108649033771
730,0.00433731570066073
731,0.00441173985391779
732,0.0044316179548024
733,0.00452203397132789
734,0.00454776709556077
735,0.00454115739009262
736,0.00455989610174071
737,0.00454809756281103
738,0.00453629902388135
739,0.00452450048495168
740,0.00455625388628941
741,0.00453545199743941
742,0.00453810907682869
743,0.00454076615621797
744,0.00454342323560726
745,0.00453295635982089
746,0.00450851210246427
747,0.00450154062148117
748,0.00441860105353858
749,0.00443834483343561
750,0.00440026006677745
751,0.00437044361110907
752,0.00440035145364864
753,0.00427094478467644
754,0.00427309165536933
755,0.00395115303829032
756,0.0036292144212113
757,0.00330727580413229
758,0.00279216293159781
759,0.00233122276650272
760,0.00201077284823662
761,0.00189606943930795
762,0.0019966349237356
763,0.00215742461964223
764,0.00247094698948291
765,0.00272923683712389
766,0.00308077609093091
767,0.00338448332270176
768,0.0035510571279119
769,0.00374682308073644
770,0.00381947123171977
771,0.00387542917935039
772,0.00388675698482578
773,0.00394653133848461
774,0.00392047449526762
775,0.00388922288710566
776,0.00394514531134035
777,0.00386510337306909
778,0.00388403291790984
779,0.00383991793045133
780,0.0038667983471324
