"wavelength","measurement"
380,0.00756939596350309
381,0.00730578521171649
382,0.00696710006270963
383,0.0070498640607634
384,0.00714250164328236
385,0.00734190234851543
386,0.00771973676035
387,0.00801036316852226
388,0.00820379730395754
389,0.00841281436774677
390,0.00844339741760358
391,0.00839154705358877
392,0.00833587320993245
393,0.00844772429281172
394,0.00873427118530383
395,0.00934898568662885
396,0.0103323300033515
397,0.0113598497366105
398,0.0123873694698695
399,0.0134148892031285
400,0.0139790367120538
401,0.0145419379427584
402,0.0148380291781017
403,0.01494279639781
404,0.0150308401693919
405,0.0150898797466747
406,0.0152630769068575
407,0.0153612370653172
408,0.0153957048257056
409,0.0156992260280636
410,0.0164125027504207
411,0.0163956074945673
412,0.0168142171584854
413,0.0169039880500555
414,0.0169060370592618
415,0.0170348837972465
416,0.0168913972371937
417,0.0167321834683034
418,0.0168354708178758
419,0.0165131251128297
420,0.0170083651295487
421,0.0167990134413862
422,0.0169718063522057
423,0.0169916571812051
424,0.0170554132069849
425,0.0166494327616275
426,0.0162249883802478
427,0.0158302877475347
428,0.0155031855177159
429,0.0154764995777298
430,0.0155344630075633
431,0.0162539236416581
432,0.0167984386564732
433,0.0172924919133093
434,0.0179188648198889
435,0.0182488244009893
436,0.0182420752819553
437,0.018545145124456
438,0.0188482149669566
439,0.0191512848094573
440,0.0192258129544636
441,0.0194592851210804
442,0.0198154465628406
443,0.0201033023179978
444,0.0203933282627512
445,0.0206833542075045
446,0.0209733801522579
447,0.021317709600065
448,0.0212748863966439
449,0.0218642447755344
450,0.0217511596662047
451,0.0215332327316648
452,0.0214746530450148
453,0.0214160733583648
454,0.0213574936717148
455,0.021266614258967
456,0.0213804379934985
457,0.0216580400597485
458,0.0217845085001591
459,0.0220306141632059
460,0.022053959048517
461,0.021647629578628
462,0.022217638999685
463,0.021606294593528
464,0.0213390257309694
465,0.0211677442061486
466,0.020905547087056
467,0.0209042367199118
468,0.0207558179966725
469,0.0205763039563363
470,0.0210773072009606
471,0.0210035927579912
472,0.0211553300759393
473,0.0213180808409539
474,0.0212513909017018
475,0.0215495459748358
476,0.0210559517552849
477,0.0210498198115978
478,0.0210436878679107
479,0.0210375559242236
480,0.0209599833842901
481,0.0203449969553389
482,0.0200028265413529
483,0.0199758537595688
484,0.0195148758302436
485,0.0191961290334197
486,0.0195311862881521
487,0.0197457724295257
488,0.0200483204015382
489,0.0204575842096825
490,0.0205475240764184
491,0.0206469321428777
492,0.0210862495978689
493,0.0207788362791772
494,0.0210494016084201
495,0.0206863164096522
496,0.0207635082238075
497,0.0202951418718182
498,0.0204755607472586
499,0.020062893958745
500,0.0201915767055723
501,0.0200454149597853
502,0.0204689671256673
503,0.0207558465559706
504,0.0203469707163844
505,0.0209890649633496
506,0.0207640803070898
507,0.0208328405442653
508,0.020938558207821
509,0.0208889803555096
510,0.0204214640051299
511,0.0206807367504914
512,0.0203836454635255
513,0.0198069342508351
514,0.019659939836721
515,0.019377842896655
516,0.0193547149362609
517,0.0192994449535576
518,0.0193222350968265
519,0.019680643054877
520,0.0199870605738618
521,0.0201494629449093
522,0.0203118653159567
523,0.0204742676870042
524,0.0203296553553615
525,0.0203427267871396
526,0.0203059966483492
527,0.0202523793461949
528,0.0203817781128585
529,0.0205219465809638
530,0.0204926078977121
531,0.0205806145151298
532,0.0204942695016757
533,0.0205946925871701
534,0.0207616631703989
535,0.0205240439712486
536,0.020636244275077
537,0.0205398735245782
538,0.0204331460071467
539,0.0202833646206244
540,0.0204061468546582
541,0.0201876239981513
542,0.0201882619543817
543,0.0202730820016073
544,0.0203032253367584
545,0.0201200017139193
546,0.0202944773393441
547,0.0202574359084312
548,0.0202203944775184
549,0.0201833530466055
550,0.020025541673035
551,0.0202826957409466
552,0.0203516113276825
553,0.0201883827052852
554,0.0200791766290503
555,0.0202491604034162
556,0.0200440283906301
557,0.0199388417866822
558,0.0198733861438726
559,0.0197519459252294
560,0.0199009126274183
561,0.0195327158684626
562,0.0198210248162652
563,0.0195145596050695
564,0.0195423973689641
565,0.0192524970930953
566,0.0191657377115264
567,0.0189651500692899
568,0.0191304351923806
569,0.0188834789374108
570,0.0188661457684287
571,0.018868096738621
572,0.0189208321930735
573,0.0188498137198637
574,0.0189698198430644
575,0.0187692144360985
576,0.0188532966563788
577,0.0189373788766591
578,0.0190214610969394
579,0.0191055433172197
580,0.0191896255375
581,0.0194545256619899
582,0.0193441033614727
583,0.0195314145723269
584,0.019211574328508
585,0.0191810999005821
586,0.0188350314370047
587,0.0186855579101113
588,0.018603438985315
589,0.0185213200605187
590,0.0184392011357225
591,0.0185574481465667
592,0.0187033774790985
593,0.0186572223089409
594,0.0189126377675259
595,0.0187537681167728
596,0.0188492057861599
597,0.0189891438856906
598,0.0188701797568042
599,0.018903198392831
600,0.0189366013497713
601,0.0190664623057703
602,0.0191815273951844
603,0.0190052087419702
604,0.0191852410606221
605,0.0190145284143982
606,0.0190869740129639
607,0.0189355190979765
608,0.0187775613173664
609,0.0187468451268913
610,0.0186742554797071
611,0.0185467326780668
612,0.0184028448440996
613,0.0183637613750689
614,0.0182312231876056
615,0.0185298732052632
616,0.0182500083227482
617,0.0184498037323599
618,0.0184217543628327
619,0.0184494132633747
620,0.0183511992129147
621,0.0184514370774198
622,0.0181269296279351
623,0.0180129268273694
624,0.0178817611187875
625,0.0177505954102056
626,0.0176194297016237
627,0.017639314445435
628,0.0176249108796952
629,0.0175746121798025
630,0.0178708894111946
631,0.017643823943226
632,0.0177992186066993
633,0.0179398262583575
634,0.0180191442667913
635,0.0180549067476425
636,0.0180144685333668
637,0.0181861605523693
638,0.0180678531899357
639,0.0182582667672058
640,0.0181931268820357
641,0.0181000020992087
642,0.0181486138909295
643,0.0180959187276266
644,0.0180432235643237
645,0.0179905284010208
646,0.0181828497007588
647,0.0182652869583523
648,0.0179616688551069
649,0.0183011675580862
650,0.018145282493684
651,0.0181681841638724
652,0.017943050415222
653,0.0177050882749912
654,0.0173539197547806
655,0.0175163208047289
656,0.0175978835385442
657,0.0177519911424484
658,0.0178827663028854
659,0.0182667486876314
660,0.018392014340972
661,0.0183968485333288
662,0.0184656697991974
663,0.0184414900009275
664,0.0183025928632106
665,0.0183965843222524
666,0.0184583575525797
667,0.0185537657093208
668,0.0185708270682351
669,0.0182087533828769
670,0.0184614906336011
671,0.0184296313865835
672,0.0184521308836249
673,0.0185139083836414
674,0.0186607080907836
675,0.0185930162968153
676,0.0186736844219062
677,0.0188428648670241
678,0.0186101810221937
679,0.018659923839038
680,0.0191651648937242
681,0.0187318391059255
682,0.0181168363113249
683,0.017711430702044
684,0.0170053042010189
685,0.0164307186613907
686,0.0160328062895394
687,0.016018976581287
688,0.0161196301322257
689,0.0165397215983774
690,0.0171022320951504
691,0.0178308795181187
692,0.0182412942726388
693,0.0185607467908023
694,0.0191142093387744
695,0.0192026016060031
696,0.019519913197987
697,0.0197905699037369
698,0.0197173384031289
699,0.0198947512232381
700,0.0204300765907073
701,0.0204148589382479
702,0.0207606081463787
703,0.0209711411538828
704,0.0213093171592283
705,0.0213974982141303
706,0.0217061533332914
707,0.0220053774690914
708,0.0220246577624666
709,0.0224392154485668
710,0.0222858462056737
711,0.0223761094621554
712,0.0225517018705774
713,0.0219278121989924
714,0.0218678851411214
715,0.0212768594555752
716,0.0208888001502328
717,0.0207248689730805
718,0.0207295191157999
719,0.0211736228872755
720,0.0213797069546425
721,0.0212127223273618
722,0.0218009963225791
723,0.0218402627174053
724,0.0218676017325786
725,0.0221390848756912
726,0.0221420411899966
727,0.0225499934634936
728,0.0229414890373076
729,0.0233346864012205
730,0.0236505167287628
731,0.0241092650782426
732,0.0245098612911974
733,0.0248540144432225
734,0.0251900412239785
735,0.0252700218393412
736,0.0255949379876164
737,0.0256602014033644
738,0.0257254648191123
739,0.0257907282348603
740,0.0261818910326591
741,0.0262827282224838
742,0.0263775269597135
743,0.0264723256969433
744,0.026567124434173
745,0.0266580520629084
746,0.0266632422192184
747,0.0268615967423452
748,0.0265252308788521
749,0.0267798269633699
750,0.0268580501944804
751,0.0267912513066225
752,0.027072709994984
753,0.0266408460950422
754,0.0256779296690735
755,0.0234146784185364
756,0.0211514271679994
757,0.0188881759174623
758,0.0157885557083744
759,0.0136312697015441
760,0.0127396308065438
761,0.0127749694983047
762,0.0136394749724953
763,0.01545938299465
764,0.0174433605140024
765,0.0193236703382906
766,0.0214920689133576
767,0.0233776842212909
768,0.0245582815888754
769,0.0254495953159761
770,0.0260410628279424
771,0.0264340783855084
772,0.0267947051857566
773,0.0272074384449461
774,0.0270820732951152
775,0.0272002162040988
776,0.0273220566126398
777,0.0270142154849253
778,0.0273825313259397
779,0.0271509133437613
780,0.0275582369641914
