"wavelength","measurement"
380,0.00768092508772942
381,0.00750166861243054
382,0.00732879325821117
383,0.00727504013720475
384,0.00729399400546014
385,0.00763763617564898
386,0.00796103115395649
387,0.00824079652419561
388,0.00860250826122554
389,0.00871074914034079
390,0.00863566623891579
391,0.00861934122023828
392,0.00855198759239279
393,0.00864406592230207
394,0.00904530241379962
395,0.00971175859782335
396,0.0104527113632436
397,0.0115196040369475
398,0.0125864967106513
399,0.0136533893843552
400,0.0141586238019973
401,0.0147614052026239
402,0.0151898703653674
403,0.015258038389077
404,0.0153372649742974
405,0.0153397264189882
406,0.0156508793953138
407,0.0157170088213788
408,0.0157802425290691
409,0.0161286282064223
410,0.0168444783047112
411,0.0168190173714801
412,0.0170784372709008
413,0.01751534123134
414,0.0172649313543127
415,0.0173495970804601
416,0.0172054280604555
417,0.0170993957248849
418,0.0172048284233899
419,0.0168940499077924
420,0.0172754632184023
421,0.0172140033323352
422,0.0172588742967531
423,0.0174025413844859
424,0.017289871731861
425,0.0168904296093458
426,0.0166657995754994
427,0.0161453220160917
428,0.0158476987107409
429,0.0157938356500072
430,0.0157541370166615
431,0.0166318106591935
432,0.0171287398065991
433,0.0176998715866972
434,0.0182495533189583
435,0.0185134675378148
436,0.0188372461444816
437,0.0190635823693943
438,0.019289918594307
439,0.0195162548192196
440,0.0195865803795222
441,0.0199472228122736
442,0.0203318762094992
443,0.0204140883157357
444,0.0207451736802333
445,0.0210762590447309
446,0.0214073444092286
447,0.0217481660212639
448,0.0217851712856775
449,0.022301556843622
450,0.0222031036303327
451,0.0220153428154301
452,0.0219393069053133
453,0.0218632709951964
454,0.0217872350850795
455,0.021849404395733
456,0.0217136003636881
457,0.022083737207367
458,0.0221822098645646
459,0.0223939352841824
460,0.0224629526694878
461,0.0222117354038056
462,0.0225736469938606
463,0.021967302910363
464,0.0216993709031166
465,0.0215080604180716
466,0.0212025420862949
467,0.0211863142122214
468,0.0210921606549982
469,0.0208655911318515
470,0.0214193848918666
471,0.0214039227630428
472,0.0213934755144145
473,0.0216641020005813
474,0.0216820315596365
475,0.0218552576700388
476,0.0213553549822783
477,0.0213309708665784
478,0.0213065867508785
479,0.0212822026351786
480,0.0212247589188714
481,0.020607743998299
482,0.0202390692121398
483,0.0201489025583238
484,0.0197344350524981
485,0.0194841577081007
486,0.0197271234330049
487,0.0199372318751209
488,0.0202454961183389
489,0.0206724925493774
490,0.0207436948748097
491,0.0208224089454748
492,0.0213149849166914
493,0.0209982216887442
494,0.021248225127433
495,0.0209301976129727
496,0.020997630844371
497,0.0205379107084359
498,0.020646524001766
499,0.0201675953969715
500,0.0203901532520185
501,0.0202506291779626
502,0.0206664039639028
503,0.0208466701442292
504,0.0205306117024852
505,0.0211441454250532
506,0.0209553660746451
507,0.0209559641480624
508,0.0210937649912019
509,0.0209918917995612
510,0.0206276268671566
511,0.0207884154800608
512,0.0205469701923163
513,0.0198930927696244
514,0.0197871872909098
515,0.0194528579315645
516,0.019362291896746
517,0.0193664793155293
518,0.0194143282446884
519,0.0197945879259891
520,0.0199697096423813
521,0.0201385794670105
522,0.0203074492916397
523,0.020476319116269
524,0.0204196245653383
525,0.0203571308191889
526,0.0204516555402453
527,0.0203210973568327
528,0.0203804492939976
529,0.020557426807652
530,0.0205528806541596
531,0.020554865836059
532,0.0205103940248304
533,0.0206944725921284
534,0.0207200939650956
535,0.020515995309076
536,0.0206189946451194
537,0.0204546415389143
538,0.0204118463460521
539,0.0202207409560425
540,0.0204110238348453
541,0.0202077052878638
542,0.0201037233875121
543,0.0200984823914383
544,0.0202687606996513
545,0.0200803822726631
546,0.0202390792827984
547,0.0202024584630192
548,0.02016583764324
549,0.0201292168234608
550,0.0200620652686281
551,0.0201504649518556
552,0.0203292131679006
553,0.0201072315426589
554,0.0201243686424258
555,0.0202117149666866
556,0.0199486175312094
557,0.0199867334438257
558,0.0197915238200103
559,0.019632570163277
560,0.0197808021937498
561,0.0194473316011561
562,0.0197415129684818
563,0.0194118900747914
564,0.0194997535939462
565,0.0192102843920708
566,0.0191112632418933
567,0.0188580776589947
568,0.0190336099817218
569,0.0188129355375601
570,0.0187317530498424
571,0.0188219959848365
572,0.0187960701304745
573,0.0187265998407433
574,0.018817324785759
575,0.018589851566032
576,0.018692644841084
577,0.018795438116136
578,0.018898231391188
579,0.0190010246662399
580,0.0191038179412919
581,0.0193912038037426
582,0.0192615629124125
583,0.0194459199476619
584,0.0191724949540465
585,0.0191182975520326
586,0.0187831579195433
587,0.0186311971428321
588,0.0185216805855873
589,0.0184121640283425
590,0.0183026474710976
591,0.0184940629184693
592,0.0186779794075691
593,0.0185860767380395
594,0.0188023675979231
595,0.018766351601951
596,0.0187999942924893
597,0.0188810663692381
598,0.0187811050069231
599,0.018791057821463
600,0.0188539476381955
601,0.0190081720854977
602,0.0190476562395903
603,0.0189162467802199
604,0.0190640639418062
605,0.0189611958941819
606,0.0190109434888014
607,0.0189075415772462
608,0.0186681797721586
609,0.0186197810290399
610,0.0186029641509824
611,0.0184414399570989
612,0.0183045061644475
613,0.0183113105308747
614,0.0180967997541756
615,0.0183934646681306
616,0.0181800033354826
617,0.0183724319611073
618,0.0183382728853861
619,0.0183606359348091
620,0.0183101131074284
621,0.0184230066820467
622,0.0180540872111937
623,0.0179691400684435
624,0.0178495670813405
625,0.0177299940942375
626,0.0176104211071344
627,0.0175485769262176
628,0.0175404395022774
629,0.0175250426804284
630,0.0177447582618891
631,0.0175405518804482
632,0.0176826735191697
633,0.017832214602417
634,0.0179974873004892
635,0.0179602716500182
636,0.017881584571317
637,0.0181156405608572
638,0.0180204271011403
639,0.0182021824996021
640,0.0181103630501351
641,0.0180859809777131
642,0.0180412653296269
643,0.0180041569676099
644,0.0179670486055929
645,0.0179299402435759
646,0.0181478504789831
647,0.0182178928973107
648,0.0178832645074376
649,0.0182505846162692
650,0.0180357918870728
651,0.0180606387838302
652,0.0178691260918499
653,0.0176488431752096
654,0.0172782946132115
655,0.0174505473502533
656,0.0175495715928558
657,0.0176891388294082
658,0.0178412007461619
659,0.0181980021207856
660,0.0183173767890748
661,0.018406053026723
662,0.0184696762327769
663,0.0183960229785974
664,0.0182402747635651
665,0.0184166503823561
666,0.018418165380735
667,0.0185717754644825
668,0.0186021398666409
669,0.0182677024069195
670,0.018487948492572
671,0.0184194804121549
672,0.0184219706900325
673,0.0184781117223891
674,0.0185580280248674
675,0.0185998605244072
676,0.0186506147998726
677,0.0187977317136327
678,0.0186682371605915
679,0.0186773048835503
680,0.0192565220775157
681,0.0188089933166151
682,0.0181521410473151
683,0.0177265120167749
684,0.0170120364076045
685,0.0164579484129573
686,0.0161184502417703
687,0.0160674783224513
688,0.0161192943908866
689,0.0165158846172825
690,0.0170704740113118
691,0.0178569157684956
692,0.0182295461836789
693,0.0186537047110317
694,0.0191025000765898
695,0.0191978343550327
696,0.0196693657117612
697,0.0197590546722706
698,0.0197456444773675
699,0.0199455531541668
700,0.0204813685456869
701,0.0204280250884577
702,0.020787222797347
703,0.0208910578303675
704,0.0213547113405512
705,0.0214170222157717
706,0.0217905770773533
707,0.0220414375269812
708,0.0221902804568965
709,0.0225280717525796
710,0.0223607853350158
711,0.0224847656441527
712,0.0226018624863913
713,0.021935307942298
714,0.0219354815986937
715,0.0212483070141172
716,0.0210288664820484
717,0.0208332612407313
718,0.0208597023479748
719,0.021263684216071
720,0.0214868377446369
721,0.0212851291105083
722,0.0218012343253936
723,0.0219940251854388
724,0.0220622153447251
725,0.022305201289342
726,0.0223152577257372
727,0.0227148297030598
728,0.0230007747352196
729,0.0235589852917533
730,0.0238053745697785
731,0.0242443166032626
732,0.0247250276998727
733,0.0250907900591499
734,0.0254709768584354
735,0.025627713569667
736,0.0258977174603533
737,0.0259851120673255
738,0.0260725066742978
739,0.02615990128127
740,0.0264811319647027
741,0.026639858053468
742,0.026778126471292
743,0.026916394889116
744,0.02705466330694
745,0.027076415340681
746,0.0270758851736701
747,0.0272577984958987
748,0.0269724379238633
749,0.0272936362835753
750,0.0271853836926794
751,0.0273250454559375
752,0.0276485428908327
753,0.0271482860469851
754,0.0260755203136884
755,0.0237931439199703
756,0.0215107675262522
757,0.0192283911325341
758,0.0160394364897817
759,0.0138719175262656
760,0.0130636950827046
761,0.0130204143243498
762,0.01399957706761
763,0.0158463051221804
764,0.0178611647054008
765,0.0199415536858317
766,0.0220119512815599
767,0.0241184421103647
768,0.025228149601596
769,0.0261471089775751
770,0.026867203716731
771,0.0272088328073522
772,0.0275751267746208
773,0.0278396864505071
774,0.0278716002734598
775,0.0279188903327435
776,0.0281839972587582
777,0.0279171946125291
778,0.0282737305518265
779,0.0279357310047999
780,0.0283258179278606
