"wavelength","measurement"
380,0.00115689329848655
381,0.00118612124542512
382,0.00120987108734205
383,0.00116028568052646
384,0.00124010500627455
385,0.00130123957679355
386,0.00138491505646856
387,0.00147468613471499
388,0.00156499647805402
389,0.00164750197764991
390,0.00164502376404199
391,0.00165715696772911
392,0.00168761174685894
393,0.0017191970306254
394,0.00181278480208671
395,0.00193691536363018
396,0.00213609765535505
397,0.00239883913552364
398,0.00266158061569223
399,0.00292432209586082
400,0.00307746618556772
401,0.00330260190735445
402,0.00343487940577917
403,0.00352759521344898
404,0.00355718763659413
405,0.00355800395246337
406,0.00365451194168545
407,0.00371683928309228
408,0.00377482812048406
409,0.00385842828886592
410,0.00406096329224773
411,0.00409307818073244
412,0.00423467903147382
413,0.00435222403231831
414,0.00436697128498631
415,0.00441085573002093
416,0.00441713256881075
417,0.00440309956718353
418,0.00448921864055993
419,0.00436067574683348
420,0.00454214632867645
421,0.00450366554231314
422,0.00456085217218506
423,0.00462749109372557
424,0.00461747805391784
425,0.00460557899890935
426,0.00455785218909502
427,0.00444127445634013
428,0.00427845709686742
429,0.00433439765054957
430,0.00432410066309329
431,0.00449858981844148
432,0.00470543082079449
433,0.00486253151334579
434,0.00511614387553854
435,0.00520223818440128
436,0.00532109991308522
437,0.0054127217633047
438,0.00550434361352418
439,0.00559596546374366
440,0.00564299207745246
441,0.00577990047247863
442,0.00593746928192948
443,0.00602791816478448
444,0.00614895554413819
445,0.00626999292349189
446,0.00639103030284559
447,0.006533791801123
448,0.00660509038322059
449,0.00687030244609483
450,0.00687928102514066
451,0.00682696594084174
452,0.00681389468623966
453,0.00680082343163757
454,0.00678775217703548
455,0.00680953545701853
456,0.00678672421407611
457,0.0069312447069403
458,0.00694406628603032
459,0.00708445117368296
460,0.00712038124216822
461,0.00703692741965591
462,0.00731319519378233
463,0.00704833945521116
464,0.00701707096304336
465,0.00697314416289577
466,0.00688016540891543
467,0.00688103307080824
468,0.00685503561781063
469,0.00679626196780914
470,0.00693776475631584
471,0.00695652284315114
472,0.00698178512189408
473,0.0070836478653563
474,0.00711070406789866
475,0.00723511108076022
476,0.00709122397460198
477,0.00709390078233108
478,0.00709657759006017
479,0.00709925439778927
480,0.00707352592905024
481,0.00692666437761102
482,0.00681667012475652
483,0.00681658181357169
484,0.00666883180068553
485,0.00655157488984753
486,0.00659614224760657
487,0.00666715324831776
488,0.006744164451848
489,0.0069514334417732
490,0.00700121450783909
491,0.00706969780141019
492,0.00723024769484141
493,0.00717484418294406
494,0.00731512791995506
495,0.00720919538750514
496,0.00722605377216947
497,0.00713280119316537
498,0.00722102287582175
499,0.00703103738765579
500,0.00709773546703512
501,0.00703666366780555
502,0.0071832258920159
503,0.00723781532448269
504,0.00717484593706185
505,0.00742754588892734
506,0.00738105592583402
507,0.00741704825228531
508,0.00745101981941971
509,0.00744787500836874
510,0.00733574484676232
511,0.00746805135136423
512,0.0073976171282317
513,0.0071769809961055
514,0.00711326162409767
515,0.00702151174210868
516,0.00696988525018828
517,0.00695448552585786
518,0.00691960333401954
519,0.00702223779212393
520,0.00717074091232114
521,0.00725295765915969
522,0.00733517440599825
523,0.00741739115283681
524,0.0073448417668682
525,0.0073778822041972
526,0.00736313774825929
527,0.00730327088110033
528,0.00736506522779056
529,0.00744589297451541
530,0.00747011094453426
531,0.00745731442422937
532,0.00742875779666445
533,0.00749851833212643
534,0.00754422071608227
535,0.00743041040477288
536,0.00752426611841004
537,0.00748423720669518
538,0.00743021690959532
539,0.00739061365016044
540,0.00744107612665543
541,0.00737424836261001
542,0.00735332637658872
543,0.00737849070148192
544,0.00742825563477188
545,0.00735152346166085
546,0.00741545557097603
547,0.00738675002425241
548,0.00735804447752879
549,0.00732933893080517
550,0.00730134472605096
551,0.00734113290101901
552,0.00737483157019173
553,0.00729117812086909
554,0.00729054774881882
555,0.00733251973535626
556,0.00725310226876105
557,0.00723416091267936
558,0.00718208418000854
559,0.0071229414706163
560,0.00718545219330503
561,0.00706535025844643
562,0.00717939758698867
563,0.00708203518172374
564,0.00710386794248653
565,0.00699312405891669
566,0.00698393868684199
567,0.00686003362293391
568,0.00693107784299998
569,0.00683784976417458
570,0.0068250632730598
571,0.00682906837784972
572,0.00681386826511894
573,0.00680558985213887
574,0.00684982993442027
575,0.00677416133068233
576,0.0067962740535208
577,0.00681838677635928
578,0.00684049949919776
579,0.00686261222203624
580,0.00688472494487471
581,0.00698703319524728
582,0.00695167117575346
583,0.00699711825333168
584,0.00690519249134864
585,0.00693798045115248
586,0.00675400713918702
587,0.00668305536771034
588,0.00662798448844764
589,0.00657291360918493
590,0.00651784272992223
591,0.00656117687159384
592,0.00658631274559149
593,0.00659555984130548
594,0.00662335364519957
595,0.0065933706111323
596,0.0065934594710829
597,0.00661874922719226
598,0.00658752188644119
599,0.00656160302297144
600,0.00656989689233176
601,0.00659943324882772
602,0.00661285921966634
603,0.00654398957241971
604,0.00660581843285158
605,0.0065569041786951
606,0.00657055101287187
607,0.00653345765995899
608,0.00645118749347308
609,0.00642929857243358
610,0.00638902621926474
611,0.00634471419020797
612,0.00629179452917998
613,0.0062560012926428
614,0.00615396696409657
615,0.00620032126056067
616,0.00615279111775394
617,0.00620164813935828
618,0.00618340650367034
619,0.0061905182023272
620,0.00613089083506839
621,0.00618524944061299
622,0.00604614478758605
623,0.00603338949130558
624,0.00596976815902426
625,0.00590614682674295
626,0.00584252549446163
627,0.00580551754134492
628,0.00576536787762629
629,0.00574672005291212
630,0.00579836755430522
631,0.00571795661103811
632,0.00575364674513823
633,0.00577767278979716
634,0.00578630536868224
635,0.00582689832256093
636,0.00580252047480605
637,0.00581320123120818
638,0.00575550844845566
639,0.00579686048713069
640,0.00575486733205183
641,0.00575074780049658
642,0.00571058925990312
643,0.0056816741919369
644,0.00565275912397068
645,0.00562384405600446
646,0.00565762846146593
647,0.00567293243481935
648,0.00555490693521361
649,0.00564652642092876
650,0.00556448131095433
651,0.00558446283558535
652,0.00551283683102058
653,0.00539388898698799
654,0.0052754945881337
655,0.00530530469652969
656,0.0052610692189462
657,0.00526911744239407
658,0.0053086782579954
659,0.0054444063885215
660,0.0054510317176513
661,0.00546506852592374
662,0.00548187059878659
663,0.00541300913655421
664,0.0053751181959485
665,0.00539143471208846
666,0.00539021967900631
667,0.00538890158359482
668,0.00536984951817311
669,0.00528668353982929
670,0.00528205065814624
671,0.00525144880072635
672,0.00524994449108015
673,0.00524202344959252
674,0.00524220906129669
675,0.00522774532987264
676,0.00519019076498978
677,0.00524172863906826
678,0.00515396869002947
679,0.00512440780645758
680,0.00523139156314721
681,0.00511770918681816
682,0.00497550214673268
683,0.00486370332900134
684,0.00463518631522085
685,0.00444643975738987
686,0.00428566090225969
687,0.00417406435057938
688,0.00411282157743034
689,0.00417513566061981
690,0.00428347849357857
691,0.00442973414602966
692,0.00450859684675951
693,0.00458153016457483
694,0.00468303853830951
695,0.00466521114597288
696,0.00476001929695675
697,0.00474334775466578
698,0.00468306643558058
699,0.00468570190595195
700,0.00475587098376428
701,0.00471008810452987
702,0.00473720877364044
703,0.00474347339606999
704,0.00480245092892524
705,0.00475974791307144
706,0.00478802795233499
707,0.00484998945494215
708,0.00482341605337933
709,0.00485151518307123
710,0.00476834002575618
711,0.00478146338278732
712,0.00481108576354189
713,0.00465945834626797
714,0.004633937802375
715,0.00446851309431026
716,0.00437227138613241
717,0.00424036195072915
718,0.00420618981089799
719,0.00426461023016158
720,0.00423098116731877
721,0.00416149835617211
722,0.00426710905713357
723,0.00427270379456312
724,0.00425096963408495
725,0.00425486535462661
726,0.00423576484581079
727,0.00426455473084033
728,0.00427788180626823
729,0.0042988335472649
730,0.00435198844596291
731,0.00444136561782442
732,0.00445825705633145
733,0.00454014882312388
734,0.00457947301288288
735,0.00456905334221166
736,0.00461198752253442
737,0.00459341936152458
738,0.00457485120051473
739,0.00455628303950488
740,0.00458903272484686
741,0.00456750168748387
742,0.004563913197478
743,0.00456032470747213
744,0.00455673621746627
745,0.00456061802097629
746,0.00453068215860283
747,0.00454059933371817
748,0.00443822894323992
749,0.00446672031565779
750,0.00440026006677745
751,0.00439658785508877
752,0.00443100634608714
753,0.00428153386037877
754,0.00430945273707174
755,0.00397936794726639
756,0.00364928315746104
757,0.00331919836765569
758,0.0027976413988036
759,0.00233810369503758
760,0.00202834904977976
761,0.00192397414996768
762,0.00198910695800678
763,0.00218131353939252
764,0.00246425984366097
765,0.00274557589479361
766,0.00310508542063465
767,0.00342398434124395
768,0.00362003063589853
769,0.00378649927009256
770,0.00384570306110643
771,0.0038885888867472
772,0.00390805118689467
773,0.00398153046710868
774,0.00394122785744849
775,0.0039121746430014
776,0.00396808830869539
777,0.00388187159923295
778,0.00391278501738198
779,0.0038314571801383
780,0.00389052961315015
