"wavelength","measurement"
380,0.00527130232936546
381,0.00527241039701146
382,0.00514360760778831
383,0.00513635498770483
384,0.00512018287572886
385,0.00534376215302421
386,0.00562142653057576
387,0.00589779085304716
388,0.00617271674591053
389,0.00635989587365905
390,0.00619845204866106
391,0.00634440951713516
392,0.0062874446935745
393,0.00643104145153062
394,0.00663292218582389
395,0.00718686742498612
396,0.00802661048326227
397,0.00890806914665683
398,0.00978952781005139
399,0.0106709864734459
400,0.0111970930596271
401,0.011742240948801
402,0.0121450119141326
403,0.0122743354236291
404,0.012389559926047
405,0.0126086222906998
406,0.0126298160102886
407,0.0127550618048791
408,0.012891288357084
409,0.0131441395276271
410,0.0137640621357306
411,0.0137419442441084
412,0.0141047648082836
413,0.0144446098601525
414,0.0142413288394307
415,0.0143618126818023
416,0.0140820663185592
417,0.0140415983827426
418,0.0142468481584915
419,0.0140294943222208
420,0.0141688792245305
421,0.0142349480496558
422,0.0143553715735988
423,0.0144833900955458
424,0.0144419505708539
425,0.0141512366622162
426,0.0139997769991378
427,0.0135294073469972
428,0.0130642899524833
429,0.013278650586339
430,0.0133141885236581
431,0.0139658817112988
432,0.0143683529476361
433,0.0149916336668365
434,0.0154799023718335
435,0.0157398325760208
436,0.0160692551575319
437,0.0163137113504275
438,0.0165581675433231
439,0.0168026237362187
440,0.0169170124779451
441,0.0172584204076518
442,0.0175806765187003
443,0.017722215225697
444,0.0180607040346905
445,0.0183991928436839
446,0.0187376816526774
447,0.0190305996902149
448,0.0192997598190807
449,0.019745650142193
450,0.0197120476768364
451,0.0195820466586429
452,0.0195264587666062
453,0.0194708708745695
454,0.0194152829825328
455,0.0195220667529524
456,0.0195438546867486
457,0.0197118362908623
458,0.0198427494332619
459,0.0201799865607167
460,0.0201559917780278
461,0.0198351213706948
462,0.0203601185216297
463,0.0196975847599473
464,0.0195864288990565
465,0.0193130164941363
466,0.0191433695840089
467,0.0190599267299959
468,0.0189382721095494
469,0.0188793585973238
470,0.0192645860366943
471,0.0192231274868571
472,0.0193229158473401
473,0.0195626130815802
474,0.0195284697675603
475,0.0197814798156767
476,0.0193843177908419
477,0.0193617158831845
478,0.0193391139755272
479,0.0193165120678698
480,0.0192222340521201
481,0.0187107653397832
482,0.0183728905117687
483,0.0184333743462191
484,0.0179322379795737
485,0.0176819679983567
486,0.0179299821907193
487,0.0181975003335068
488,0.0183912573258341
489,0.0189337121591208
490,0.019029377085706
491,0.019286768386609
492,0.0196686220834891
493,0.0193666756460123
494,0.0196771631202905
495,0.0194197897664575
496,0.0195211745116766
497,0.0191645264401437
498,0.0192375652978174
499,0.0188149245050825
500,0.0190270162601605
501,0.0189164587336383
502,0.019312550388004
503,0.0195339992485836
504,0.0192732696375447
505,0.0199459808779067
506,0.0197466510422528
507,0.0198541362350159
508,0.0199543455701701
509,0.0198654853955428
510,0.0196004329615948
511,0.0197408278138305
512,0.0195295770199212
513,0.0189666540738838
514,0.0188700175230472
515,0.0185353691444448
516,0.0184808937638655
517,0.0184561431336229
518,0.0184830943471821
519,0.0188240583940843
520,0.0191919372999956
521,0.0193497704639902
522,0.0195076036279847
523,0.0196654367919793
524,0.0194969782604554
525,0.0195902695417742
526,0.0195986410823833
527,0.0194671986585577
528,0.019574898803793
529,0.0197745945369999
530,0.0198449186432872
531,0.0198666730596548
532,0.0197521261531534
533,0.0198907588323419
534,0.0200010917833438
535,0.0198141118460724
536,0.0199659676756548
537,0.019839066726025
538,0.0197455229407119
539,0.0196453285373315
540,0.0197938785064177
541,0.0196322359284988
542,0.0195317410118852
543,0.0196237851773479
544,0.019744656990393
545,0.0196522002217523
546,0.019759197415333
547,0.0197406184023667
548,0.0197220393894005
549,0.0197034603764342
550,0.0196746079327593
551,0.0197343218003432
552,0.0199775498842594
553,0.0197902144532592
554,0.0197863099338098
555,0.0199376641295423
556,0.0196348247676443
557,0.0196216340338083
558,0.0196124600143425
559,0.0194372228806088
560,0.0196875343021156
561,0.0192728877843632
562,0.0196565293943702
563,0.0193788411478266
564,0.0194746320161999
565,0.0192206909056212
566,0.0191321967720246
567,0.0189734813688168
568,0.0191257478801567
569,0.0189270967884456
570,0.0189201213318663
571,0.0189156326903252
572,0.0189891417436409
573,0.0189835538801765
574,0.0190874232573962
575,0.0188774671263711
576,0.0189851966086485
577,0.0190929260909259
578,0.0192006555732033
579,0.0193083850554807
580,0.0194161145377581
581,0.0196884482326448
582,0.0195941342224088
583,0.0198196427529903
584,0.0195312210037064
585,0.0195057515484885
586,0.0190930960931431
587,0.0190245068022215
588,0.0189263039995159
589,0.0188281011968103
590,0.0187298983941047
591,0.0188843987970996
592,0.0189765876663844
593,0.0190237511241618
594,0.0192564980289304
595,0.0191624068822385
596,0.0192686653247735
597,0.0193149508391815
598,0.0192327178421088
599,0.0191669859697811
600,0.0193171064058486
601,0.0194504954843102
602,0.0194613812509721
603,0.0193058161020498
604,0.0195892982022059
605,0.019435363747648
606,0.0194303629729352
607,0.0193673613695128
608,0.0192105689150644
609,0.0192152818303033
610,0.019055436759693
611,0.0189476125721694
612,0.0188107882003091
613,0.018792555407985
614,0.018635468712179
615,0.0188311193050259
616,0.0186378374527377
617,0.018862295396788
618,0.0188285073815347
619,0.018935049033591
620,0.0188392397079954
621,0.018896611350858
622,0.0185231830973336
623,0.0185626392808523
624,0.0184196466756348
625,0.0182766540704173
626,0.0181336614651998
627,0.0180844064312493
628,0.0179988721620471
629,0.0180198390920815
630,0.0182307748914665
631,0.0179893678001341
632,0.0181843084899943
633,0.0182914691068782
634,0.0184385800596041
635,0.0185186070224258
636,0.018393357870303
637,0.0185804051581611
638,0.0184717112273248
639,0.0186251716580439
640,0.0185769865200834
641,0.0185220214149133
642,0.018531799495274
643,0.018482228179038
644,0.0184326568628019
645,0.0183830855465659
646,0.0185575772093292
647,0.0186560534660721
648,0.0183269206254732
649,0.0186325354539531
650,0.0184183438683443
651,0.0185380987809685
652,0.0182714578810967
653,0.0179363821642672
654,0.0177061299438097
655,0.0178645727360184
656,0.0177656248234433
657,0.0179530042741206
658,0.0181261965746428
659,0.0185631062125001
660,0.0186868169319463
661,0.0186963610796
662,0.0187213493377119
663,0.018637792118887
664,0.0185126650489623
665,0.0186331712513935
666,0.0186519712337861
667,0.018697250938087
668,0.0187523767088918
669,0.018439669783487
670,0.0185739987684443
671,0.0184722332112498
672,0.0185234460570307
673,0.0184375721983632
674,0.0186468118634922
675,0.0185637037430438
676,0.0185652411691191
677,0.0186848794783416
678,0.0185020218594662
679,0.0184727586246588
680,0.0189641489474973
681,0.0185429821357726
682,0.0179676563493037
683,0.0176178735670159
684,0.0167823282955987
685,0.0161264718938976
686,0.0156893026657597
687,0.0154290922680341
688,0.0155367185668872
689,0.0158157933335971
690,0.0162923867617927
691,0.0168331320162335
692,0.0172131113039202
693,0.0174902885966477
694,0.0179030443626667
695,0.0178213286323485
696,0.0181422822095016
697,0.0181946301479232
698,0.0180068176768386
699,0.0180637039036568
700,0.0184012445525548
701,0.0183317185173796
702,0.0184971611467316
703,0.018483661220334
704,0.0186814579965624
705,0.0186677494035197
706,0.0187534012671077
707,0.0190199795902961
708,0.0188703684696819
709,0.0191103811095095
710,0.0189503423932625
711,0.0188200839409869
712,0.0189359560057622
713,0.0183852357936604
714,0.0182496258182556
715,0.0176111270957355
716,0.0171607419962303
717,0.0169393308564933
718,0.0168302618836631
719,0.0168878676816624
720,0.0170650599089513
721,0.0168627413064292
722,0.0172497164957841
723,0.0172231990724151
724,0.0172248595591418
725,0.0172685289517517
726,0.0171632413580378
727,0.017422909176402
728,0.0174880812218311
729,0.0178136509608125
730,0.017902211012037
731,0.0182039481296969
732,0.0184001838514049
733,0.0187021714524975
734,0.018750575970476
735,0.0188409914627979
736,0.0189251533121396
737,0.0189613050705652
738,0.0189974568289907
739,0.0190336085874163
740,0.019289276658867
741,0.0191498950423845
742,0.0192304004524384
743,0.0193109058624923
744,0.0193914112725463
745,0.0194195999388463
746,0.0192744266141458
747,0.0194006457097443
748,0.0191209752243302
749,0.0193775532639085
750,0.0192703999080638
751,0.0191912525060261
752,0.0194492342168729
753,0.0192509218560889
754,0.0187307674314684
755,0.0171399932675785
756,0.0155492191036885
757,0.0139584449397985
758,0.0116998112077424
759,0.00995759602122831
760,0.00898795122397555
761,0.00889003076231578
762,0.00940707951836236
763,0.0105813909266005
764,0.0120726933466344
765,0.0134858282519141
766,0.0150384855975369
767,0.0165523259743538
768,0.0174439219217192
769,0.0178694246447285
770,0.0184636618299804
771,0.0187675206887263
772,0.0188981206666421
773,0.0192131628028913
774,0.0190600694096202
775,0.019134161554645
776,0.0192961692212273
777,0.0190465345737061
778,0.0192961988923294
779,0.0190154521068139
780,0.0194273771877023
