"wavelength","measurement"
380,0.00684999321986413
381,0.00661695005211274
382,0.00651387572178683
383,0.00626307142766172
384,0.00633459665068466
385,0.0065849175702552
386,0.00686265249441403
387,0.00716782187314753
388,0.007444551810822
389,0.00760787399883533
390,0.007452990090262
391,0.00745429650484575
392,0.00736223865088574
393,0.00735186796657449
394,0.00732811917121782
395,0.00784459433275916
396,0.00863363597083857
397,0.00943005742751798
398,0.0102264788841974
399,0.0110229003408768
400,0.011629194314331
401,0.0121088757810594
402,0.0124697510213957
403,0.0124974837244147
404,0.0124443505770442
405,0.0123241038065225
406,0.0124003779489911
407,0.0124086191104436
408,0.0124394094972669
409,0.0125343892303811
410,0.0130395648328959
411,0.0129087011072148
412,0.0132391673032826
413,0.0134240760554205
414,0.0133822655505349
415,0.0134650539425761
416,0.0131658324239541
417,0.0131012252285571
418,0.0132283447336974
419,0.0128432301258404
420,0.0130796072825318
421,0.013105862934678
422,0.0131477652453114
423,0.0131821613377505
424,0.0132137993783268
425,0.0129853498321133
426,0.0128144540632716
427,0.0124417933323936
428,0.0119744059520768
429,0.0120034334126423
430,0.0119740206605122
431,0.0123954125885381
432,0.0128368877588519
433,0.0133117268140396
434,0.0138379855135237
435,0.0140816070800943
436,0.0142631666754003
437,0.0144496661587953
438,0.0146361656421902
439,0.0148226651255852
440,0.0149012484221504
441,0.0152139631100757
442,0.0155238682704449
443,0.0156742001024676
444,0.0159237906074292
445,0.0161733811123908
446,0.0164229716173524
447,0.0166574862091361
448,0.0167084058731072
449,0.0173244305774643
450,0.0171911028754033
451,0.0170905629789032
452,0.0170166205962549
453,0.0169426782136066
454,0.0168687358309583
455,0.016868404482766
456,0.0168913584037158
457,0.0171007382926426
458,0.0171998187736821
459,0.0174752451883883
460,0.0174704529385786
461,0.0173063971199318
462,0.0178340674369742
463,0.0172819642068975
464,0.0170151007174298
465,0.0168703043771252
466,0.0166377499076116
467,0.0166017849047276
468,0.0164835879544367
469,0.0163061297168886
470,0.0166273386709167
471,0.01659407248699
472,0.016719489080716
473,0.0168898057477479
474,0.0168913944980575
475,0.0171560811821133
476,0.0166724331458502
477,0.0166815154424736
478,0.0166905977390971
479,0.0166996800357205
480,0.0166332189704861
481,0.0161869638637869
482,0.0159336618132518
483,0.015936210527591
484,0.0154882451760363
485,0.0151734521232516
486,0.0152961114633525
487,0.0154502325033358
488,0.0156440663437808
489,0.0161072761982273
490,0.0162060174195251
491,0.0163717803195514
492,0.0167451878758532
493,0.0165405585798533
494,0.0167750177385434
495,0.0165657291229202
496,0.0166281915303307
497,0.0163738857568382
498,0.0164287001609291
499,0.0160369504164468
500,0.0161978247558069
501,0.0160957361236597
502,0.016375212286994
503,0.0165298588119934
504,0.0163802515248569
505,0.01690061889314
506,0.0168359273871735
507,0.0169045719312481
508,0.0170447353735042
509,0.0169995691608028
510,0.0167534112217275
511,0.017034774759218
512,0.0168490706528111
513,0.0164276760911373
514,0.0162711711700598
515,0.0160875928129097
516,0.01594690701416
517,0.0159731991479517
518,0.0159449747222886
519,0.0163129037922957
520,0.0166566732613527
521,0.0168626534190495
522,0.0170686335767463
523,0.017274613734443
524,0.0171852701464918
525,0.0172535409846724
526,0.0173305132660114
527,0.0172260819219291
528,0.01734158156
529,0.0176029601187534
530,0.0176574532357547
531,0.0176906757460569
532,0.0176482086133329
533,0.0178265284633299
534,0.0178990320721497
535,0.0178148713186277
536,0.0179876995021372
537,0.0178837825253098
538,0.0177523862996135
539,0.0176611714330443
540,0.0177999086308758
541,0.017682833669994
542,0.0176480223599861
543,0.0177303763762414
544,0.0178646270683108
545,0.0176866960800954
546,0.017825354539235
547,0.0178165467350968
548,0.0178077389309586
549,0.0177989311268204
550,0.0177521832830183
551,0.0178794834900108
552,0.0180178685723406
553,0.01785877607268
554,0.0178077203226507
555,0.0179878697540048
556,0.0177639952737218
557,0.0177653165957362
558,0.0176535212404541
559,0.0175009529541565
560,0.0177119654521331
561,0.0173968099377212
562,0.0176977359183618
563,0.0174384811862527
564,0.0175057891856589
565,0.0172518836177403
566,0.0171712937979523
567,0.0169477271843385
568,0.0170590011141384
569,0.01685481331533
570,0.0168313123043364
571,0.0168174488229852
572,0.0167861658175903
573,0.0167594265569685
574,0.0168662409549432
575,0.0166643126670074
576,0.0167312165584376
577,0.0167981204498677
578,0.0168650243412979
579,0.016931928232728
580,0.0169988321241581
581,0.0172154989011973
582,0.0172135975409987
583,0.0173404285475484
584,0.0171626265681606
585,0.0171852299247029
586,0.0167504914904835
587,0.0165985463708141
588,0.0164865881072804
589,0.0163746298437467
590,0.016262671580213
591,0.0163919568225609
592,0.0165292894562017
593,0.016522232406589
594,0.0166999028886873
595,0.0165929009264965
596,0.0166419816002014
597,0.0167380849425146
598,0.0166438940134244
599,0.0166299788698472
600,0.0167050999694981
601,0.0168098198586024
602,0.0168936812370777
603,0.0167861211809003
604,0.0168956727388028
605,0.0168027446321951
606,0.0169125078838628
607,0.016790566193087
608,0.0166071791050454
609,0.0165831225985102
610,0.0165374940482568
611,0.0164078886198912
612,0.016304395207162
613,0.0162487578184724
614,0.0160300191061554
615,0.0162677448782596
616,0.0160826203611475
617,0.0162649502499722
618,0.0162441096455869
619,0.0163143908948233
620,0.0162416262592192
621,0.0163703693443046
622,0.0160407548902845
623,0.0160634213226338
624,0.0159276303320624
625,0.0157918393414909
626,0.0156560483509195
627,0.0156044635420086
628,0.015586658363222
629,0.0155630580684853
630,0.0157475188713249
631,0.0155870421820278
632,0.0157199454941045
633,0.0158639102038248
634,0.0159193914453632
635,0.0160280314577326
636,0.015944286188823
637,0.0161436306188391
638,0.0160279501323631
639,0.0161374672997213
640,0.0160329263215418
641,0.0160455085247325
642,0.0159872821261308
643,0.0159443759965961
644,0.0159014698670614
645,0.0158585637375268
646,0.0159887709425265
647,0.0160212713111708
648,0.0157174294169792
649,0.0160040284927792
650,0.0158206759664696
651,0.0159947078492869
652,0.0158265527364625
653,0.0155315153298156
654,0.0152908444217731
655,0.0153962490132011
656,0.0152504916732568
657,0.0153149736924371
658,0.0155278843984496
659,0.0159158305138188
660,0.0160244145029672
661,0.0160845560074098
662,0.0161617582524109
663,0.0160535961042737
664,0.0159037362270118
665,0.0159995468680877
666,0.0160072096904705
667,0.0160933908548794
668,0.0160823059053043
669,0.0158436022777843
670,0.0159390566091906
671,0.0159023186367002
672,0.0158868765696755
673,0.0159322509746772
674,0.0160299605457018
675,0.0160138927212708
676,0.0160451985548477
677,0.0161578720581354
678,0.0160259028444239
679,0.0160469703046244
680,0.0164783945682948
681,0.0162397120464277
682,0.0158781151029692
683,0.0155397128474374
684,0.0149146157149858
685,0.0144352868175084
686,0.014009569009373
687,0.013734119896428
688,0.013720657025584
689,0.0140956434318682
690,0.0146624922165173
691,0.0153890368426602
692,0.0158315831312431
693,0.0162668666726429
694,0.0168027895873986
695,0.017011558472403
696,0.0174868481133963
697,0.0177039242204027
698,0.0176666937369523
699,0.0178715853739221
700,0.0183894736982649
701,0.0184358168944547
702,0.018822397373891
703,0.0189343895343123
704,0.0193871924419385
705,0.0194667273279803
706,0.0198404332326962
707,0.0202159518441303
708,0.0203060507028531
709,0.0206725433264371
710,0.0205161134145936
711,0.0207320534651576
712,0.0209631224606491
713,0.0205566463144081
714,0.0205155850330528
715,0.0200218731387503
716,0.0195897789294018
717,0.0192933927969411
718,0.0193030041898845
719,0.0195274741103759
720,0.0198541145586156
721,0.0197228532038362
722,0.0204317363822983
723,0.0205157699228447
724,0.0205133388506268
725,0.02074393893994
726,0.0207280036999702
727,0.0211217600920094
728,0.0213862236153665
729,0.0218276635479806
730,0.0220816426870209
731,0.0226112515376809
732,0.0230183920432861
733,0.023565316653874
734,0.0238716654061278
735,0.0239723721587763
736,0.0242647344509284
737,0.0243489389354139
738,0.0244331434198993
739,0.0245173479043848
740,0.0248114836231225
741,0.0249743541339433
742,0.0250977084301102
743,0.0252210627262772
744,0.0253444170224441
745,0.0254484481709007
746,0.0254346787341437
747,0.025628366553746
748,0.0253709871124413
749,0.0255088630825408
750,0.0255286833490255
751,0.0254891803545556
752,0.0259035103716858
753,0.0255899247395378
754,0.0253975080652831
755,0.0235018376024279
756,0.0216061671395726
757,0.0197104966767174
758,0.0166643144516828
759,0.0138871595270637
760,0.0119063094872285
761,0.0114161388084819
762,0.0119387850395104
763,0.0133087672028026
764,0.0152935047904456
765,0.0172773439579941
766,0.0195712580187944
767,0.0217697961206744
768,0.0231902286675147
769,0.0240454843635276
770,0.0248814463204548
771,0.0252722506662816
772,0.0256267030784322
773,0.0259927242045974
774,0.0258709975497558
775,0.0259899869390049
776,0.0261385653112143
777,0.0259076604851321
778,0.0262639433904113
779,0.0259894814543641
780,0.0264837838994023
