"wavelength","measurement"
380,0.00110193345561466
381,0.00113046947783819
382,0.00110334533611825
383,0.00114084172017975
384,0.00117073736395657
385,0.00126128968304066
386,0.00130890625066729
387,0.00143360638921222
388,0.0015370567332315
389,0.00161304587854903
390,0.00158357822178419
391,0.00160329741653224
392,0.00162613226525594
393,0.0016627372876592
394,0.00172852764058431
395,0.00184915478584909
396,0.00205628545325623
397,0.00229202143294328
398,0.00252775741263034
399,0.00276349339231739
400,0.00294871563732601
401,0.00317662945873997
402,0.0033000197754015
403,0.00338620171171156
404,0.00341836038728085
405,0.00341239321338049
406,0.00347879371895761
407,0.0035930893141796
408,0.00363856274432457
409,0.00371618301904575
410,0.00391576201494241
411,0.00392458575407939
412,0.00410093611503498
413,0.00422686468155261
414,0.00420521198649385
415,0.00425730756343165
416,0.0042577052317788
417,0.00426569996000381
418,0.00429974950893824
419,0.00425031813405487
420,0.0043859158589988
421,0.00435954813441904
422,0.00441979313722049
423,0.00446458223676667
424,0.00448688821212982
425,0.00443367949992527
426,0.00439546884457792
427,0.00428848390352111
428,0.0041508177884766
429,0.00417204058165456
430,0.00417582951727378
431,0.00436589792688625
432,0.00454865951122882
433,0.00470470260999098
434,0.00492257465205321
435,0.0050577967105014
436,0.00516140981983236
437,0.00524114924983997
438,0.00532088867984757
439,0.00540062810985517
440,0.00544278935420694
441,0.00558615279372659
442,0.00572127565300694
443,0.00580019610666989
444,0.00592403038001941
445,0.00604786465336893
446,0.00617169892671845
447,0.00631476806873783
448,0.00636745584667249
449,0.00661184885831063
450,0.00662216311481272
451,0.00656249304596373
452,0.00656042981726063
453,0.00655836658855753
454,0.00655630335985444
455,0.00658547008964481
456,0.00652946397746185
457,0.00669845583303266
458,0.00670226487374576
459,0.00683589254725089
460,0.00685748269498045
461,0.00681950540540066
462,0.00702626540055795
463,0.00681213912970214
464,0.00677552409584779
465,0.00673954512397368
466,0.00663670863243919
467,0.00664630965422421
468,0.00662301311621395
469,0.00653952724363668
470,0.00669443059940936
471,0.00671003123232349
472,0.00674576434646934
473,0.0068538149989338
474,0.00687264693176194
475,0.00698582111617997
476,0.00682246815332328
477,0.00683724452008569
478,0.0068520208868481
479,0.00686679725361051
480,0.00682871157876601
481,0.00669460684185155
482,0.00655041048757638
483,0.0065536504218563
484,0.00642790405283547
485,0.00632559578133158
486,0.00638313453786246
487,0.00643058287446431
488,0.00649825528397668
489,0.00671185450919043
490,0.00677064592399807
491,0.00684834758165246
492,0.00698702301969363
493,0.00693333837140801
494,0.00706022373078822
495,0.00696608457338642
496,0.00698050808373707
497,0.00688029246487907
498,0.00694480477786944
499,0.00679253137630837
500,0.00685899516472406
501,0.00680875549070115
502,0.00692833593547768
503,0.00699434103092506
504,0.00693713914255301
505,0.00715531292699204
506,0.00712969949305814
507,0.00715866692246187
508,0.00720113865334243
509,0.00719014181055685
510,0.00708596221426787
511,0.00720082827470745
512,0.00712911311499803
513,0.00692873548750333
514,0.00688034794098511
515,0.00675367118833279
516,0.00672975233990644
517,0.00672220902658098
518,0.00669988001319622
519,0.00679582951511385
520,0.00694296411332719
521,0.00701637122798164
522,0.00708977834263608
523,0.00716318545729052
524,0.00709748306051157
525,0.00713241534263106
526,0.00712429234345986
527,0.00706788509987611
528,0.00710708241156882
529,0.00718990272630217
530,0.0072052526738656
531,0.00720995571787274
532,0.00718234501270307
533,0.00726392957810562
534,0.00727226802744927
535,0.00718683538799724
536,0.00728003859035249
537,0.00722349818719794
538,0.00718266332570819
539,0.00713973401044373
540,0.00718828931470201
541,0.007124156991556
542,0.0071038721893704
543,0.00714220716983629
544,0.00716476369645191
545,0.00710280827631382
546,0.00715270591898009
547,0.00713587330404927
548,0.00711904068911844
549,0.00710220807418761
550,0.00704729230496686
551,0.00710159776113972
552,0.00711880190854536
553,0.0070498283208392
554,0.00702826886838534
555,0.00708471324860652
556,0.00701465099829298
557,0.00699763104707663
558,0.0069546708604535
559,0.00686160851257806
560,0.00695527774379536
561,0.00684116665077331
562,0.00695886629078608
563,0.00684129793213383
564,0.00685708292054554
565,0.00675238680932678
566,0.00673524430302911
567,0.00664483627801562
568,0.00671150122773333
569,0.0066139770846962
570,0.00659520413101521
571,0.00660573872789453
572,0.00660074012544025
573,0.00658256237183772
574,0.00662786661681377
575,0.00654619403342823
576,0.00657033041709468
577,0.00659446680076113
578,0.00661860318442759
579,0.00664273956809404
580,0.00666687595176049
581,0.00674109337248352
582,0.00670471536226888
583,0.00677955610242528
584,0.00668361892880315
585,0.00669677024036495
586,0.00652698576432816
587,0.00646543628628941
588,0.00641353015973178
589,0.00636162403317416
590,0.00630971790661653
591,0.0063465181769284
592,0.00637495821040389
593,0.00636879246412683
594,0.0064273703489347
595,0.00637705655227518
596,0.00639853376860715
597,0.00637560337891075
598,0.00636148584741072
599,0.00634626116213165
600,0.006366171046091
601,0.00637006020579179
602,0.00638106662976295
603,0.0063453633864996
604,0.00638950437399446
605,0.0063473560925262
606,0.00634847821350666
607,0.00632089882542559
608,0.00624067596782754
609,0.00624055202041937
610,0.00618470041298624
611,0.00612151099168409
612,0.00608957734157422
613,0.00607371416439242
614,0.00594888573368299
615,0.0060029300288788
616,0.00594413640273609
617,0.00600109671671128
618,0.00597348180025148
619,0.00597779514515574
620,0.00594170635601934
621,0.00598562040178311
622,0.00584820176784029
623,0.00581965920195399
624,0.00575699255060862
625,0.00569432589926324
626,0.00563165924791787
627,0.00559538646481089
628,0.00558111883625984
629,0.00555830742026197
630,0.00561085814616442
631,0.00553205877438551
632,0.00556066105942681
633,0.0055840214549928
634,0.00559510642527295
635,0.00562720359467582
636,0.00560014563346775
637,0.00562759461603375
638,0.00557363297161802
639,0.0056071964779785
640,0.00558213796133674
641,0.00554813647855947
642,0.00552295668478377
643,0.00549025081092226
644,0.00545754493706074
645,0.00542483906319923
646,0.00548105628102016
647,0.00547381577062023
648,0.00535604864796504
649,0.00546688437196878
650,0.00537600627370172
651,0.00540785124170644
652,0.00533862945656292
653,0.00525112203658757
654,0.00511476222853794
655,0.00514717581315602
656,0.00509724071521415
657,0.00510181836691094
658,0.00514255939587115
659,0.00526895749092008
660,0.00530302113841751
661,0.0053032479176464
662,0.00530411601534676
663,0.00525343947323593
664,0.00521333919073947
665,0.005222824045136
666,0.00521940623906862
667,0.00522571902223914
668,0.00520010899947078
669,0.00512229667912782
670,0.00512833826891889
671,0.00508575472782589
672,0.00507805812990712
673,0.00508532877725794
674,0.00508974476411862
675,0.00507956395909527
676,0.00504457783627172
677,0.00506339380230727
678,0.00500145184160722
679,0.00496019611657004
680,0.00507428523939989
681,0.00497157293529347
682,0.00484185557424151
683,0.00471904289158405
684,0.00449608974078114
685,0.00430623303791685
686,0.0041661341921892
687,0.00405654225151086
688,0.00399600016161755
689,0.00404178687851232
690,0.00416123992034487
691,0.00430584896714498
692,0.00439841440479483
693,0.00445102790819377
694,0.00454210704959384
695,0.00453571393213677
696,0.00460982565145431
697,0.00461051134718905
698,0.0045474951737713
699,0.00456154959157602
700,0.00463533813633126
701,0.00457070906715269
702,0.00458761563558452
703,0.00459815606810044
704,0.00466696725252293
705,0.00460896963497749
706,0.00468833386285463
707,0.00471421017779133
708,0.00466667320907092
709,0.00472378938409104
710,0.00465047743841807
711,0.00467080578998985
712,0.00468465184931446
713,0.00454646441273965
714,0.00448660163077486
715,0.00435482504643172
716,0.00422070483937576
717,0.00411168585008336
718,0.00410011512452008
719,0.00410323411782461
720,0.00413165931581802
721,0.00404814094320487
722,0.00416931119171405
723,0.00416361617018554
724,0.00414211465844462
725,0.00413569227063675
726,0.00410887986673748
727,0.00415768958616453
728,0.00416470394338528
729,0.00418707456797481
730,0.00423714864998275
731,0.00431902851100788
732,0.00434386613556201
733,0.00443852566505506
734,0.00444868610392918
735,0.00443754385365048
736,0.00444369216304704
737,0.00444047626412175
738,0.00443726036519647
739,0.00443404446627118
740,0.00447590303393774
741,0.00444172685344386
742,0.00444090168302781
743,0.00444007651261175
744,0.0044392513421957
745,0.00445170994668299
746,0.00441142367884118
747,0.00440472809189003
748,0.00430681579862641
749,0.00436440085360359
750,0.00430944494792838
751,0.0042963682531666
752,0.00431714531702984
753,0.0041692143344841
754,0.00416130640045716
755,0.00385599003386372
756,0.00355067366727029
757,0.00324535730067686
758,0.00274748123623351
759,0.00229662105666276
760,0.00195430872600008
761,0.00185417295988521
762,0.00194200790541019
763,0.00211333357836617
764,0.00240608123708304
765,0.00266582500247967
766,0.00302737964757339
767,0.00333016942220626
768,0.0035362770904862
769,0.00364763260734615
770,0.00373481117734532
771,0.00378969620374059
772,0.00384309784908783
773,0.00390120589037911
774,0.00385323298870377
775,0.00379968870483348
776,0.0038447461593339
777,0.00378756839155141
778,0.00380092312523871
779,0.00373285133933951
780,0.00379889557074594
