"wavelength","measurement"
380,0.00978961606981966
381,0.00959497950582991
382,0.00928745716916499
383,0.00919512574002043
384,0.00930476736877781
385,0.00970384521355821
386,0.0101716596945573
387,0.0105450360289304
388,0.0109668070242197
389,0.0111520245452214
390,0.0110871058130077
391,0.0108832778635721
392,0.0109698035141483
393,0.0110465323146928
394,0.0114015734690904
395,0.0121020770774604
396,0.0132950671917537
397,0.0145859940866735
398,0.0158769209815932
399,0.017167847876513
400,0.0178650016620619
401,0.0184733730008508
402,0.019073028643634
403,0.0191080089770385
404,0.0189300636346993
405,0.0188695742626135
406,0.0191417981377059
407,0.0192329905415366
408,0.0191317054091777
409,0.0195405729204791
410,0.0203073404011702
411,0.0200839773627971
412,0.020425660828597
413,0.0208382648678073
414,0.0206343257918288
415,0.0207080016063271
416,0.0203461641765075
417,0.0200361212405884
418,0.0203242358370941
419,0.0199858242379286
420,0.020477238730472
421,0.0203352904880858
422,0.0203915980465331
423,0.0203815360991523
424,0.0205173489986193
425,0.0199796053073666
426,0.0197328450992585
427,0.0190444785129284
428,0.0186589768233465
429,0.0186217801146747
430,0.018791768065099
431,0.0194518594541768
432,0.0202749285765041
433,0.0209156950523145
434,0.0216418003728748
435,0.0219792758816366
436,0.0222809607363693
437,0.0225963563069606
438,0.0229117518775519
439,0.0232271474481433
440,0.023360512642517
441,0.0237521963772689
442,0.0242168791295793
443,0.0243914631347858
444,0.0248062265296287
445,0.0252209899244715
446,0.0256357533193144
447,0.026030283265533
448,0.0261295388654533
449,0.0269566341314505
450,0.0268294662866688
451,0.0265922886017566
452,0.0265733411159752
453,0.0265543936301938
454,0.0265354461444124
455,0.0264660911697636
456,0.0264822096618803
457,0.0267631230254717
458,0.0269547370040496
459,0.0272485715525672
460,0.0273623791739711
461,0.0270431999766593
462,0.0276093677907004
463,0.0268689503337325
464,0.0264629571150589
465,0.0263035436123092
466,0.0260672818768476
467,0.025860894351722
468,0.0257113123024837
469,0.0255785451492121
470,0.0261294355067155
471,0.026123683042779
472,0.0262386419162864
473,0.0265215826864575
474,0.02654163266439
475,0.0269023817676792
476,0.0262078939964168
477,0.0261722144767063
478,0.0261365349569959
479,0.0261008554372854
480,0.0260720900878141
481,0.0253855112561256
482,0.0248919383077671
483,0.024874420328753
484,0.0243078171775023
485,0.023904470966221
486,0.0242210500898808
487,0.0244628488582436
488,0.0247874848503668
489,0.0254818941864395
490,0.0256370684747279
491,0.0257795964838485
492,0.0264484343963055
493,0.025996104812147
494,0.0263614173070492
495,0.025892232832371
496,0.0260920097547984
497,0.0255560840327425
498,0.0257816566795334
499,0.0251297247271046
500,0.0253724515574848
501,0.0252768851262838
502,0.0257096246436077
503,0.0259293477252629
504,0.0256841115483435
505,0.0264740088614024
506,0.026246878123813
507,0.0263126047391168
508,0.0264415895389196
509,0.026385780173419
510,0.0259674267391202
511,0.0262123569708965
512,0.025765967818749
513,0.0251522634911481
514,0.024958947929075
515,0.0245605798062073
516,0.0244216196003329
517,0.0244906631393764
518,0.0244177986659942
519,0.0249648588556612
520,0.0253016869966807
521,0.0255180770819558
522,0.0257344671672309
523,0.0259508572525061
524,0.0258520428451218
525,0.025789086385919
526,0.0258495399529491
527,0.0256273604933121
528,0.025882428615738
529,0.0260858988413544
530,0.0261046561906827
531,0.0261101492003448
532,0.0260871017884915
533,0.0262994824433622
534,0.026374179968486
535,0.0261346875368072
536,0.0263397729576934
537,0.0261627105847573
538,0.0259760657003761
539,0.025846509171424
540,0.0260552083379183
541,0.0258331661272475
542,0.0257447553836514
543,0.0258133829598954
544,0.0259553570696075
545,0.0257226149011383
546,0.0259375535905513
547,0.0258908422890682
548,0.0258441309875852
549,0.0257974196861021
550,0.0256977822468078
551,0.0259510703917687
552,0.026138214393368
553,0.0258613715116166
554,0.0257930151782328
555,0.0260530831558722
556,0.0256751260193546
557,0.0256511826301785
558,0.0255185331518529
559,0.0253803149424068
560,0.025679652872071
561,0.0252190617319885
562,0.025613293672593
563,0.025230109336401
564,0.0253489558425336
565,0.0249438559510181
566,0.0249038923779083
567,0.0245778068689128
568,0.024803820676748
569,0.0245292552935508
570,0.0245484387215269
571,0.0246037821804293
572,0.0245783744218978
573,0.0244929623915751
574,0.0246656492715687
575,0.0244019755790952
576,0.0245321425399501
577,0.0246623095008051
578,0.02479247646166
579,0.024922643422515
580,0.02505281038337
581,0.0253392607248506
582,0.0252325575402698
583,0.025450981494056
584,0.0250587333290979
585,0.0251140344334558
586,0.024587073564204
587,0.0243749821087289
588,0.024246860095928
589,0.0241187380831272
590,0.0239906160703263
591,0.024125663750329
592,0.0243306455605368
593,0.0242412141713096
594,0.0245881867279064
595,0.0244403787906409
596,0.0245031726464026
597,0.0244825274510981
598,0.0244463587252565
599,0.0244166254861908
600,0.0245240770363721
601,0.024706108936962
602,0.0248120601079023
603,0.0246842923932659
604,0.0249182048891536
605,0.0246712758400466
606,0.0247350225202329
607,0.0246694073631788
608,0.0243210655553645
609,0.0243306894375424
610,0.0242211977338561
611,0.0240645384208481
612,0.0238706767020241
613,0.0238509688442253
614,0.0236337454930607
615,0.0239690183420265
616,0.0237320082899869
617,0.0239298118267876
618,0.0238758877391514
619,0.023998669396207
620,0.0238317205854898
621,0.023952368599491
622,0.0235825099477694
623,0.0235349113711132
624,0.0233253730054476
625,0.0231158346397821
626,0.0229062962741165
627,0.0229272124916532
628,0.0228674027117206
629,0.022845714508544
630,0.023096419403082
631,0.0228282371053531
632,0.0230585037163026
633,0.0232574411953612
634,0.0233191102366776
635,0.0234988674939078
636,0.0233423127603955
637,0.0235671572371675
638,0.0235111990088473
639,0.0236621811120511
640,0.023557934292367
641,0.02358242365214
642,0.0235261983601845
643,0.0234469236478829
644,0.0233676489355814
645,0.0232883742232798
646,0.023622662414561
647,0.023663509240052
648,0.0233793983804186
649,0.0237628909914323
650,0.0234803923157245
651,0.02358718149593
652,0.0232411395977855
653,0.0229149160464663
654,0.0225401239064987
655,0.0227909738456729
656,0.0226913691579163
657,0.0229132105165283
658,0.0231146074770896
659,0.0235861187503884
660,0.0237612101417756
661,0.0237597995089701
662,0.0239146110028818
663,0.0237342938307752
664,0.0235645643362809
665,0.0237558897246753
666,0.0237355955526177
667,0.0238556177075584
668,0.0239657087020642
669,0.0234768609345945
670,0.0236670186654707
671,0.0236544995591267
672,0.0235711194464432
673,0.0236375837002428
674,0.0237537602345847
675,0.0237183808521964
676,0.0236795198089259
677,0.0239204963171072
678,0.0236429160607669
679,0.0236969833459283
680,0.0242606486969992
681,0.0237669303305822
682,0.0230040458744412
683,0.022416629838937
684,0.0214853250596467
685,0.0206937628863479
686,0.0201414689544363
687,0.0198626277502539
688,0.0199425544078885
689,0.0204316088922875
690,0.0209861191501664
691,0.0218997914430155
692,0.0222316207147603
693,0.0227582166770654
694,0.0231873621418949
695,0.0232094791574179
696,0.0236414606816679
697,0.0237476834703135
698,0.0235171294991097
699,0.0237271256526495
700,0.0242357733603337
701,0.0240023932400018
702,0.0243501096670312
703,0.0242373609301111
704,0.0248118967196532
705,0.024691501128601
706,0.024982555771313
707,0.025091943294761
708,0.0251434166650729
709,0.0254534557988266
710,0.0251821346095942
711,0.0251197450186792
712,0.0252169636056414
713,0.0245564098859571
714,0.0242307593165128
715,0.0235144223684016
716,0.0229700316465559
717,0.0226501465209504
718,0.0225783001275729
719,0.0227795694096847
720,0.0229766195214489
721,0.0227364017275513
722,0.0233098741702113
723,0.023290797088513
724,0.0232605902222692
725,0.0234065997405377
726,0.023258160144218
727,0.0236848111255903
728,0.023801928541154
729,0.0242363138344726
730,0.0244300299461136
731,0.0249011811384398
732,0.0253282420905772
733,0.0257416871635596
734,0.0258815170453598
735,0.0258384703686611
736,0.0261014929232046
737,0.0261444673649655
738,0.0261874418067264
739,0.0262304162484873
740,0.0264323221740263
741,0.0264523665074514
742,0.026576659691612
743,0.0267009528757725
744,0.0268252460599331
745,0.026786151634277
746,0.0266522551441843
747,0.0268216991825067
748,0.0264430049920735
749,0.0266833618261996
750,0.0267413494915035
751,0.0265514897519872
752,0.0270772838682155
753,0.0266619833648885
754,0.0257686356584188
755,0.0235819768798608
756,0.0213953181013027
757,0.0192086593227447
758,0.0161294594137174
759,0.0137060569738179
760,0.0124743270858015
761,0.0124785849029242
762,0.0132194329911831
763,0.0149175960296887
764,0.0169308548069746
765,0.0187722333500218
766,0.0208631496824907
767,0.0229625838103217
768,0.0241573924516988
769,0.0248358106101397
770,0.0255671994046625
771,0.02600121290964
772,0.026342036618272
773,0.0266657332476193
774,0.0266410940938586
775,0.0265307727630992
776,0.0267129959251414
777,0.0265025561004727
778,0.0267673944585907
779,0.0265892997115803
780,0.0269682424853876
