"wavelength","measurement"
380,0.00412849553582141
381,0.00404504417315029
382,0.00393709314213819
383,0.00385298667511592
384,0.00392581479779787
385,0.00414845743020651
386,0.00429273190111101
387,0.00447035438282783
388,0.00466786837439818
389,0.00476811212520279
390,0.00475525901312659
391,0.00473617249380676
392,0.0047756064065705
393,0.00482197462116115
394,0.0049229828682235
395,0.00532880779489963
396,0.00584892832589151
397,0.00650626242689508
398,0.00716359652789866
399,0.00782093062890223
400,0.00814288847779435
401,0.00859654766048087
402,0.00882215204885667
403,0.00891389512386555
404,0.00893782001972278
405,0.00892844347653603
406,0.00904636684244814
407,0.00907692725058515
408,0.00916137844026237
409,0.00933573841027569
410,0.00971265872989838
411,0.00968222338064934
412,0.00998104789697498
413,0.0101121498467175
414,0.0100414718545799
415,0.0100861994251221
416,0.00996586401146367
417,0.00985941480501829
418,0.00992694125759001
419,0.00970428726822089
420,0.00998337700026469
421,0.0098997973935115
422,0.009970792435197
423,0.0100064837681772
424,0.0100863097230793
425,0.00981628780102201
426,0.00966878563752206
427,0.00933820665491391
428,0.00909639538501028
429,0.00916084618009428
430,0.0091595780150797
431,0.00942900860870946
432,0.00987998064517897
433,0.0101646728420149
434,0.0106499229734394
435,0.0108453142203116
436,0.0109557848376343
437,0.0110728235934623
438,0.0111898623492903
439,0.0113069011051183
440,0.0113999596989641
441,0.0115909550639871
442,0.01186241458312
443,0.0119539793935751
444,0.0121343161554441
445,0.0123146529173131
446,0.0124949896791822
447,0.0126737221651632
448,0.0127809537300323
449,0.013188184378678
450,0.0130917776665066
451,0.0129685520790384
452,0.0129267057834212
453,0.0128848594878039
454,0.0128430131921867
455,0.0128292619256624
456,0.0128371526621353
457,0.0130202850402634
458,0.0131179624197617
459,0.0132960858468766
460,0.0133296362619205
461,0.0132296821552654
462,0.0135491586395729
463,0.0131313785436256
464,0.0129437739150084
465,0.0128277300569198
466,0.0126501237495324
467,0.0126532944679438
468,0.0125296652335631
469,0.0124133164484842
470,0.0126733717538608
471,0.0127293207278447
472,0.01271258231789
473,0.0128914767776457
474,0.0129089651735875
475,0.0130595576778579
476,0.0128043991272542
477,0.0127801213100755
478,0.0127558434928968
479,0.0127315656757181
480,0.0126967954786066
481,0.0123734354510612
482,0.0121446539054452
483,0.012114970075225
484,0.0118436402265834
485,0.0116101007853688
486,0.0117516483522511
487,0.0118860475523395
488,0.0120598236444352
489,0.0123105024995967
490,0.0124928756896324
491,0.0125375519368094
492,0.012801262210306
493,0.0126466108881098
494,0.0128664257481367
495,0.01263757489243
496,0.0126591849502488
497,0.0124400032121016
498,0.0125339218770424
499,0.0122917960255556
500,0.0123701581794382
501,0.0122531432952452
502,0.0125098229709062
503,0.0126311869209188
504,0.0124972338360027
505,0.0129043359578998
506,0.0128127483412254
507,0.0128571134726044
508,0.0129679016383285
509,0.0129164332928825
510,0.0126824512192669
511,0.0128716385729573
512,0.0127118823621087
513,0.0123597259697731
514,0.0122317052970152
515,0.0120553490048739
516,0.012025668733274
517,0.0119902153103063
518,0.0119506464039737
519,0.012264216689868
520,0.0124790976306323
521,0.0125933376429245
522,0.0127075776552168
523,0.012821817667509
524,0.0127607428579002
525,0.0127763901669408
526,0.0127846232107208
527,0.0127147484371179
528,0.0128008382605053
529,0.0129543961743376
530,0.0129637586560318
531,0.0129922228083547
532,0.012948254186144
533,0.0130835277228902
534,0.0131495951660139
535,0.0129968490351417
536,0.0131480060864887
537,0.0130576524342544
538,0.0130073339334113
539,0.0129507317179871
540,0.013058258086618
541,0.0129689805926513
542,0.0129636477640508
543,0.0130032037424353
544,0.0131008883933308
545,0.0129755232442662
546,0.0130881237870958
547,0.0130558314629142
548,0.0130235391387326
549,0.012991246814551
550,0.0129621156419452
551,0.0130417610472389
552,0.0131388093019801
553,0.0129774681230511
554,0.012970605757445
555,0.0130906015511756
556,0.0129141826125482
557,0.0128969222911001
558,0.0128438464978307
559,0.0127470837985559
560,0.0129169491392994
561,0.0127094587966814
562,0.012897522930066
563,0.0127025028825907
564,0.012774322210629
565,0.0125663994534531
566,0.0125509460637393
567,0.0123910849301462
568,0.0124890668088654
569,0.0123594314360225
570,0.0123418867724479
571,0.0123792296205003
572,0.0123778704991436
573,0.0123541308948743
574,0.0124815690223733
575,0.0122765059135017
576,0.0123469039795361
577,0.0124173020455704
578,0.0124877001116047
579,0.012558098177639
580,0.0126284962436734
581,0.0128065534290262
582,0.0127842544388001
583,0.0128870474204166
584,0.0127174431773079
585,0.0127321128217599
586,0.0124195806806434
587,0.0123604118210204
588,0.0122922650496149
589,0.0122241182782093
590,0.0121559715068037
591,0.0122267178683283
592,0.0123537591596993
593,0.0123489522620167
594,0.0124944291474016
595,0.0124386053669839
596,0.0124956975903075
597,0.0125109349683119
598,0.0124706759968237
599,0.0124808681122333
600,0.0125221706888586
601,0.0125871752248089
602,0.0126622933834903
603,0.0125177874590206
604,0.0126876894547768
605,0.0126342959929118
606,0.0126618658423313
607,0.0126365964733804
608,0.0125176243025519
609,0.0125533637727875
610,0.0125111341151212
611,0.0124599578454503
612,0.0123519207697283
613,0.0122729249108818
614,0.0121646534366557
615,0.0123280208513526
616,0.0121525438479186
617,0.012293843400846
618,0.0122655253247876
619,0.0123261311278666
620,0.0122905073617484
621,0.0123615897719315
622,0.0121014331743289
623,0.0120618120982353
624,0.0119885078222998
625,0.0119152035463642
626,0.0118418992704287
627,0.011795157498697
628,0.011777175461643
629,0.0117653102987925
630,0.0119286199445789
631,0.0117902785314551
632,0.0119118162787225
633,0.011985944435945
634,0.0120691766114211
635,0.0121292902330821
636,0.0120567450574257
637,0.0122315876229736
638,0.0121279297932476
639,0.012239571094251
640,0.0121935357183036
641,0.0122090034614115
642,0.0121710011787178
643,0.0121410143764995
644,0.0121110275742812
645,0.0120810407720629
646,0.0122320628575572
647,0.0122926137514535
648,0.0121401323570116
649,0.0123448727950648
650,0.0121914551416892
651,0.012283292194858
652,0.0121628986138883
653,0.0119755062689026
654,0.0117575892792932
655,0.0118939129961206
656,0.0117922927097943
657,0.0119076005248592
658,0.012041214138297
659,0.0123331365449992
660,0.0124459667574327
661,0.0124468643975848
662,0.0125398066310136
663,0.0124812354118544
664,0.0123945768561548
665,0.0124555064231678
666,0.0125260949679301
667,0.0125252977310229
668,0.0126435647755311
669,0.0123704432277754
670,0.0124846300558926
671,0.0124684993556647
672,0.0124854224948182
673,0.0125145420345436
674,0.0126018105339458
675,0.0126049240931602
676,0.0126112540745115
677,0.0127343203252021
678,0.0126301190919303
679,0.0125621363684844
680,0.0129545122560222
681,0.0127624486489362
682,0.0124203140234576
683,0.0121837204912046
684,0.0116539188396598
685,0.0112758097132541
686,0.0109753270618819
687,0.0107889291419433
688,0.0108583682699607
689,0.0111036331641194
690,0.0115459178423457
691,0.0120402509299291
692,0.0123646409029618
693,0.0126280589366463
694,0.0129704485013228
695,0.0130084380555944
696,0.0133143072864681
697,0.0134466483465874
698,0.013355955803556
699,0.0135252744083538
700,0.013784712474734
701,0.0138151523983107
702,0.014071310132975
703,0.0141253570252591
704,0.0143574911807817
705,0.0143972817565488
706,0.0146892785359633
707,0.0148472036295466
708,0.0148891086739309
709,0.0150905674614087
710,0.0150126553323965
711,0.0150624994212025
712,0.0151868388871411
713,0.0148469763152917
714,0.0147669417403759
715,0.0143390781874185
716,0.014037689288153
717,0.0138643084871013
718,0.0138444893094468
719,0.0140115647114055
720,0.0141426597654739
721,0.0140858199211844
722,0.0145234015168784
723,0.014562445360728
724,0.0145793461899281
725,0.0146448763413032
726,0.0146858961912395
727,0.0149109727221995
728,0.0150816034145153
729,0.0153382368344387
730,0.0155164909281481
731,0.0158073211412741
732,0.0161442262796051
733,0.0164126808206991
734,0.0166269750898288
735,0.0166048381986863
736,0.016860269930408
737,0.0169035009868042
738,0.0169467320432005
739,0.0169899630995967
740,0.0171944669961314
741,0.0172202548869883
742,0.0173255535039935
743,0.0174308521209987
744,0.0175361507380038
745,0.0175802846292044
746,0.0175273861463267
747,0.0176258886887875
748,0.0174917583727476
749,0.0175828360552682
750,0.0175933852039987
751,0.0175265150380202
752,0.0178675055361528
753,0.017663297999529
754,0.0173382462279925
755,0.0159334582350287
756,0.0145286702420649
757,0.013123882249101
758,0.0110436209759698
759,0.00918786657352113
760,0.0081111213624631
761,0.00798998057382113
762,0.00842590855217906
763,0.00951765716529483
764,0.0109152230850933
765,0.012225529114678
766,0.0137960407720721
767,0.0152405032501989
768,0.0160883701328096
769,0.0166602736309265
770,0.0172391627730627
771,0.017380726668771
772,0.0176446695249599
773,0.0179577893696358
774,0.017793874160259
775,0.0179280804228307
776,0.0179933143044242
777,0.0178178065264299
778,0.0180864229761557
779,0.0178413850209937
780,0.0181693078719822
