"wavelength","measurement"
380,0.0136210877820832
381,0.0131486476518914
382,0.0128858662495304
383,0.0126374192237838
384,0.0125272938171756
385,0.0131745022885967
386,0.013777620418773
387,0.0141728249390747
388,0.0147166813643094
389,0.0150119485291814
390,0.0148814316137048
391,0.0147443661345428
392,0.0145815674680653
393,0.014716858525011
394,0.0149056822593347
395,0.0156528603636629
396,0.0171261191178923
397,0.0188690439558891
398,0.0206119687938858
399,0.0223548936318825
400,0.0232698502859605
401,0.0243648894776986
402,0.0249999698318685
403,0.0250336507254019
404,0.02503370757846
405,0.0248338911035476
406,0.0249999427306629
407,0.0250053087255544
408,0.0251484193776103
409,0.0255142608784222
410,0.0264232198701834
411,0.0264457165895939
412,0.0270584055324446
413,0.0274712208194743
414,0.0273408186166059
415,0.02751629373473
416,0.0272493743796299
417,0.026926229063098
418,0.0274313111210703
419,0.0269050735270395
420,0.0274481814496234
421,0.0273014299908513
422,0.027536579907682
423,0.027615164444907
424,0.0276744093726746
425,0.0270632201294811
426,0.0268266439176942
427,0.0260763076987863
428,0.0252244587132278
429,0.0252978582813921
430,0.025220201610073
431,0.02611622912382
432,0.027058992266594
433,0.0278391877555531
434,0.0289911407289348
435,0.029558432489943
436,0.0297430237323827
437,0.0301633182367852
438,0.0305836127411877
439,0.0310039072455901
440,0.0309857191930577
441,0.031534434275114
442,0.0321264685473325
443,0.0322939176465721
444,0.0327026455955523
445,0.0331113735445326
446,0.0335201014935127
447,0.0338497573733106
448,0.0339688913491993
449,0.0352037149890365
450,0.0348496777543454
451,0.0344860714651564
452,0.0343411574943805
453,0.0341962435236047
454,0.0340513295528289
455,0.0340276343511464
456,0.0339993448874049
457,0.0343067401960931
458,0.0344559819289463
459,0.0349349884286904
460,0.0348914215940217
461,0.0343835710413876
462,0.0353110235423481
463,0.0343447517155083
464,0.0338278132313178
465,0.0336730541818903
466,0.0331109187396329
467,0.032988859255593
468,0.032664392240404
469,0.0324549636369309
470,0.0329851613191683
471,0.0328521519333214
472,0.0329671599281795
473,0.0333313624361968
474,0.0332501688687753
475,0.0336114092875488
476,0.0328628610014602
477,0.0328692213892134
478,0.0328755817769665
479,0.0328819421647196
480,0.0328242306340998
481,0.0320740514460155
482,0.0314982358232035
483,0.031287085739369
484,0.0304669182040706
485,0.0299170214971791
486,0.0301168247876732
487,0.0303369294810621
488,0.0306490546679849
489,0.0314176401234042
490,0.0315392594221279
491,0.0318644859973462
492,0.032494908464523
493,0.0321558994675604
494,0.0325952755012198
495,0.0321428164372347
496,0.0321755310484943
497,0.0316640271721206
498,0.0317933180951904
499,0.0310713991431795
500,0.0311738974417612
501,0.0308050768582328
502,0.0312734334995293
503,0.0313899566771181
504,0.0310817448410086
505,0.0319908780688716
506,0.0319130772982724
507,0.0321107565204704
508,0.0322999705053855
509,0.0324176401492976
510,0.0319721724079215
511,0.0323942769477838
512,0.0322091197403099
513,0.031378962863669
514,0.031246769020305
515,0.0307494585164208
516,0.0306725802942659
517,0.0305774413196161
518,0.0305854963605258
519,0.0313192360735689
520,0.0319127026595425
521,0.0323010841857395
522,0.0326894657119366
523,0.0330778472381336
524,0.0329831550977273
525,0.0330544951391422
526,0.0332969139547017
527,0.0331166083008769
528,0.0333257197928073
529,0.033849334616432
530,0.0338789018964192
531,0.0339669675669532
532,0.0339087421095842
533,0.0342705077479748
534,0.0343562152077385
535,0.034084580083439
536,0.0343576830432005
537,0.0341589912445855
538,0.0338641217401812
539,0.033662992808924
540,0.0338171612398457
541,0.0335547092428225
542,0.0333430108677989
543,0.0335209539396258
544,0.0336797927647973
545,0.0335250768147001
546,0.0337848988236755
547,0.0337709946852481
548,0.0337570905468207
549,0.0337431864083932
550,0.0335753630151007
551,0.0338787049658112
552,0.0341455089859195
553,0.0338555443157679
554,0.0336738560166584
555,0.0340056527541803
556,0.0335242850604383
557,0.0334084751795258
558,0.033170421429971
559,0.0328382126934911
560,0.033214333123543
561,0.0325165219606413
562,0.0330612084121576
563,0.0324927624596514
564,0.0325249995414641
565,0.031961478626599
566,0.0316272280358363
567,0.031132528384045
568,0.0311047688645288
569,0.030645606069693
570,0.0304763988765041
571,0.0304492068086704
572,0.0303453663413148
573,0.0302099742864544
574,0.0303643572115802
575,0.0298940343928645
576,0.0300264370543209
577,0.0301588397157773
578,0.0302912423772337
579,0.03042364503869
580,0.0305560477001464
581,0.0310481131132255
582,0.0308670502778918
583,0.0310194334401517
584,0.0303689775133159
585,0.0300650094788043
586,0.0289609185320328
587,0.0282638143853214
588,0.0277474345545558
589,0.0272310547237902
590,0.0267146748930246
591,0.0268013614964479
592,0.0271660681263989
593,0.0272169251109794
594,0.0277275413486806
595,0.0277990458303005
596,0.028149231233469
597,0.0284940523717382
598,0.0286779027056021
599,0.0288744573110585
600,0.029268872124996
601,0.0295273777412045
602,0.0297112948810188
603,0.0296663511560103
604,0.0299728325488248
605,0.0298014367974102
606,0.0298196752979192
607,0.0296561940168724
608,0.0293045334727215
609,0.029291297575544
610,0.0290343086304694
611,0.0288573697988194
612,0.0285901070935895
613,0.0284735681401447
614,0.0281088546299073
615,0.0284236938179584
616,0.0280414342616407
617,0.028263286311384
618,0.0281731000156426
619,0.0282529198330395
620,0.0281113989933836
621,0.0282266049935228
622,0.0276472678293621
623,0.0274903226000141
624,0.0271411734572366
625,0.0267920243144591
626,0.0264428751716816
627,0.0263045438470752
628,0.026190378586214
629,0.0261450456671461
630,0.0264001275164737
631,0.0262085369059402
632,0.0263991672680246
633,0.0267146462018636
634,0.0268804412249569
635,0.0270977940752499
636,0.0269010226469411
637,0.0271758829573235
638,0.0270984651690972
639,0.0272071664430344
640,0.0270690259839808
641,0.026992431883182
642,0.026726855295197
643,0.0263656721222779
644,0.0260044889493588
645,0.0256433057764398
646,0.0255868237763342
647,0.02545774898564
648,0.0249002091219963
649,0.0253630809997457
650,0.0251938138972934
651,0.0254323815579194
652,0.0251143321016797
653,0.0248272155543259
654,0.0244387055520811
655,0.0247811406877707
656,0.0245241362838353
657,0.0250095440570572
658,0.0253251967560554
659,0.0260548081558007
660,0.0263278072920319
661,0.026507715595733
662,0.0265773879130147
663,0.02648777051737
664,0.0263274884085912
665,0.0265090784944678
666,0.0265208966051787
667,0.0265695809136536
668,0.0266223681630531
669,0.026086390099601
670,0.0262341614315758
671,0.0261585475102933
672,0.0260686742026672
673,0.0261644181470609
674,0.0262193947083259
675,0.026196148511124
676,0.0261913386179959
677,0.0263955135417952
678,0.0260602060154504
679,0.0260561632107018
680,0.0266377109269196
681,0.0261999338569504
682,0.0254808729370879
683,0.0247136098441761
684,0.0236300461630344
685,0.0226747234117445
686,0.0218634234485428
687,0.0211924089694362
688,0.0210479430435291
689,0.0211759943778667
690,0.0216338517049531
691,0.0221950507145076
692,0.0225171215858544
693,0.0228430895810006
694,0.0234929254786868
695,0.0237203290313779
696,0.0243566620836262
697,0.0247150907618564
698,0.0245284142126503
699,0.0248066082205957
700,0.025459572455689
701,0.0256551948349719
702,0.0263133569162957
703,0.0268075297401979
704,0.0276710305468644
705,0.0281036175226566
706,0.0288843877119424
707,0.0295211589328913
708,0.030040026963275
709,0.0307080587791961
710,0.0307635015731568
711,0.0310505892850061
712,0.0311163428836482
713,0.029745971168035
714,0.0287737772019747
715,0.0269611908574587
716,0.0252457534425743
717,0.0244281483845961
718,0.0242371507964817
719,0.0247010751173706
720,0.0253758115737659
721,0.0255935447133326
722,0.0264532018379778
723,0.0264932184104992
724,0.0265994053166617
725,0.0269127686755073
726,0.0271354772817248
727,0.0280990174151122
728,0.0291214463015768
729,0.0305971758340248
730,0.0323274946007752
731,0.0343555762021806
732,0.0364741125183418
733,0.038481384409787
734,0.0400411528138208
735,0.0411285270922425
736,0.0425895624273002
737,0.0438250893412068
738,0.0450606162551133
739,0.0462961431690199
740,0.0479967035105308
741,0.0490443337972193
742,0.0500262282697044
743,0.0510081227421895
744,0.0519900172146746
745,0.052553440631334
746,0.052988371786492
747,0.0536524404631646
748,0.0533585072629643
749,0.0539161135681941
750,0.0542369715908559
751,0.054206745202761
752,0.0550846650289418
753,0.0548072250600744
754,0.0539745406420466
755,0.0496895517448359
756,0.0454045628476251
757,0.0411195739504144
758,0.0343421238502201
759,0.0280110140037884
760,0.0238750398153903
761,0.0226290282315689
762,0.0235333335874631
763,0.0263235740682558
764,0.0305705701730768
765,0.0349776609601876
766,0.0401540405191911
767,0.044986981064315
768,0.0483656572837417
769,0.0506023321963379
770,0.0525408878719663
771,0.0535714323431905
772,0.054468207756174
773,0.0554557321292975
774,0.0551273662844429
775,0.0554236954429811
776,0.0555517060809001
777,0.0550755597347976
778,0.0557320594805919
779,0.0551073128284274
780,0.0557379844338299
