"wavelength","measurement"
380,0.00893159258158031
381,0.00856927469226152
382,0.00844179281398754
383,0.00830044156525158
384,0.00832075004298081
385,0.00877868585973947
386,0.00916416063985204
387,0.00960539741780839
388,0.00997247482363751
389,0.0101890100193537
390,0.0101592911963861
391,0.0100376257829191
392,0.0101210665384752
393,0.0101902975892867
394,0.0104600993942202
395,0.0110502484123886
396,0.0122162649499189
397,0.0135388004765449
398,0.0148613360031709
399,0.0161838715297968
400,0.0169022609617374
401,0.0178165573671604
402,0.0183913070063478
403,0.0185724200834096
404,0.0186035005002885
405,0.0185584913956566
406,0.0189360847932975
407,0.0190220569932984
408,0.0191349356045369
409,0.0194530761090544
410,0.0203207792939626
411,0.0203713787203403
412,0.0209146669991477
413,0.0213856283319968
414,0.0214188701302815
415,0.0216776628139909
416,0.0215095116704734
417,0.0214430859031362
418,0.0218160427698358
419,0.0214376387732947
420,0.0220322958004078
421,0.022023388605131
422,0.0222215744743252
423,0.0224073131084927
424,0.0224760095235518
425,0.0221013240160278
426,0.0218597203337125
427,0.0213380556672561
428,0.0207321342675364
429,0.020724045991727
430,0.0208026424091727
431,0.0215612323553902
432,0.0223649095579955
433,0.0230818807361534
434,0.0240265502609723
435,0.0245244598890733
436,0.0246980951109561
437,0.0250672798905249
438,0.0254364646700937
439,0.0258056494496626
440,0.0259347313870697
441,0.0262556026876629
442,0.0267849634670941
443,0.0269585201694609
444,0.0272989843617853
445,0.0276394485541098
446,0.0279799127464343
447,0.0283231610145544
448,0.028346231550124
449,0.0292854425566241
450,0.0290030909242663
451,0.0287516982913503
452,0.0286100935927139
453,0.0284684888940774
454,0.0283268841954409
455,0.0283157869598061
456,0.0283067566139586
457,0.0284635115256118
458,0.0286611607641681
459,0.0290412608599261
460,0.0289865635717163
461,0.0286885915414001
462,0.0294079170096581
463,0.0285532260894769
464,0.0282362934222507
465,0.0279886948365971
466,0.0276252744494577
467,0.0275580120187427
468,0.0272725699392934
469,0.0270633220508753
470,0.0275334888051122
471,0.0274789038518367
472,0.0275885672544117
473,0.0278199360314261
474,0.0278701096717822
475,0.0281723986197601
476,0.027502820281945
477,0.0274999886693848
478,0.0274971570568245
479,0.0274943254442642
480,0.0274291497454181
481,0.0267595668936134
482,0.026258903045086
483,0.026121378705728
484,0.0254503084025425
485,0.0249010473537384
486,0.0251430325172538
487,0.0253035084525035
488,0.0255168008879203
489,0.0261156855290968
490,0.0262532757040832
491,0.0264164998894333
492,0.0269952958479627
493,0.0266540542956724
494,0.0270412846650001
495,0.0266772990799913
496,0.0267570450833532
497,0.0262410422326747
498,0.0263578940332277
499,0.0257729606351268
500,0.0258746309265568
501,0.0256140741651654
502,0.0259844659766926
503,0.026078131633945
504,0.0257583658228615
505,0.0265182680257341
506,0.026422955166253
507,0.026540779402197
508,0.0266982086834197
509,0.0267383327912542
510,0.0263241957032491
511,0.0266973899363169
512,0.0265014595891171
513,0.025730989634596
514,0.0256556113321015
515,0.0252560979003168
516,0.0250826325155252
517,0.0250695879825357
518,0.0250275352753474
519,0.0255284478970356
520,0.0259830481983589
521,0.0262524171792505
522,0.0265217861601422
523,0.0267911551410338
524,0.0266798024662343
525,0.0267159210208262
526,0.0268348724472049
527,0.0267019024680003
528,0.0268828325643935
529,0.0272464075588714
530,0.0272562710468227
531,0.0272780058926493
532,0.0272261472477916
533,0.0274491790924154
534,0.0275851238877799
535,0.027306637245972
536,0.0275260116498122
537,0.0273881180393025
538,0.0271701422349226
539,0.0269819459489414
540,0.0271559600937335
541,0.0269361693445441
542,0.0268094939172237
543,0.0269108088148254
544,0.0270695096776325
545,0.0269146198776244
546,0.0271350068948006
547,0.0271432752449994
548,0.0271515435951983
549,0.0271598119453971
550,0.0269552802864286
551,0.027183320486556
552,0.027427076302783
553,0.027162151185921
554,0.0270737001795068
555,0.0273307345115657
556,0.0269478204225466
557,0.026874258447403
558,0.026712737214574
559,0.0264792664753859
560,0.0267657979237898
561,0.0263156598491063
562,0.0267284660967078
563,0.0263200896329383
564,0.0264098843210404
565,0.0259831366586134
566,0.0257341389576927
567,0.0254265374691456
568,0.0255327977417242
569,0.0251502957937102
570,0.025049974349925
571,0.0250827024535222
572,0.0250375721332123
573,0.0249818903266865
574,0.0251169487005211
575,0.0247791468007881
576,0.0248839692398732
577,0.0249887916789582
578,0.0250936141180433
579,0.0251984365571283
580,0.0253032589962134
581,0.0256500673235326
582,0.0255024211534596
583,0.0256479346916601
584,0.0251521456602674
585,0.0249200266194122
586,0.024103161048049
587,0.0235760953896317
588,0.0232139405882095
589,0.0228517857867872
590,0.022489630985365
591,0.022545442956686
592,0.0228278461978067
593,0.022894872490676
594,0.0233469450652483
595,0.0233687604080463
596,0.0236294007610908
597,0.0238718040162765
598,0.0240115922820597
599,0.0241119115257723
600,0.0244338860430647
601,0.0246154504958295
602,0.024782571807512
603,0.0247456043722761
604,0.0249626546710673
605,0.0248419536001198
606,0.0248636502038946
607,0.0247290592776103
608,0.0244360262051235
609,0.0244590050598956
610,0.0242735114540176
611,0.0241400804610927
612,0.0239042466393491
613,0.0238428557316003
614,0.0235854093557991
615,0.0238190283998301
616,0.0235832651720466
617,0.0237532223796779
618,0.0236908258728224
619,0.0237825551873376
620,0.0236591146523459
621,0.0237844533527386
622,0.0233286704417626
623,0.023228358615782
624,0.02299397030061
625,0.0227595819854379
626,0.0225251936702659
627,0.0223907154466682
628,0.022300986018981
629,0.0222536901355232
630,0.02251649774663
631,0.0222909402996529
632,0.0224769002847064
633,0.0226706395145931
634,0.0227790065505462
635,0.0229366755066364
636,0.0228002727247171
637,0.0230540325702469
638,0.0229293373540587
639,0.0230636343446175
640,0.0229227561192997
641,0.0228826503759652
642,0.0227308915606959
643,0.0224563745991599
644,0.0221818576376239
645,0.0219073406760879
646,0.0219305821208436
647,0.0217935667628595
648,0.0213602883480405
649,0.0217558046895207
650,0.0215983619971025
651,0.0217659537586602
652,0.021575490984328
653,0.0212676350067086
654,0.0209289014944208
655,0.0211770758117103
656,0.0210526711209061
657,0.0213768483449779
658,0.0216413211552792
659,0.0222725439012541
660,0.022478051488147
661,0.0226193507218378
662,0.0227388400378883
663,0.0226190376101987
664,0.0225418395396697
665,0.0226525239741865
666,0.0226685825266048
667,0.0227273423372818
668,0.0227886724844348
669,0.0223606631678122
670,0.0224829233146822
671,0.0224276809580129
672,0.0223486845273765
673,0.0224258833249642
674,0.0224840255403431
675,0.0224771386712459
676,0.0224513282627451
677,0.0225957927442335
678,0.0223499886829881
679,0.0223316984673598
680,0.0227756566221335
681,0.0224263761330741
682,0.0218381123263491
683,0.02129900945226
684,0.020377137174751
685,0.0196297724091799
686,0.0189677804343188
687,0.0184342129701246
688,0.0182641313331646
689,0.0183689003966492
690,0.0187171321488645
691,0.0191287145931659
692,0.0193092146199808
693,0.0195752964372701
694,0.0200077035021648
695,0.0201229370820463
696,0.0205805516642792
697,0.0207462667187446
698,0.0205629319198899
699,0.0206757026948301
700,0.0211269887723877
701,0.0212028821685148
702,0.0217135869037828
703,0.0219619704777389
704,0.0225291394279384
705,0.0227571594116681
706,0.02328991428867
707,0.0237550603131691
708,0.0239593251791868
709,0.02448376150306
710,0.0243919737376583
711,0.0244851964125564
712,0.0245116300779872
713,0.0233420290266768
714,0.0225826347698503
715,0.0210950794043316
716,0.0197796058638575
717,0.0190150320711797
718,0.0188077372869136
719,0.0190758221457882
720,0.0194835338092889
721,0.0195225869076426
722,0.0201243643757214
723,0.0200938775961712
724,0.0201316273590584
725,0.0202740951293056
726,0.0203661414082374
727,0.020936030294917
728,0.0216163847032777
729,0.0226012735750062
730,0.0237142591103394
731,0.0251150116489868
732,0.0264357125912007
733,0.027798361636367
734,0.028823439350945
735,0.0295174058576928
736,0.0303719121331129
737,0.0311268221537879
738,0.031881732174463
739,0.032636642195138
740,0.033775745653724
741,0.0343962021669304
742,0.0349961075408407
743,0.035596012914751
744,0.0361959182886614
745,0.0365314306921237
746,0.0367368169569321
747,0.037196510489858
748,0.0369249401506998
749,0.037288987252176
750,0.0374691524506341
751,0.0373964756680809
752,0.0379916979907587
753,0.0377747408973343
754,0.037271959190383
755,0.0344007232492203
756,0.0315294873080577
757,0.0286582513668951
758,0.0240079898783018
759,0.0197639497945289
760,0.0169118749973395
761,0.0161207298933507
762,0.0167574146565773
763,0.0186997974999426
764,0.0216053116392012
765,0.0246065916262106
766,0.0280672040121786
767,0.0314901974277486
768,0.033562389132854
769,0.0351166052048706
770,0.0364392535785981
771,0.0370093963753166
772,0.0376227748262135
773,0.0382304343044534
774,0.0380802291926923
775,0.0382351000736038
776,0.0384463234293761
777,0.0380613843619398
778,0.0385852173572232
779,0.0381117282796003
780,0.0385953371131746
