"wavelength","measurement"
380,0.0104525816751238
381,0.0100704979736598
382,0.00987724941590415
383,0.0096966142110137
384,0.00966649210945743
385,0.0101550225770674
386,0.0106026843171251
387,0.0110210223966041
388,0.0115051879669565
389,0.0117270070904546
390,0.011605402466438
391,0.0114665366476318
392,0.0115020956528388
393,0.011557663287
394,0.0118091136871098
395,0.0123948754800522
396,0.0136733168702157
397,0.0150737599521513
398,0.0164742030340869
399,0.0178746461160225
400,0.0186453943251836
401,0.0196205137343056
402,0.0202201345430303
403,0.0202756573710904
404,0.0203333899722849
405,0.0201810763707443
406,0.0204812244517378
407,0.0205711829823951
408,0.020668866286012
409,0.0210650912852125
410,0.0219368149313463
411,0.0219764224817084
412,0.0225850495516447
413,0.0229904101356804
414,0.0230122167938256
415,0.0232604340661687
416,0.0230801491948947
417,0.0230150412079716
418,0.0233730197259891
419,0.0230082393366543
420,0.0236303001816869
421,0.0235652884625412
422,0.0237324390926809
423,0.0239137148059608
424,0.0239982430181291
425,0.0235803506629091
426,0.0233435825822612
427,0.0227749791303783
428,0.0220699638313616
429,0.0220358601355611
430,0.0221193562630574
431,0.0229569362668026
432,0.0237820206949311
433,0.0245028523711961
434,0.025556296730585
435,0.0260202763284438
436,0.0261941293477548
437,0.0266013711511389
438,0.0270086129545229
439,0.027415854757907
440,0.0275099689404735
441,0.0278993133748308
442,0.0284354822963597
443,0.0286248744917761
444,0.0289910070833208
445,0.0293571396748655
446,0.0297232722664102
447,0.0300964794464262
448,0.0301671126312411
449,0.0311271008213622
450,0.0308876996779462
451,0.0305747352891618
452,0.0304510016987155
453,0.0303272681082692
454,0.0302035345178229
455,0.0302031145165113
456,0.0301468855243913
457,0.0304885803101065
458,0.0305541390781129
459,0.0309965258192945
460,0.031011416124388
461,0.030619580197738
462,0.0314071228881733
463,0.0305237866334463
464,0.0301812903684962
465,0.0299526743943169
466,0.0295498280702945
467,0.0294427455897696
468,0.029179527094018
469,0.0289554560973461
470,0.0294673422103795
471,0.0294091783086121
472,0.0295419161835487
473,0.0298165320672689
474,0.0298449952924678
475,0.0302313562163473
476,0.0295141508573811
477,0.0295036830425132
478,0.0294932152276454
479,0.0294827474127775
480,0.0294141563848796
481,0.028752665545022
482,0.028221880927394
483,0.0280368187406576
484,0.0273662190232753
485,0.0267726153673291
486,0.0270051749662032
487,0.0272075900443356
488,0.0274055641662657
489,0.0281128851972524
490,0.0281995291401374
491,0.02840604886853
492,0.0290194831696759
493,0.0286286707498438
494,0.0290585417905907
495,0.0286147026341014
496,0.0287125758513237
497,0.0281922054942611
498,0.0283151253881824
499,0.0277132080660415
500,0.027806648772119
501,0.0275456341437664
502,0.0279132213508777
503,0.0280184477249029
504,0.0276664891425872
505,0.028463536008268
506,0.0283489045538149
507,0.0284778705771622
508,0.0286133283157024
509,0.0286765271757389
510,0.0282037142059221
511,0.0285734309882621
512,0.0283947211812778
513,0.0275903436922003
514,0.0274688037859502
515,0.0270221191971952
516,0.0268775517717455
517,0.0268449920730627
518,0.0267473548134127
519,0.0272845064951967
520,0.027739204451449
521,0.028016186914715
522,0.0282931693779809
523,0.0285701518412469
524,0.0284420248165127
525,0.0284475697949402
526,0.0286288690612479
527,0.0284635356268109
528,0.0285973578399859
529,0.0289874054497934
530,0.0289646352451275
531,0.0290196952506961
532,0.0289682492683498
533,0.0292332206208426
534,0.0293077370231134
535,0.0290055859633546
536,0.0292808714275452
537,0.0291007187015866
538,0.028896020628028
539,0.0287025484961784
540,0.0288489131186643
541,0.0286433152921723
542,0.0284445353370065
543,0.0286257011660133
544,0.0287508522950732
545,0.0286358910549548
546,0.0288334468860418
547,0.0288433389969328
548,0.0288532311078238
549,0.0288631232187149
550,0.0286699332134157
551,0.0288734222856196
552,0.0291646685718709
553,0.0288701679417727
554,0.0287839270587741
555,0.0290860832303132
556,0.0286588210759272
557,0.028596708583795
558,0.0284324992758446
559,0.0282108137947417
560,0.0285126663661361
561,0.0280576733781604
562,0.0284580703043903
563,0.0280147595718263
564,0.0281744880034184
565,0.0277074172189027
566,0.0274914920751639
567,0.0271491621372114
568,0.0272239227995642
569,0.0268849746428398
570,0.0267833534046385
571,0.0268389152557878
572,0.0267845308697475
573,0.0267380874222702
574,0.0268854536164088
575,0.0265249650549754
576,0.0266419279254968
577,0.0267588907960182
578,0.0268758536665397
579,0.0269928165370611
580,0.0271097794075825
581,0.0275031988401279
582,0.027345681730164
583,0.0275436236153684
584,0.0270135907985383
585,0.0267606242928302
586,0.0259208472000188
587,0.0253777110773169
588,0.0249999978444473
589,0.0246222846115777
590,0.0242445713787081
591,0.0243106989606771
592,0.0246249083172503
593,0.0246942884551103
594,0.0251831526035726
595,0.0252141777406305
596,0.0254782161860838
597,0.0257319869131431
598,0.0258883066608275
599,0.0260284691071654
600,0.0263223203977427
601,0.0265484035466149
602,0.0267041328498563
603,0.0266655366293134
604,0.0269279009360602
605,0.0267894066241716
606,0.0268356951662871
607,0.0266953867006647
608,0.0263889159190418
609,0.0264164958897716
610,0.0262071767330153
611,0.0260731210897151
612,0.0258399280997782
613,0.0257341468258541
614,0.0255120627080923
615,0.0258119847200625
616,0.0254911002937754
617,0.0257241016311361
618,0.0256440012494476
619,0.0257573581250892
620,0.0256614866800828
621,0.0257770814366839
622,0.025269685153896
623,0.0251384796639662
624,0.024905925911508
625,0.0246733721590499
626,0.0244408184065917
627,0.0243112948609308
628,0.024236793692593
629,0.0241463139876533
630,0.0244753753610264
631,0.0241815309330963
632,0.0244238433909395
633,0.0246542316263967
634,0.0247389762810608
635,0.024929500230487
636,0.024783520055216
637,0.0250383772523193
638,0.0249621796888384
639,0.0250903557648405
640,0.0249920783100256
641,0.0248825996513947
642,0.0247534588488655
643,0.0244798005353787
644,0.0242061422218918
645,0.023932483908405
646,0.0239318058819741
647,0.0237946573049947
648,0.0233228459010527
649,0.0237747019530607
650,0.0235860846614605
651,0.0238063963248901
652,0.0235668683368856
653,0.0232690420693177
654,0.0229000657117501
655,0.0232060737561924
656,0.0230225700570371
657,0.0233693088749078
658,0.0236865087435766
659,0.0243688139938076
660,0.0246119837564488
661,0.0247584109690419
662,0.024896107279548
663,0.024792868699238
664,0.0246849195389067
665,0.0248085479770187
666,0.0248662883462477
667,0.024897357285645
668,0.0249404212088304
669,0.0245320207688838
670,0.0246431104573155
671,0.0245797683589615
672,0.0244943827497582
673,0.0245933208807027
674,0.024654756779375
675,0.0246629637506098
676,0.024639687463527
677,0.0248044322600064
678,0.0245091889436517
679,0.0244973352932538
680,0.0250398045835086
681,0.0246124614047903
682,0.0239624173640671
683,0.0233821616931361
684,0.0223685435377579
685,0.021529419978708
686,0.0207661193650118
687,0.0202089914814965
688,0.0200259763122339
689,0.0201026197090407
690,0.0204807701691468
691,0.0209156530047766
692,0.0211103039594589
693,0.0213457618060897
694,0.0217829538598991
695,0.0218807252370214
696,0.0223782511947005
697,0.0225668788767853
698,0.0223092686878124
699,0.0224425783228036
700,0.0228994713998661
701,0.0228920875637201
702,0.0234291840103698
703,0.0236752926801953
704,0.0242973168012636
705,0.0244493586860395
706,0.0250414389248829
707,0.0254913185738017
708,0.0257080460213794
709,0.0262101519894311
710,0.0260917268278472
711,0.0261864216679867
712,0.0261695006664466
713,0.0249026437245402
714,0.0240903924092665
715,0.022493971383294
716,0.0210796183938878
717,0.020268470058457
718,0.020059700209092
719,0.0203064764698168
720,0.0207432278300181
721,0.0207349311655273
722,0.0213617991915549
723,0.0212904949464727
724,0.021302225310544
725,0.0215001005631343
726,0.0215756005702282
727,0.0221767547132379
728,0.0228465925095372
729,0.0238969078086037
730,0.0249984172048893
731,0.0264728929358018
732,0.0278268759532227
733,0.0292611684716745
734,0.0303287117644948
735,0.0310376907144889
736,0.0319091834749694
737,0.0326871640599545
738,0.0334651446449395
739,0.0342431252299246
740,0.0354084360088315
741,0.0359876230681857
742,0.0366031286202069
743,0.0372186341722282
744,0.0378341397242494
745,0.0382086522470712
746,0.0384286653534542
747,0.0388118348047945
748,0.0385692892768326
749,0.0389578526911368
750,0.0391061702490046
751,0.0390441918308944
752,0.0396926753483044
753,0.03944855870788
754,0.0388936974629417
755,0.0359131316517201
756,0.0329325658404985
757,0.029952000029277
758,0.0251500713340636
759,0.0207433953234279
760,0.0177780724257505
761,0.016957166980178
762,0.0176559473926922
763,0.0196934038365264
764,0.0226670796130861
765,0.0257873125812969
766,0.029388657909813
767,0.0329403686250452
768,0.0351080383508443
769,0.0366576179729179
770,0.0380223545566461
771,0.0386377210979863
772,0.0392827884318783
773,0.0399081902100126
774,0.0397829357093177
775,0.0398728850024847
776,0.0400843233566037
777,0.0396660727910969
778,0.0402187077952752
779,0.0397700428884908
780,0.0403169019597422
