"wavelength","measurement"
380,0.000984147451509055
381,0.000957231973801041
382,0.00101663770945135
383,0.000991037905607793
384,0.00102376897855313
385,0.00110248058558402
386,0.00118454859726954
387,0.00129937614818242
388,0.00132995732683136
389,0.00140918720140805
390,0.0014126859842189
391,0.00143902719384326
392,0.00144534431332302
393,0.00151769766029023
394,0.00158118453545696
395,0.00169389908583035
396,0.00189231375463831
397,0.00212922982864071
398,0.00236614590264312
399,0.00260306197664552
400,0.00279149863250941
401,0.00295793386061472
402,0.00310432065884994
403,0.00320748400451408
404,0.00325767616634626
405,0.00329855000114607
406,0.00345217836844385
407,0.00349140673339557
408,0.00361920245172196
409,0.00372292124331457
410,0.00396398472409929
411,0.00401312719923003
412,0.00415979920817427
413,0.00432137533335176
414,0.00433797089521263
415,0.00444020774519046
416,0.00443242673346214
417,0.00443753641178964
418,0.00452766025804377
419,0.00447420250131562
420,0.00459999693729941
421,0.00460245043837693
422,0.00469443490536701
423,0.0047460415384605
424,0.00478315500135678
425,0.00471189896564907
426,0.00467875948389945
427,0.00458895670247841
428,0.0044538345260803
429,0.00445140654642816
430,0.00447699927133556
431,0.00468388118970869
432,0.00483551731288019
433,0.00501146476700376
434,0.00522544763487579
435,0.00535482494808081
436,0.00541264157705871
437,0.00551054359274791
438,0.00560844560843711
439,0.00570634762412631
440,0.00575824897636989
441,0.00588990454603219
442,0.00604835718022598
443,0.00612570495156119
444,0.00625590647954896
445,0.00638610800753672
446,0.00651630953552448
447,0.006666404661484
448,0.00668867507498621
449,0.00694907194923496
450,0.00693675768561047
451,0.00689221063500072
452,0.00688670457769954
453,0.00688119852039836
454,0.00687569246309718
455,0.00685352047573912
456,0.00684121235868573
457,0.00693735993200172
458,0.00698368759717883
459,0.00712192255677341
460,0.00714057454768301
461,0.00705165670396069
462,0.00723934878588819
463,0.0070638794455779
464,0.0069964543255942
465,0.0069491309756907
466,0.00686621978638632
467,0.00686435953306719
468,0.00682576083225312
469,0.00675999902552499
470,0.00691910370245666
471,0.00691523926599296
472,0.00696685003227149
473,0.0070469381713472
474,0.00706818668096329
475,0.00718023641535231
476,0.00702225698795781
477,0.00704495090368542
478,0.00706764481941303
479,0.00709033873514063
480,0.00707006445749618
481,0.00689153722682682
482,0.00678352499973159
483,0.00675718015329344
484,0.00661584419469069
485,0.00648358143571373
486,0.00655516061183032
487,0.00660008014919515
488,0.00669381956332051
489,0.00684012892494052
490,0.00691400836374987
491,0.00695082170044349
492,0.00713785247559581
493,0.00708441709147265
494,0.00717869376082005
495,0.00709752198184257
496,0.00712846481697387
497,0.00702890862599232
498,0.00706255935561256
499,0.0069390532377398
500,0.00698750480520223
501,0.00692818602757355
502,0.00704782303095678
503,0.00709598505833994
504,0.00702563392372182
505,0.0072617563338895
506,0.00724480096252848
507,0.00730312175559246
508,0.00735936623905367
509,0.00736632691241917
510,0.0072714500722513
511,0.00739357914511672
512,0.0073686884213737
513,0.00716042975154516
514,0.00713531190172043
515,0.00703241087990931
516,0.00701393285265719
517,0.00701231013613254
518,0.00701919104349081
519,0.00716542370998277
520,0.00729223347998448
521,0.00738485900665556
522,0.00747748453332663
523,0.0075701100599977
524,0.00754256916981709
525,0.0075891985284311
526,0.00762578207798271
527,0.00758300202762075
528,0.00765323527795674
529,0.00777821960111556
530,0.00776991883800752
531,0.0077869087364245
532,0.00776666215010885
533,0.0078412826840809
534,0.00788559379168776
535,0.00779152774774963
536,0.00786560245992781
537,0.00781381576285696
538,0.00776246929055381
539,0.00770906073201016
540,0.0077463981444735
541,0.00770809125921265
542,0.00766625254989143
543,0.00767847069361098
544,0.00774571190932236
545,0.00769418296566495
546,0.00774681642909292
547,0.00774067806962578
548,0.00773453971015864
549,0.0077284013506915
550,0.00765985036080634
551,0.00771777321470805
552,0.0077601221981851
553,0.00769188118218028
554,0.00768235706603016
555,0.00772313034788875
556,0.00762644413608025
557,0.00759594520293365
558,0.00755532967432197
559,0.00750068644443404
560,0.00757499232066805
561,0.00742165069831549
562,0.00753084405546938
563,0.00741415571719429
564,0.00743279144485689
565,0.00732006301117007
566,0.0072668790825076
567,0.00714118399938097
568,0.00719568234154246
569,0.00707983083728567
570,0.00705490965527611
571,0.00706492651626034
572,0.00705126664417797
573,0.00703414454420805
574,0.00707061535613788
575,0.00695492031627489
576,0.0069787279777566
577,0.00700253563923831
578,0.00702634330072003
579,0.00705015096220174
580,0.00707395862368345
581,0.00713980736368003
582,0.00709498491590015
583,0.00712713659694642
584,0.0069882489253523
585,0.00694153533504915
586,0.00669613950027698
587,0.00657208086502865
588,0.00647285040915317
589,0.00637361995327769
590,0.00627438949740222
591,0.00630612875050029
592,0.0063603848298814
593,0.00636648964097984
594,0.00644566371621942
595,0.00644151053088578
596,0.00649928151887537
597,0.0065531227460636
598,0.00656138168741813
599,0.00657281321572271
600,0.00663912963054352
601,0.00668142815966348
602,0.00672251086189034
603,0.00666670814066516
604,0.00671936252482728
605,0.00664962770967366
606,0.0066574558441943
607,0.00662936398273556
608,0.00653499937068654
609,0.00652212221070447
610,0.00646619535154619
611,0.0064223100760233
612,0.00634940479492346
613,0.00630707855143367
614,0.00620036982651556
615,0.00623707585786296
616,0.00617079305269705
617,0.00622454265036869
618,0.00619081612668879
619,0.00619835000442097
620,0.00615859753072375
621,0.00618195690227565
622,0.00603731453135007
623,0.00601318248570932
624,0.00594850061544014
625,0.00588381874517096
626,0.00581913687490179
627,0.00578567662057167
628,0.00574777409348842
629,0.00572280055665797
630,0.00576742337834712
631,0.00570129852714387
632,0.00571711003455708
633,0.0057673288532266
634,0.0057312552611075
635,0.00575686338011457
636,0.00571513469840051
637,0.00575345334188552
638,0.00568299917426256
639,0.00568988092548719
640,0.00564728828391134
641,0.005616778769245
642,0.00555781091889199
643,0.00548151501834578
644,0.00540521911779958
645,0.00532892321725338
646,0.00533704942043023
647,0.00526818055674015
648,0.00516528468289683
649,0.00525830498970231
650,0.00517622400193328
651,0.00519426187702308
652,0.00513582384479468
653,0.00504809766945131
654,0.00493066610103974
655,0.00499204731018362
656,0.00493710881293367
657,0.00498773054044742
658,0.00500991517765327
659,0.00515309969904073
660,0.00517900372723622
661,0.00518130321896744
662,0.0051847158356109
663,0.00514236983460896
664,0.00509726678889737
665,0.0051041769950451
666,0.00509099467439774
667,0.00506094418495873
668,0.00507010724811048
669,0.00496496594214933
670,0.00496162232201044
671,0.00493189433378617
672,0.00491604596283899
673,0.00492473373617287
674,0.0049175680451879
675,0.00489202115658992
676,0.00487860934361921
677,0.00489224925026481
678,0.00481044983060506
679,0.0047852837410411
680,0.00487182577200166
681,0.00478107470265715
682,0.00464921263109632
683,0.00455291338498195
684,0.00436511450563368
685,0.00421578214639858
686,0.00408020509357491
687,0.00402853328966968
688,0.00397469803650341
689,0.00396648398270601
690,0.004066187967709
691,0.00413674812924137
692,0.0041637417929543
693,0.00419000228904982
694,0.00430588728520996
695,0.00431963196145204
696,0.00444053697171917
697,0.00447258666750824
698,0.00441335685081941
699,0.00446286616915313
700,0.00456422933236017
701,0.00455759990360889
702,0.00466336115723058
703,0.0047034049062602
704,0.00484126667940682
705,0.00483682903496274
706,0.00495252171592405
707,0.00506024732955197
708,0.00507129468777632
709,0.00515338700088978
710,0.00511822586626356
711,0.00514484050709732
712,0.00513373796206963
713,0.00490516200077457
714,0.00477343563648212
715,0.00448388654430975
716,0.00424538745292915
717,0.00409305885323292
718,0.00406039781324747
719,0.0041042592772539
720,0.00416850737203679
721,0.00413129744141801
722,0.00423646708785112
723,0.00424987380846208
724,0.00422381604487625
725,0.00424081279217339
726,0.0042314109732347
727,0.00431819957910703
728,0.00444550363354333
729,0.00454412477972581
730,0.00474888062710483
731,0.00492985864549018
732,0.0051404772199858
733,0.005304231769491
734,0.00546999461079824
735,0.00555403614210837
736,0.00564106319394723
737,0.00571914345145578
738,0.00579722370896433
739,0.00587530396647289
740,0.00600553230682632
741,0.00606791191991131
742,0.00611562935983438
743,0.00616334679975745
744,0.00621106423968052
745,0.00624541882456008
746,0.00622854990820523
747,0.00626383162349806
748,0.00618726784396613
749,0.00620294166370961
750,0.00620248476451572
751,0.00613269781663135
752,0.00623173716257045
753,0.00609154873937751
754,0.00601560915588941
755,0.00556194929390757
756,0.00510828943192572
757,0.00465462956994388
758,0.00398543830573063
759,0.00336209064049511
760,0.00300485923443166
761,0.00290505673213654
762,0.00301082027662191
763,0.00325592331271021
764,0.00367150224458339
765,0.00402837852763311
766,0.00449609512628409
767,0.00493195504774807
768,0.00516659841559043
769,0.00535101218554456
770,0.00548190691381227
771,0.00554344348392787
772,0.00558288919024573
773,0.00566485184401788
774,0.00561271559419578
775,0.00559245680168519
776,0.00558870064342507
777,0.005517990020626
778,0.00557240420912542
779,0.00548300202043152
780,0.00553165329109646
