"wavelength","measurement"
380,0.0130053522762576
381,0.0125383235943048
382,0.0123355531596351
383,0.0120079262579134
384,0.0120611884723101
385,0.0126416645504281
386,0.0131261398792974
387,0.0136458494164349
388,0.0141379739454794
389,0.0144111964088067
390,0.0142877128253111
391,0.0140927911916274
392,0.0140937528150234
393,0.0140395712306492
394,0.0143218397109681
395,0.0150041007310762
396,0.0165821341102261
397,0.0182525066965471
398,0.0199228792828681
399,0.0215932518691891
400,0.0222827180765472
401,0.0234114998967859
402,0.0240320774201586
403,0.0241206624904773
404,0.0241195946011455
405,0.0240073032601109
406,0.0241451850628707
407,0.0242655753621951
408,0.0244319755712121
409,0.0247609166784374
410,0.0258353280649669
411,0.0257903740172127
412,0.0264254422669843
413,0.0269223123150933
414,0.0269076741769854
415,0.027297896645367
416,0.0269784626615853
417,0.0268827585314716
418,0.0273444308800311
419,0.0269244134793505
420,0.0275780168193167
421,0.0275977591571448
422,0.0277609501456265
423,0.0279732309458468
424,0.0280705261117567
425,0.0274628499767657
426,0.0272358364406352
427,0.0265736171812272
428,0.0257768294477793
429,0.0257792164632157
430,0.0258227279165377
431,0.0268672299832566
432,0.0277387554585457
433,0.0286628728961281
434,0.0297419764740847
435,0.0303479050069666
436,0.0305155002188664
437,0.0309482159421129
438,0.0313809316653595
439,0.0318136473886061
440,0.0319793843591281
441,0.0324178406740142
442,0.0330326248362776
443,0.0333082660205506
444,0.0337064683327369
445,0.0341046706449231
446,0.0345028729571093
447,0.0349927232627318
448,0.0349580443738704
449,0.0361200549169691
450,0.0358111916342081
451,0.0354234542002978
452,0.0352737740054579
453,0.0351240938106179
454,0.034974413615778
455,0.0349452673524994
456,0.0349127730742022
457,0.035260351630564
458,0.0354018796585072
459,0.0359080067763791
460,0.0358074441876428
461,0.0353913891624746
462,0.0363124717964545
463,0.0353392275808353
464,0.0349165239991519
465,0.0347045322842731
466,0.0341791463105496
467,0.0340394931214062
468,0.0337099087573571
469,0.0333925631504894
470,0.0341332418698433
471,0.0340453488228014
472,0.0341742254373323
473,0.0345136558895093
474,0.0345402544686583
475,0.0349783244050548
476,0.0341514355813014
477,0.0341377708204578
478,0.0341241060596141
479,0.0341104412987705
480,0.0339582362360769
481,0.0331561105252199
482,0.0325745590294864
483,0.0324267097953955
484,0.0315265999436754
485,0.030825313263319
486,0.0311212096546004
487,0.0313574972478203
488,0.0316206013052971
489,0.0324372732565185
490,0.032535639053531
491,0.0328657081000429
492,0.0334938783386284
493,0.0331058577791042
494,0.0336267834722867
495,0.033133287611512
496,0.0331802729478755
497,0.0326158860903259
498,0.0327983362967441
499,0.032047463441539
500,0.0322495712759626
501,0.0318959186985254
502,0.0324159140095317
503,0.0325791385030966
504,0.0322523197928112
505,0.0332645069193836
506,0.0331822495335346
507,0.0332749461660581
508,0.0335042372846498
509,0.0335344881791524
510,0.033044918764588
511,0.0334974591007208
512,0.0333457958422379
513,0.0323784123354643
514,0.0322116699218054
515,0.0317276830555167
516,0.0315968403523593
517,0.0315984326959132
518,0.0315457139267718
519,0.0322419354980991
520,0.0329496614722878
521,0.033351220996855
522,0.0337527805214222
523,0.0341543400459894
524,0.0340257444630315
525,0.0342007932467938
526,0.0343878758000375
527,0.0342531703020128
528,0.0344802645033046
529,0.0349737222175948
530,0.0350109696796137
531,0.0351143783870934
532,0.0349796652124324
533,0.0353819230205394
534,0.035587391875554
535,0.0351498858756717
536,0.0354546467122242
537,0.0352598022025847
538,0.0349801848267283
539,0.0347594468616433
540,0.0348906786353024
541,0.0346927897729937
542,0.0344437245328868
543,0.0346162322754813
544,0.034764557483656
545,0.0346070474654181
546,0.0348439171708432
547,0.0348396334419417
548,0.0348353497130402
549,0.0348310659841387
550,0.0345781567479227
551,0.0348691693956965
552,0.0351551055773513
553,0.034829469668237
554,0.0346516246808634
555,0.0350205618133939
556,0.0344755767234652
557,0.0343341304343956
558,0.0341507446267207
559,0.0338277575579388
560,0.0341533736184824
561,0.0335713809743699
562,0.0341128719520128
563,0.0335202125530221
564,0.0336129434170698
565,0.0330391287412024
566,0.032750212543593
567,0.0322876430533382
568,0.0324081850062343
569,0.0319460091583443
570,0.031798619343791
571,0.0318189035512086
572,0.0317359027135377
573,0.0316156471914019
574,0.0317557950728412
575,0.0312970891799649
576,0.0313977993358178
577,0.0314985094916707
578,0.0315992196475237
579,0.0316999298033766
580,0.0318006399592295
581,0.0321630538560573
582,0.031954131281524
583,0.0320591662075596
584,0.0314828102365278
585,0.0312628524741894
586,0.0301893869316896
587,0.0296126255272598
588,0.029193595324235
589,0.0287745651212103
590,0.0283555349181856
591,0.0284900826960104
592,0.0287126704752201
593,0.0288379203899068
594,0.0293410602797564
595,0.0293586490858454
596,0.0296069974560822
597,0.0298284965403198
598,0.0299947574659829
599,0.030152491667768
600,0.0303697543230246
601,0.0306274786350245
602,0.0308300568752941
603,0.0307517654275202
604,0.0310165275237837
605,0.0308504510500757
606,0.0308379168948722
607,0.0307219986762657
608,0.0302954034346198
609,0.0302612999791894
610,0.0300401312353327
611,0.0297936614155576
612,0.0295367686898526
613,0.0294020991061728
614,0.0291217507716522
615,0.0294201131508239
616,0.0290847699980083
617,0.029336153207847
618,0.0292180927786946
619,0.0293640538309
620,0.0291540662835038
621,0.0293568422301405
622,0.028735851348536
623,0.0286808939268431
624,0.0284248301747359
625,0.0281687664226287
626,0.0279127026705215
627,0.0278609577753122
628,0.0277629406364141
629,0.0276321673180074
630,0.0279300108127804
631,0.0276262552897081
632,0.0278680952964668
633,0.0281245989494195
634,0.0282841602833761
635,0.0283507978108498
636,0.0280953298463208
637,0.0283797234314449
638,0.0282963535487223
639,0.0283636535754001
640,0.0281929766484521
641,0.0280925580138643
642,0.0278991091145532
643,0.0276075843848102
644,0.0273160596550672
645,0.0270245349253242
646,0.0271367723596739
647,0.026960952489877
648,0.0263994225626044
649,0.0268563667481078
650,0.0265782157632319
651,0.0268490665905124
652,0.0265711241476801
653,0.0261902259816813
654,0.0257559424557777
655,0.0260374232688142
656,0.0258877493508217
657,0.026242544157903
658,0.0265458387832376
659,0.0272669220982986
660,0.0274303690129638
661,0.0276378000601663
662,0.0277499776288155
663,0.0276156285833501
664,0.0274426800081686
665,0.0275663905355476
666,0.0276092241057759
667,0.0276388377820587
668,0.0277624179493849
669,0.0272581287338198
670,0.0273825421724018
671,0.0273210670151398
672,0.0272567759475943
673,0.0273657347363094
674,0.0274199145242222
675,0.0274467869037854
676,0.0273513663753063
677,0.0276897235017607
678,0.0272224731842326
679,0.027281070062685
680,0.0278772850944994
681,0.0274975079395723
682,0.0267772888350744
683,0.0262349168620761
684,0.0252249887759532
685,0.0244216056172698
686,0.0238226535950374
687,0.0232915969473126
688,0.0232633023555627
689,0.0233745487215256
690,0.0238937951399747
691,0.0245657512367345
692,0.0248123248119437
693,0.0252908191114032
694,0.0258594774099457
695,0.0261804548566155
696,0.0268628758277823
697,0.0272995518198843
698,0.0271854896825037
699,0.0275588503709682
700,0.0283848577319817
701,0.0285273743122046
702,0.0294313165454075
703,0.0299206145745661
704,0.0307418819418514
705,0.031229230634269
706,0.0322159506917013
707,0.0329421993443541
708,0.0334089258373023
709,0.0343240907050262
710,0.0342984138357559
711,0.0346881160783106
712,0.0349081349431549
713,0.0336263623507511
714,0.032869341512245
715,0.0311384990642464
716,0.0296732685887784
717,0.0288722890941456
718,0.0288641816202885
719,0.0294837498158624
720,0.0303252069292926
721,0.030511484973835
722,0.031606188152107
723,0.0317486019811508
724,0.0320283127497233
725,0.0325236052847201
726,0.0328988815084742
727,0.0340215826362787
728,0.0351099786746226
729,0.0368762855181596
730,0.0386081705743348
731,0.0408036760209697
732,0.0430316865058569
733,0.0451200776259805
734,0.0468329900315935
735,0.0480457706186258
736,0.0495650792573045
737,0.0508477038964748
738,0.0521303285356451
739,0.0534129531748155
740,0.0552249722413255
741,0.0562592120910291
742,0.0573151996639011
743,0.0583711872367731
744,0.0594271748096451
745,0.0602782713196221
746,0.0604934264580554
747,0.0612602699120063
748,0.0609097121485787
749,0.0616601167098618
750,0.0620700362776864
751,0.0619811310993394
752,0.0631602692864376
753,0.062733886562916
754,0.0618066391983229
755,0.0571866173728972
756,0.0525665955474715
757,0.0479465737220458
758,0.0406970493916001
759,0.0341010183952705
760,0.0299741850637413
761,0.0290923257238489
762,0.0302901295540051
763,0.0335160849092652
764,0.0380193135105454
765,0.0427542718721578
766,0.048335874163338
767,0.0536243961177166
768,0.0566957880627533
769,0.0591330265741275
770,0.061298219793399
771,0.0621716511122831
772,0.0632585660314366
773,0.0641855333757968
774,0.0638811506787283
775,0.0641575085542559
776,0.0643508691031719
777,0.0638048742559025
778,0.0646078732307122
779,0.0639846778942977
780,0.0648508764540484
