"wavelength","measurement"
380,0.000595904648230467
381,0.000565552091873654
382,0.000596428624415831
383,0.000602617588011366
384,0.000630762096125781
385,0.000673669358735613
386,0.000690127110587291
387,0.00077475748488248
388,0.000821894290872345
389,0.000853986705546353
390,0.000840851439340388
391,0.000873824605617712
392,0.000892072032189327
393,0.000903113936828091
394,0.000967299292192818
395,0.00103381893613101
396,0.00113478955493054
397,0.0012811502988677
398,0.00142751104280486
399,0.00157387178674202
400,0.00167246167131348
401,0.00181877180818949
402,0.00191102592652277
403,0.00197778567304539
404,0.00200409315152604
405,0.00200722623079228
406,0.00206841356457622
407,0.00212813954086038
408,0.0021748045097825
409,0.00222995237004618
410,0.00235945716664023
411,0.0023933703505177
412,0.00247365533712412
413,0.0025798328088371
414,0.00258673321490586
415,0.00264272789946881
416,0.00260498344820088
417,0.00258785320920152
418,0.00266662396757736
419,0.00262797337663285
420,0.00268401670100129
421,0.00271389017599638
422,0.00271513560875848
423,0.0027481910391711
424,0.00278326048245374
425,0.00273828475232955
426,0.00271032451025499
427,0.00265292750489573
428,0.00256605185922364
429,0.00258368323069456
430,0.00260038519100263
431,0.0027057113579444
432,0.00278505916520256
433,0.00288538034672157
434,0.0030337964683288
435,0.00311761550446653
436,0.00315769903131663
437,0.00321985559047763
438,0.00328201214963863
439,0.00334416870879963
440,0.00336606924469067
441,0.00344496106170728
442,0.00351018515748337
443,0.00358482538390701
444,0.00364799535176885
445,0.00371116531963068
446,0.00377433528749252
447,0.00382820765027462
448,0.0038857503776243
449,0.00403352894557993
450,0.00401334103044713
451,0.00400239896543713
452,0.00401346465359754
453,0.00402453034175796
454,0.00403559602991837
455,0.00403235633519478
456,0.00400117728107948
457,0.00411475380737459
458,0.00415315215584393
459,0.00422119400705403
460,0.00424091590768733
461,0.00421370473529776
462,0.00432172813730722
463,0.00418982170682944
464,0.00419425694355689
465,0.0041515475741797
466,0.00409591019549884
467,0.0041014385014275
468,0.00408435929018191
469,0.00404963334238301
470,0.00412750196453815
471,0.00414824920614129
472,0.00417160040962837
473,0.00422323505958418
474,0.00424319909943837
475,0.00432389411823142
476,0.00424837359675877
477,0.00424978267670752
478,0.00425119175665627
479,0.00425260083660501
480,0.00423502218275188
481,0.00411673717663491
482,0.00406006135492195
483,0.00404409063097876
484,0.00395961356230038
485,0.00388768151528927
486,0.00394149816479159
487,0.00398641359892416
488,0.00401383486276497
489,0.0041355701348526
490,0.0042006795761029
491,0.00421381684996013
492,0.00433643251552198
493,0.00429734327743182
494,0.00437937391695315
495,0.00431312828011479
496,0.00434123199555384
497,0.0042826638066481
498,0.00430970887832417
499,0.00420818023223842
500,0.0042542656979896
501,0.00422906181534802
502,0.00432282373046915
503,0.00434338551923242
504,0.00432750004899749
505,0.00446406198144718
506,0.00446090654452151
507,0.0044682353087897
508,0.00449775792015981
509,0.00449111041741588
510,0.00441663991839409
511,0.00449317993304834
512,0.00444527058663065
513,0.00432746973007939
514,0.00429861304067123
515,0.00424674641644857
516,0.00421916392434556
517,0.00422707286736365
518,0.00420214126281822
519,0.00427417547461203
520,0.00437521861326199
521,0.00442404425447152
522,0.00447286989568104
523,0.00452169553689057
524,0.00450464512648843
525,0.00452129366309752
526,0.00451505913600482
527,0.0044996089177069
528,0.00454418972853455
529,0.00458847817824379
530,0.00461322739368951
531,0.00461084745443291
532,0.00459104335212973
533,0.00466142271562846
534,0.00466076005808954
535,0.00462334297534957
536,0.00466872229375362
537,0.00464413474051502
538,0.00462037264961777
539,0.00458999041222486
540,0.00461527106867813
541,0.00460235722841277
542,0.00457733989851202
543,0.00463271788670443
544,0.00463121679347845
545,0.00457703702537415
546,0.00463224481575424
547,0.00462101386241566
548,0.00460978290907708
549,0.00459855195573851
550,0.00457459704917975
551,0.00459139876186117
552,0.00462186945420317
553,0.00458811473826908
554,0.00456115338950209
555,0.00462361784751785
556,0.00456093906181586
557,0.00456094194061941
558,0.00453675098650884
559,0.00450735181708234
560,0.00455935002262624
561,0.00447152893256841
562,0.00455552771636893
563,0.00448544702998853
564,0.00450400500151693
565,0.0044502897779913
566,0.00443682912897007
567,0.00438461260387703
568,0.00441789557504033
569,0.00435236020787199
570,0.0043586791368418
571,0.00436901168187206
572,0.00436155108443795
573,0.00436117238520026
574,0.00439657806161381
575,0.00434570342705274
576,0.00435653741991374
577,0.00436737141277473
578,0.00437820540563573
579,0.00438903939849673
580,0.00439987339135773
581,0.0044158065583769
582,0.00441552846343042
583,0.00443642288532505
584,0.00437241763940136
585,0.00436998381944233
586,0.00427383553713422
587,0.00422057444541099
588,0.00418190542346394
589,0.00414323640151689
590,0.00410456737956984
591,0.00413506811775075
592,0.00415632559726789
593,0.00416385490943418
594,0.00419425074107812
595,0.00417386124431835
596,0.00420515110517863
597,0.00419688519805791
598,0.00418817891173486
599,0.00415797988258847
600,0.00418248887363496
601,0.0042148621649441
602,0.00420998062322937
603,0.00419913193035208
604,0.00420680563185554
605,0.0041615863287894
606,0.00416992906531093
607,0.00416307062127504
608,0.00411134065751052
609,0.00410228934954325
610,0.00407393898924026
611,0.00402486698694488
612,0.00400482295536427
613,0.00396980464168833
614,0.00391540611786069
615,0.00393477349970902
616,0.00390723455304559
617,0.0039494805050351
618,0.00393093142307937
619,0.0039270955013996
620,0.00390812230395124
621,0.0039242013060138
622,0.00383410210098393
623,0.00384688505007331
624,0.00380515643878846
625,0.0037634278275036
626,0.00372169921621874
627,0.00372452149708427
628,0.00370309076832222
629,0.00370281363344638
630,0.00372643014606924
631,0.00366098475313554
632,0.00366281739218645
633,0.00368693758877264
634,0.00366738081355255
635,0.00367126652070511
636,0.00365707486248942
637,0.00367265159642929
638,0.00363286581856055
639,0.00364967349804041
640,0.00362847575975497
641,0.00360143466273143
642,0.00359327016762534
643,0.00357321914508627
644,0.00355316812254721
645,0.00353311710000815
646,0.00354589970644749
647,0.00355256442417218
648,0.00348500239109268
649,0.00354825225425575
650,0.00348801515924355
651,0.00351118269516994
652,0.00345841161436014
653,0.00338046804889511
654,0.00331878214785921
655,0.0033367541421554
656,0.00331307979090583
657,0.00330292721770686
658,0.00334615387910205
659,0.00341753728569508
660,0.00343661265193725
661,0.00342522932029977
662,0.00344443973397268
663,0.00340586572084106
664,0.00337143462889184
665,0.00339175279964612
666,0.00339136138645829
667,0.00340244114274468
668,0.0033941684582124
669,0.00330805343271177
670,0.00334715129954157
671,0.00330870742932722
672,0.00331935084243074
673,0.00330839440981878
674,0.00332088352321314
675,0.00329896929298712
676,0.0032978865119354
677,0.00332664799177455
678,0.00327583679024502
679,0.00323884690845502
680,0.00332359130506226
681,0.00326341183743652
682,0.00316717481809744
683,0.00311659097706438
684,0.00300803471955112
685,0.00289630322018215
686,0.00283577374412687
687,0.00278043190560293
688,0.00275069665228475
689,0.00277590296678655
690,0.00283075332997328
691,0.0029323135148185
692,0.00296020747220699
693,0.0029846620744393
694,0.00304864113605899
695,0.00303340604979212
696,0.00310979198534005
697,0.00309417776062431
698,0.00305846798611159
699,0.00307195000988497
700,0.0031396429964997
701,0.00311722192407324
702,0.00314641073685413
703,0.00315182145915786
704,0.00322222937899234
705,0.00317783996868017
706,0.00322930142721867
707,0.00326422231510897
708,0.00324505176914076
709,0.00327778438338604
710,0.00324623151194206
711,0.00325049572770798
712,0.0032728476137464
713,0.00319285920442672
714,0.00315578654254921
715,0.003051181911263
716,0.00299165094706348
717,0.00291231633193908
718,0.00290767594411852
719,0.00290130304425849
720,0.00292998808610142
721,0.00286976928541173
722,0.00298430201249658
723,0.00297488202060048
724,0.00298161016021307
725,0.00295965006150867
726,0.0029444960459948
727,0.00298886246679835
728,0.0030240443598899
729,0.00303532356959955
730,0.00307055763474989
731,0.00314179282586625
732,0.00317753048245928
733,0.00324044713660342
734,0.00326168172044361
735,0.00326510545024658
736,0.00327167019068067
737,0.00327747689917463
738,0.00328328360766859
739,0.00328909031616255
740,0.00331875085668242
741,0.00331392666432903
742,0.00331762626266077
743,0.00332132586099251
744,0.00332502545932425
745,0.00330995977527545
746,0.00330102211751493
747,0.00330579865657846
748,0.00326224353211227
749,0.00326269682302459
750,0.00324024362837577
751,0.00322332163596997
752,0.00323262315022554
753,0.00314148544504076
754,0.00315372040793513
755,0.00293748484242048
756,0.00272124927690584
757,0.0025050137113912
758,0.00216995788561121
759,0.0018772008929963
760,0.00170168443140436
761,0.00164399862301382
762,0.00169735992419271
763,0.00182029673908976
764,0.00200709174761536
765,0.00219328394593653
766,0.00240431506085015
767,0.00260672368132746
768,0.00274411582005354
769,0.00280286587530369
770,0.00287223741070307
771,0.00290178715125806
772,0.00290876023375789
773,0.00294508417991773
774,0.00292580716912304
775,0.0029207053518141
776,0.00292432838138159
777,0.00289789316515583
778,0.00288527328630207
779,0.00286660097464957
780,0.00287860226427148
