"wavelength","measurement"
380,0.00205754637468517
381,0.00204289651360039
382,0.00206168352390045
383,0.00207647029945042
384,0.0021296068798698
385,0.0022683027677654
386,0.00240795901736136
387,0.00258113694766345
388,0.00273454878890069
389,0.00286685281675774
390,0.00287239120698281
391,0.00289658569325514
392,0.00295811642925873
393,0.00299390379296925
394,0.00313957917056247
395,0.00330536165749893
396,0.00369040539477497
397,0.00411674489496682
398,0.00454308439515867
399,0.00496942389535052
400,0.00522817487080988
401,0.00558474569289484
402,0.00581998370417058
403,0.00595588657057042
404,0.00597766987253829
405,0.0059541589137156
406,0.00615330248968012
407,0.0061797007610274
408,0.00629108011311968
409,0.00641327809064737
410,0.00673176479954265
411,0.00673727566004474
412,0.00696774593653579
413,0.00715390932408611
414,0.00713974155100671
415,0.0072232529056566
416,0.00716044183670514
417,0.00711271663157831
418,0.00721869248991951
419,0.00709442714099706
420,0.00725026611407454
421,0.00724312415236828
422,0.00728833174737083
423,0.0073577254798956
424,0.00741624477713488
425,0.00725677817852189
426,0.00719945799627346
427,0.00701715239776854
428,0.00678056355282116
429,0.00678300226737344
430,0.00682206175681746
431,0.00702668806674933
432,0.00728759859957599
433,0.00752209536208574
434,0.00789593099537729
435,0.00808351954578437
436,0.00815843479585021
437,0.00830946870559425
438,0.00846050261533829
439,0.00861153652508233
440,0.00866389623168578
441,0.00884920836210194
442,0.00908740487728729
443,0.00923292739481644
444,0.00940025485220959
445,0.00956758230960274
446,0.0097349097669959
447,0.00990822844056783
448,0.00998517831624585
449,0.0103531479086141
450,0.0103490997287265
451,0.0102565018727248
452,0.0102304688563428
453,0.0102044358399609
454,0.0101784028235789
455,0.0101499450686678
456,0.0101496023098966
457,0.0103178687427318
458,0.0103074130233746
459,0.0105560075928396
460,0.0105482379275089
461,0.0104468409110326
462,0.0107041268074439
463,0.0104150366004234
464,0.0103254546792607
465,0.0102367393004792
466,0.0101092289225493
467,0.0100742235240719
468,0.00997323043206481
469,0.00991398692590658
470,0.0101216488251117
471,0.0101109391256617
472,0.0101491466269696
473,0.0102888781308726
474,0.0103232516087571
475,0.0104451982747146
476,0.0102226443615775
477,0.0102195514686217
478,0.0102164585756659
479,0.0102133656827101
480,0.0101774368642649
481,0.00989207902569979
482,0.00974274803047354
483,0.00969454344450505
484,0.00947309977112892
485,0.00927867501520355
486,0.00936751477351299
487,0.00944063495713672
488,0.0095325046536031
489,0.00977528721105908
490,0.00990829662291332
491,0.00998215166850595
492,0.0102152957666416
493,0.0101091378745103
494,0.0102563047501274
495,0.0101270233863869
496,0.0101857878190414
497,0.0100051332864207
498,0.0100628986855235
499,0.00984960523853137
500,0.00992168055753186
501,0.00985028911594204
502,0.0100420944867104
503,0.0100943405231465
504,0.010003387836911
505,0.0103468737415398
506,0.0102618340778181
507,0.0103118574184183
508,0.0103733148271936
509,0.0103414953346041
510,0.0101507543814134
511,0.0103054717255703
512,0.0102135814473763
513,0.00992286477770851
514,0.00984055976057602
515,0.00968916403369476
516,0.00961036141086608
517,0.00960554985060452
518,0.00956678164256162
519,0.00970579030714999
520,0.00990277269607729
521,0.0100080084203195
522,0.0101132441445617
523,0.0102184798688039
524,0.0101332754217286
525,0.01016662034513
526,0.0101754646281208
527,0.010101457677535
528,0.0101451380147589
529,0.0102533822125831
530,0.0102628588053123
531,0.0102621303971043
532,0.0102210402881532
533,0.0103214597366048
534,0.0103311249952839
535,0.010220416594727
536,0.0103229464493926
537,0.0102560234399926
538,0.0101710759389768
539,0.0101137434597328
540,0.0101506873856058
541,0.0100720652508567
542,0.0100037316673462
543,0.0100665788349583
544,0.0100872013722174
545,0.00998270567638254
546,0.0100593976395567
547,0.010021155081245
548,0.00998291252293337
549,0.00994466996462172
550,0.0098965229069807
551,0.009942766286711
552,0.0100012218258895
553,0.00990164452982498
554,0.00985067741950856
555,0.00994645886169255
556,0.00981142461833818
557,0.0097868398335952
558,0.00972313288256562
559,0.00962319099880314
560,0.00973505578665025
561,0.0095482570988228
562,0.00970635421937957
563,0.00954851936055152
564,0.00957616666310178
565,0.0094372281282951
566,0.00940394894793641
567,0.00928405005858943
568,0.00933373319008957
569,0.00919925977114068
570,0.00919561730721318
571,0.00921897020603256
572,0.0092052784893128
573,0.00917201692445319
574,0.0092195474829573
575,0.00909808927318589
576,0.00911193398651704
577,0.00912577869984819
578,0.00913962341317934
579,0.00915346812651049
580,0.00916731283984164
581,0.00926743767177444
582,0.00921312004664989
583,0.0092494860842289
584,0.00909242227023133
585,0.00907817528221327
586,0.00887003627256851
587,0.00874671067798587
588,0.0086650331612723
589,0.00858335564455874
590,0.00850167812784517
591,0.0085280994986546
592,0.0085872567465389
593,0.00856262241139218
594,0.00864205235390191
595,0.00859214674793452
596,0.00859401341966445
597,0.00860588406621431
598,0.00854495298814307
599,0.00852629263734208
600,0.0085395043454785
601,0.00856303341723864
602,0.00858576127924085
603,0.00850835181423086
604,0.0085760174082694
605,0.0084842929252546
606,0.00848483624010687
607,0.00841560155952476
608,0.00830376268574367
609,0.0082846818981849
610,0.00821793474888165
611,0.00813629136829531
612,0.00804684616229069
613,0.00799506643685315
614,0.00785591886685274
615,0.00791061862988199
616,0.00781723695817024
617,0.00788834529748886
618,0.00785971207396964
619,0.00783795914124533
620,0.00780149995367263
621,0.00782853200811125
622,0.00764197063448289
623,0.00763846909323782
624,0.0075534560812282
625,0.00746844306921859
626,0.00738343005720897
627,0.00736706595824675
628,0.00731247432673832
629,0.00728241963595212
630,0.00731282777865605
631,0.00721251025121854
632,0.00721495859921002
633,0.00723699868796893
634,0.00720885872850309
635,0.00723641084539096
636,0.00715046499870805
637,0.00719593243210794
638,0.00711244345067001
639,0.0071404747830337
640,0.00707586933825276
641,0.00704489573810292
642,0.00699262116906267
643,0.00693745206189104
644,0.0068822829547194
645,0.00682711384754776
646,0.00688395861160605
647,0.00686376935958282
648,0.0067128486465354
649,0.00683092387241201
650,0.00670930316148923
651,0.00671446725448361
652,0.00662814450927719
653,0.00647755617588343
654,0.0063536049187391
655,0.00636214740644436
656,0.00628420322749716
657,0.00629321667555264
658,0.00636729630096998
659,0.00648472945334951
660,0.00649569845230535
661,0.00651647856916405
662,0.00649195685982091
663,0.00642595507220972
664,0.0063689886358217
665,0.00635724254171371
666,0.0063671132810626
667,0.0063541739188073
668,0.0063353435369307
669,0.00620652881480327
670,0.00621845260387486
671,0.00615055021274055
672,0.00612323547341334
673,0.00613148452042734
674,0.00611784270362105
675,0.00609008080078692
676,0.00606889673937055
677,0.00607364499731336
678,0.00598062719178955
679,0.00593816382793797
680,0.00609700660874432
681,0.0059505398557327
682,0.00579332232306004
683,0.0056420569366487
684,0.00541481239390433
685,0.00524222799573133
686,0.00509683535635688
687,0.0049658762910832
688,0.00491487879803681
689,0.00496779691544132
690,0.00504435969843318
691,0.00520872412317836
692,0.005249500958821
693,0.0052894238993032
694,0.00540452674123511
695,0.00539462955483088
696,0.00545139107896323
697,0.00546128476901192
698,0.00540065062790173
699,0.00541986501530188
700,0.00550422070472712
701,0.00546330496277691
702,0.0055141575541222
703,0.00550694241413457
704,0.00562064586898356
705,0.00557104633969299
706,0.00564858939582449
707,0.0056856578452206
708,0.00569455337746901
709,0.00573859053523822
710,0.00567312686601057
711,0.00567851308932772
712,0.00571230552785036
713,0.00555911187309931
714,0.00548971917628214
715,0.00531666909280629
716,0.00518738903808207
717,0.00506784775233632
718,0.00503464052183027
719,0.00507511791512459
720,0.00512175232294954
721,0.00504805887169569
722,0.00519177356798524
723,0.00518736163425866
724,0.00518605746859366
725,0.00520800915866183
726,0.00516986080691962
727,0.0052423392519995
728,0.00529796754651615
729,0.00533483576342257
730,0.00541146831978447
731,0.00551125461366307
732,0.00559227855092844
733,0.00572279002881381
734,0.00577595372585386
735,0.00575089366281801
736,0.00582248663888051
737,0.00581367203640853
738,0.00580485743393655
739,0.00579604283146457
740,0.0058459664558665
741,0.00585818044195799
742,0.00585272472103108
743,0.00584726900010418
744,0.00584181327917728
745,0.00585704784283607
746,0.00581510591418241
747,0.00585573909007153
748,0.00576435483327628
749,0.00577125078990529
750,0.00572554551737506
751,0.00567284907499946
752,0.00574563991178393
753,0.00557430395444217
754,0.00554788708272697
755,0.00515927487010251
756,0.00477066265747804
757,0.00438205044485357
758,0.00378862488503054
759,0.00327945471290638
760,0.0029305473347051
761,0.00285544285735551
762,0.00296642090611106
763,0.00318450553280886
764,0.00352562630353189
765,0.00382412093832215
766,0.00420156407734008
767,0.00454482990768941
768,0.00479106284757373
769,0.00490816177486002
770,0.00500172919346801
771,0.0050411866548305
772,0.00507533576378118
773,0.00512894970176746
774,0.00509599545079896
775,0.00507755540694057
776,0.00509565927018082
777,0.00502143826399595
778,0.00504459231430157
779,0.00497632807067417
780,0.00501336919188299
