"wavelength","measurement"
380,0.00269108700841064
381,0.00260327768932545
382,0.00268185215963418
383,0.00267905063730885
384,0.0027378238458888
385,0.00299614051347785
386,0.00312155540889171
387,0.0033430720166821
388,0.00357619347292324
389,0.0036997839969693
390,0.00372071135108367
391,0.00377343213875108
392,0.00379671966832992
393,0.00388889480269277
394,0.00409731416756493
395,0.00428640702073358
396,0.00480286070858849
397,0.00536070347817482
398,0.00591854624776115
399,0.00647638901734748
400,0.00679878896968852
401,0.0072963837342591
402,0.00763267035513139
403,0.00776652556219478
404,0.00782714262121564
405,0.00787995938183199
406,0.00799237611143427
407,0.00812576882292304
408,0.00820163051571998
409,0.00842585640583725
410,0.00882128173182806
411,0.0088791308194682
412,0.00923793998531939
413,0.00941594366346489
414,0.00941621226002001
415,0.00948291856260422
416,0.00948083727734048
417,0.00931294152756361
418,0.00955633362980341
419,0.00934833240705366
420,0.00954136500259517
421,0.00964149568851038
422,0.00967471203039044
423,0.00976845718315014
424,0.00979332299950013
425,0.00961614587499495
426,0.00956069599964681
427,0.00931511062991327
428,0.00899847515809512
429,0.00902364594819682
430,0.00910790076512135
431,0.00938973690087048
432,0.00969069261687214
433,0.0100636268340512
434,0.0105689275108516
435,0.0108149051067998
436,0.0109481050052124
437,0.0111368995097255
438,0.0113256940142386
439,0.0115144885187517
440,0.0115937349549246
441,0.0118061022534628
442,0.0121298011435094
443,0.0123011353955143
444,0.0125140210564456
445,0.0127269067173768
446,0.012939792378308
447,0.0131963383986824
448,0.0133320136044871
449,0.0138486099333165
450,0.0138215313325738
451,0.0137195583741422
452,0.0137190924799963
453,0.0137186265858504
454,0.0137181606917045
455,0.0136818777161819
456,0.0137231131024442
457,0.0139673534221871
458,0.014052860472445
459,0.0142982490360611
460,0.0143427505804048
461,0.014174586555421
462,0.0146671380690942
463,0.0142014265584862
464,0.014101876597073
465,0.0139936956290248
466,0.0137905629545406
467,0.0137854510205464
468,0.0136573288609468
469,0.0135406456846678
470,0.0138517378215324
471,0.0138443506769703
472,0.0139444615364674
473,0.0141483174833931
474,0.0142180931693184
475,0.0143736975862415
476,0.0141168631470674
477,0.0141055580478258
478,0.0140942529485842
479,0.0140829478493426
480,0.0140786123901834
481,0.0137349484619787
482,0.0134443481244105
483,0.0134669715815669
484,0.0130650216618281
485,0.0128822484675056
486,0.0129661715913657
487,0.0131022219806705
488,0.0132279347017327
489,0.0135604960746683
490,0.0137110976445894
491,0.0138301831147036
492,0.0141922295790154
493,0.014026418677172
494,0.0142635414660177
495,0.0140855854509201
496,0.014158273632055
497,0.0139238912684968
498,0.0140253805658331
499,0.01370435614083
500,0.0138497843502299
501,0.013720800513369
502,0.0139926136524263
503,0.0140491449859314
504,0.0139609515527592
505,0.0144183123247329
506,0.0143353306477896
507,0.0144085633324907
508,0.0144964543386729
509,0.0144398829657598
510,0.0141934434205233
511,0.0144621113659241
512,0.0142754631287443
513,0.0138934883356374
514,0.0137790808101597
515,0.0135580150271225
516,0.0134456116520497
517,0.0134557669222446
518,0.0133788348734212
519,0.0135884773325029
520,0.013910435975319
521,0.0140534925075773
522,0.0141965490398355
523,0.0143396055720938
524,0.0142601514244055
525,0.0142780760932489
526,0.0142804434278132
527,0.0141958297518656
528,0.0143056292697469
529,0.0144659080629448
530,0.0144765257000753
531,0.0145327454524134
532,0.0144341527830308
533,0.0145903512951994
534,0.0146039894104276
535,0.0144281595300995
536,0.01457374105464
537,0.0145044340244715
538,0.0143987116362748
539,0.0142994266298638
540,0.0143860144555743
541,0.0142515538041229
542,0.0142053449444592
543,0.0142146448290619
544,0.0143215556076813
545,0.0141711219934931
546,0.0142714892690537
547,0.0142310053276759
548,0.0141905213862981
549,0.0141500374449202
550,0.0140754300152274
551,0.0141819262723328
552,0.0142432927316528
553,0.014095959260679
554,0.0140446723756571
555,0.0141977480146135
556,0.014012313386291
557,0.0139497450352249
558,0.0138936880050816
559,0.0137400233870498
560,0.0139453284368253
561,0.0136487306086418
562,0.0138921593800668
563,0.013681762378814
564,0.0137139963986043
565,0.0135269463104464
566,0.0134934302484589
567,0.013303195763161
568,0.0134350424294506
569,0.0132361164992672
570,0.0132241314785707
571,0.0132225312844017
572,0.013219377003184
573,0.0131841021872204
574,0.0132553610501942
575,0.01308603137838
576,0.0131046057056469
577,0.0131231800329138
578,0.0131417543601807
579,0.0131603286874477
580,0.0131789030147146
581,0.0133113984716459
582,0.0132568432996718
583,0.0133076078788831
584,0.0130964935700554
585,0.0130841771418642
586,0.0127811645841576
587,0.0126081397447435
588,0.0124889100043616
589,0.0123696802639797
590,0.0122504505235978
591,0.0123219352904516
592,0.0123635079803403
593,0.0123607972282603
594,0.012474661439987
595,0.0123594665970722
596,0.0124349511592989
597,0.0124278105176691
598,0.01234438387026
599,0.0123338488655559
600,0.0123363441062824
601,0.0123909271678238
602,0.0124341527433772
603,0.0123177801506687
604,0.0124038481652013
605,0.0123055866778078
606,0.0122807484366116
607,0.0122038213726867
608,0.0120357701121694
609,0.0120115110600612
610,0.0119139548114461
611,0.0117915179342935
612,0.0116784189708102
613,0.0115970996252641
614,0.0114326548357919
615,0.0114896337680635
616,0.0113868266274273
617,0.0114851720741234
618,0.0113963592307834
619,0.0114053442373491
620,0.011329602614914
621,0.0114083284335769
622,0.0111214056472687
623,0.0111165023720727
624,0.0110132355209462
625,0.0109099686698197
626,0.0108067018186933
627,0.0107205657533641
628,0.0106705346409246
629,0.0106457869280697
630,0.0107004686113944
631,0.0105213058361557
632,0.0105604359345421
633,0.0105714516146472
634,0.0105519882771635
635,0.0105935060720404
636,0.0104477537291391
637,0.0105404456941921
638,0.0104456461413563
639,0.0104551765846219
640,0.0103900857994828
641,0.0103264530144506
642,0.0102526013039795
643,0.0101908272099176
644,0.0101290531158556
645,0.0100672790217937
646,0.010093494239354
647,0.0100915931874499
648,0.00991086250601806
649,0.0100393159221944
650,0.00984739071413345
651,0.00990373442877235
652,0.00976910628629877
653,0.00954239199863002
654,0.00938559040548016
655,0.00940264796323225
656,0.00929168705279535
657,0.00932405534962925
658,0.00937770639824462
659,0.00957912318608927
660,0.00959718444660264
661,0.00964026225770855
662,0.009588635912391
663,0.00952071985371317
664,0.00944382730039034
665,0.00944165039343027
666,0.00945573187564721
667,0.00942173460502939
668,0.00942429368576103
669,0.00920224603315394
670,0.00924466258216902
671,0.00915464325477579
672,0.00914154977121625
673,0.00910820353680196
674,0.00911765327799472
675,0.00906617166608464
676,0.00904217257567132
677,0.00906877170882042
678,0.00893800113614673
679,0.00890711552449499
680,0.00905080148411813
681,0.00890500439923054
682,0.00869507703584499
683,0.00848299509118631
684,0.00812319358286507
685,0.00786486308888674
686,0.00765022157069798
687,0.00747481353400168
688,0.00739371862797877
689,0.00747058851790196
690,0.00757766841313655
691,0.00782151636083032
692,0.00788104273737255
693,0.00801286275313321
694,0.00811894162778121
695,0.00810239874010303
696,0.00819397041110007
697,0.00823096648425819
698,0.00813313271900435
699,0.00818759860262761
700,0.00830154095044906
701,0.00822289279592785
702,0.00831474754656349
703,0.00831789542403674
704,0.00847882057967599
705,0.00838824934382218
706,0.00853141238330089
707,0.00858980559578527
708,0.00858099605125818
709,0.00865475559278716
710,0.00855105774908153
711,0.00856841990977925
712,0.00862540236112967
713,0.0083945313427025
714,0.00831848148649691
715,0.00802589498080262
716,0.00782636861350965
717,0.00763717873609518
718,0.00764518903350543
719,0.00766122746695909
720,0.00768177499446691
721,0.00762067078680126
722,0.00783027959592459
723,0.00784259834182908
724,0.00781162229594608
725,0.00785255087800782
726,0.0078003220932327
727,0.00787775960074488
728,0.00795805458667565
729,0.00804575482571183
730,0.0081247372149617
731,0.00828154769089842
732,0.00838300476359102
733,0.00856730739018678
734,0.00864086482073611
735,0.00862987838257069
736,0.00869725453496072
737,0.00868684388404263
738,0.00867643323312454
739,0.00866602258220644
740,0.00877992090765194
741,0.00875020556924454
742,0.00875635473003377
743,0.00876250389082299
744,0.00876865305161221
745,0.00882689601318357
746,0.00873520563291527
747,0.00876500130474152
748,0.00862945783721677
749,0.00865303704812159
750,0.00861373619499752
751,0.00855934054532056
752,0.00862255248457122
753,0.00843829070988166
754,0.0083827879615677
755,0.00782116781930845
756,0.0072595476770492
757,0.00669792753478995
758,0.00581754896647829
759,0.00498363781860948
760,0.00444096099091157
761,0.0043279131747601
762,0.00446101941852892
763,0.00475569833110454
764,0.00524393427778437
765,0.0057724509265023
766,0.00631834006715224
767,0.0068680296201208
768,0.00716447427254095
769,0.00737988197720215
770,0.00753786046781764
771,0.00764925288820829
772,0.00770624033233422
773,0.00775741344192382
774,0.00770403012992336
775,0.00764270222609442
776,0.00770786393683941
777,0.00757342414039585
778,0.0077035062801252
779,0.00754812226069124
780,0.00760895710561704
