"wavelength","measurement"
380,0.0121840427231109
381,0.0125007567126407
382,0.0122237463771519
383,0.0127251021297901
384,0.013089459184947
385,0.0138609006779983
386,0.0149640187908433
387,0.0159136962390075
388,0.0177333972670706
389,0.0189230222418985
390,0.0187655644601923
391,0.0200601349094097
392,0.0206808965066557
393,0.0209884240411257
394,0.0231381621807017
395,0.0255833731044292
396,0.0301386909329316
397,0.0347106658647088
398,0.0392826407964859
399,0.0438546157282631
400,0.0472821891993766
401,0.0523067757112892
402,0.055410130606764
403,0.0581421224405927
404,0.0596381336505669
405,0.0620644965202844
406,0.0638809436304906
407,0.0664969518776825
408,0.0680988239983552
409,0.0714232548089153
410,0.075380511029492
411,0.0775417054194701
412,0.0800640625442392
413,0.0821696940144126
414,0.0827776192644827
415,0.0842271262800941
416,0.0846680044735277
417,0.0834776746195952
418,0.0854000346814547
419,0.0839980192982279
420,0.0854161092456378
421,0.0855450238191213
422,0.0856828380329227
423,0.0869681540300551
424,0.0869987744164097
425,0.0851380259009011
426,0.083464713491317
427,0.0818502229721505
428,0.0795466382003588
429,0.0792478966824764
430,0.0785921003548468
431,0.0824209534680706
432,0.0845883554278253
433,0.0877452121615161
434,0.091294959274321
435,0.0930703207614178
436,0.0940120834308991
437,0.095549642528264
438,0.0970872016256289
439,0.0986247607229937
440,0.0995338821817277
441,0.101564323616134
442,0.103337385422886
443,0.10434589441673
444,0.106028553373391
445,0.107711212330053
446,0.109393871286714
447,0.110379061063254
448,0.110658837722158
449,0.11459013316805
450,0.114040111541974
451,0.112843717455116
452,0.112355337188324
453,0.111866956921532
454,0.111378576654739
455,0.111647065005858
456,0.111316533645972
457,0.112187416292906
458,0.112860118958182
459,0.114718294264519
460,0.114876028052829
461,0.113885663224677
462,0.116923570288041
463,0.113933446168022
464,0.11277923662254
465,0.112039301379138
466,0.110684604013885
467,0.110784764261093
468,0.10982390644336
469,0.109275264712313
470,0.111795167984999
471,0.112527976744317
472,0.113694896835119
473,0.115809246592693
474,0.116522305898784
475,0.118514634904289
476,0.116731567743302
477,0.116811331236613
478,0.116891094729925
479,0.116970858223236
480,0.117046559255269
481,0.113802561983588
482,0.112158068713736
483,0.112051589126449
484,0.109599378802364
485,0.107434347849915
486,0.108347633936234
487,0.109539942334472
488,0.110747183053642
489,0.113123463665201
490,0.114380726654112
491,0.115404538375551
492,0.117955328882674
493,0.116286929819725
494,0.118133953542645
495,0.116339958779724
496,0.116739546909802
497,0.114633044469516
498,0.115018759931691
499,0.112215062401393
500,0.113031162645881
501,0.112152327261998
502,0.113981760481882
503,0.114592441660582
504,0.113178717509231
505,0.116768097593372
506,0.11577182464433
507,0.115718086422408
508,0.116417379447617
509,0.115538237512648
510,0.113421004295186
511,0.11432048709973
512,0.113250142598982
513,0.109444762570637
514,0.108331494925908
515,0.106423042183815
516,0.105095915564671
517,0.104604625083535
518,0.103951851803503
519,0.105755992988704
520,0.10705573645123
521,0.10781597919497
522,0.108576221938709
523,0.109336464682448
524,0.108310230036567
525,0.108181053661301
526,0.107933051080838
527,0.107239428330885
528,0.107285399951158
529,0.108408399741419
530,0.108005566379406
531,0.108055593023596
532,0.107372667902642
533,0.108031238088425
534,0.107896275804414
535,0.10683323599473
536,0.107596740588255
537,0.106556273174942
538,0.105773627681899
539,0.105045308575701
540,0.105509488201867
541,0.10440574760613
542,0.103925786982535
543,0.10415989703291
544,0.104931886320114
545,0.10366220694056
546,0.104546492249039
547,0.104239984016173
548,0.103933475783307
549,0.10362696755044
550,0.10294071734723
551,0.103656308080986
552,0.103982355109974
553,0.103068632301539
554,0.102239431014748
555,0.103165659608844
556,0.101439327338983
557,0.101049315172712
558,0.100754487135604
559,0.0992046141065969
560,0.100310839254757
561,0.0983953734715208
562,0.0999496405390214
563,0.0982529501589985
564,0.0986544806529508
565,0.0973779534378415
566,0.0966592821250186
567,0.0954879520403538
568,0.0961873820021743
569,0.0953134075914426
570,0.0953005833906578
571,0.0953595971644533
572,0.0956700732263301
573,0.0955587796771803
574,0.0964812933672205
575,0.0949622763767027
576,0.095453424422563
577,0.0959445724684232
578,0.0964357205142835
579,0.0969268685601438
580,0.097418016606004
581,0.0987386857137864
582,0.0986887870196065
583,0.0994572791935711
584,0.0981069543333214
585,0.0984198277985862
586,0.0965591298730451
587,0.0959203834137934
588,0.0955024234133456
589,0.0950844634128978
590,0.09466650341245
591,0.0953078069827393
592,0.096115956166235
593,0.0965522093909166
594,0.0978338383013762
595,0.0974511152573174
596,0.0981130677848693
597,0.0985072073441521
598,0.0982925629118658
599,0.0980596675153454
600,0.0987686960804655
601,0.0994488828969742
602,0.0997449591806008
603,0.0993275872099817
604,0.100614364963445
605,0.0997797755573709
606,0.100054126854462
607,0.0995167836355089
608,0.0985546839632029
609,0.0983482134333252
610,0.0978663550548965
611,0.0974236608777528
612,0.0962853856407341
613,0.096595843312038
614,0.095036456521826
615,0.0966957551568851
616,0.0956626568060021
617,0.0967284035381426
618,0.0963695723519244
619,0.0970657139009825
620,0.09668301793
621,0.0971580095796541
622,0.0957055313779171
623,0.0956712341528441
624,0.0951430145994034
625,0.0946147950459627
626,0.0940865754925221
627,0.093948590931377
628,0.094004476072371
629,0.0938544396535298
630,0.094460288139154
631,0.0933974826765491
632,0.0943439985888175
633,0.0944773846417426
634,0.0946162767398537
635,0.095083013037737
636,0.0944313941864289
637,0.0958831841773859
638,0.094935615983317
639,0.0954053709311318
640,0.0950384563287533
641,0.0951539945238591
642,0.0948077404083121
643,0.0944958567651256
644,0.0941839731219391
645,0.0938720894787526
646,0.0946665886181462
647,0.0948064993980785
648,0.0932529732087501
649,0.0950237428527995
650,0.0939569470017236
651,0.094857977286714
652,0.0935786946051179
653,0.0922318865932224
654,0.0905593016828124
655,0.0913834923554408
656,0.0907015908691004
657,0.0921178461501461
658,0.0923894918476261
659,0.0943642592590583
660,0.09515572866218
661,0.095594053878543
662,0.095934381988944
663,0.0955167214940923
664,0.0946947767591442
665,0.0956348618544108
666,0.0955190756860037
667,0.0957020930619427
668,0.0962598236153901
669,0.0942646844698935
670,0.0949179880069927
671,0.0948671143502989
672,0.094574357553954
673,0.0948506919245568
674,0.0949308559977415
675,0.0951159861759553
676,0.0949384923644317
677,0.0958078511774551
678,0.0947624352439034
679,0.0947634696514604
680,0.0968790423608249
681,0.0955268139838403
682,0.0929309625878755
683,0.0911933012978763
684,0.0880604954335674
685,0.0855710729115132
686,0.0834521834205168
687,0.0824598209953332
688,0.0819110305000259
689,0.0827466669728108
690,0.0850401083297686
691,0.087771454376562
692,0.0890161327360482
693,0.0902281055696696
694,0.0919136967631647
695,0.0924333423840826
696,0.0936071952217294
697,0.094387380421742
698,0.0938131866360184
699,0.0941633711303426
700,0.0958447665158528
701,0.0958100902120941
702,0.0973936865408466
703,0.0976546255254467
704,0.0996944641268996
705,0.0996139741489985
706,0.101218659386105
707,0.102980548794057
708,0.102874112703926
709,0.104499967892884
710,0.103840615550561
711,0.104509022035702
712,0.105503224005782
713,0.103100654767206
714,0.102854051200352
715,0.0998772010665826
716,0.0977514630809362
717,0.0966928845915583
718,0.0966515632868242
719,0.0975443265100153
720,0.0990598048437865
721,0.0983097340181105
722,0.101633441258323
723,0.102140192505175
724,0.103163685345196
725,0.103550590485474
726,0.103640335711151
727,0.105814601812071
728,0.106888877572897
729,0.109547738617825
730,0.110973217267176
731,0.113882096101119
732,0.116168063882633
733,0.118802780779503
734,0.120485061960887
735,0.121208701523734
736,0.122853105869219
737,0.123438367800995
738,0.12402362973277
739,0.124608891664545
740,0.127015224910464
741,0.127729245720535
742,0.128863010146587
743,0.129996774572639
744,0.131130538998691
745,0.131481534763638
746,0.132340786248427
747,0.132712161616947
748,0.131845921259961
749,0.133022842539012
750,0.133553558831939
751,0.133226568487
752,0.135780436545254
753,0.134735521349464
754,0.132920780152898
755,0.124015643018707
756,0.115110505884517
757,0.106205368750326
758,0.0919823646691184
759,0.0796241061172774
760,0.0723168157822632
761,0.0720047676946454
762,0.0747023927802678
763,0.0820767294809303
764,0.0913876742914508
765,0.100399283850238
766,0.110243292672113
767,0.119536092172729
768,0.125740922128785
769,0.130322357160702
770,0.133329385814425
771,0.134753032042891
772,0.136345926698347
773,0.138550559330186
774,0.138130135036254
775,0.13823561477911
776,0.13885455198092
777,0.137478659814966
778,0.139996393421234
779,0.13790121570179
780,0.140327237307915
