"wavelength","measurement"
380,0.0024290226000648
381,0.00241196027218884
382,0.00245031167190312
383,0.00239099174981182
384,0.00249522240593926
385,0.00267693425798732
386,0.00285228604665367
387,0.00306225709760043
388,0.00324324074822883
389,0.00339052378967777
390,0.00340076852340764
391,0.0034032484965477
392,0.00349058141471604
393,0.00355104508006248
394,0.00374496890381486
395,0.00392213362387614
396,0.0043728662004111
397,0.004899545862674
398,0.00542622552493689
399,0.00595290518719979
400,0.00624953213713277
401,0.0067256619189633
402,0.00701039691193735
403,0.00712139452487491
404,0.0072301232564984
405,0.00720661638399728
406,0.00736223739874284
407,0.00754665709996835
408,0.00758646613893803
409,0.00776541257937081
410,0.00815038078693233
411,0.00820314649959013
412,0.00845190895272081
413,0.00870437826505816
414,0.00869431100396025
415,0.00879824402129059
416,0.00872082371217827
417,0.00864043745303984
418,0.00885853922434732
419,0.00864079516247468
420,0.0088521641061942
421,0.00886641073742366
422,0.00890281411889699
423,0.00900443351032366
424,0.00911439601858434
425,0.00893930722754301
426,0.00884772259246367
427,0.00862787260846417
428,0.00833581907435713
429,0.00837798545786893
430,0.00840458054101726
431,0.00872972047485579
432,0.00899280153754092
433,0.00935308874018798
434,0.00977670383158632
435,0.0100474666813189
436,0.0101634113970641
437,0.0103288560102935
438,0.0104943006235229
439,0.0106597452367522
440,0.0107652206309662
441,0.0109993275950455
442,0.0112730388495969
443,0.0114575571201864
444,0.011643697666061
445,0.0118298382119356
446,0.0120159787578102
447,0.0122603120397631
448,0.0123728760669906
449,0.0128537665505941
450,0.0128526585876116
451,0.0127610121910285
452,0.0127505607698369
453,0.0127401093486452
454,0.0127296579274536
455,0.0127492338239468
456,0.012735239578415
457,0.0129558997318924
458,0.0130509370012472
459,0.013302904018807
460,0.0133376567747689
461,0.0132376258589304
462,0.013614695271177
463,0.0132160822878054
464,0.0130942570201605
465,0.012999829164208
466,0.0128441433367763
467,0.0128432009667287
468,0.0127024867875359
469,0.0126159876226224
470,0.012930437419252
471,0.0129209564524685
472,0.0130126294691177
473,0.0131620894245164
474,0.0132271490465914
475,0.0134346576166507
476,0.0131343318533154
477,0.0131328303594719
478,0.0131313288656283
479,0.0131298273717847
480,0.0130999625060552
481,0.012763646771045
482,0.0125474950834237
483,0.0125484293934788
484,0.0121991690747448
485,0.0119591919193806
486,0.0120908363807193
487,0.0121845078709586
488,0.0123046696505964
489,0.0126749552617162
490,0.0128160306727278
491,0.0129080787485241
492,0.0132471453491936
493,0.0131107605430258
494,0.0133326783867475
495,0.0131638179377944
496,0.0132487242646551
497,0.0130074257657697
498,0.0130955023983005
499,0.0127888625140064
500,0.0129125836359222
501,0.0128093825879991
502,0.0130648317820525
503,0.0131251866246638
504,0.0130183821041212
505,0.0134649316481491
506,0.0133595129312932
507,0.0134216050445212
508,0.0135133465141245
509,0.0134780397189028
510,0.013227505759316
511,0.0134596054380089
512,0.0133102708743718
513,0.0129668228477686
514,0.0128500709330653
515,0.0126621347792517
516,0.0125793508037939
517,0.0125478220201458
518,0.0124758129466289
519,0.0126793752137145
520,0.0129602316865392
521,0.0131032968971625
522,0.0132463621077858
523,0.0133894273184091
524,0.0133080746159552
525,0.0133359760063762
526,0.0133409288684195
527,0.0132657048107741
528,0.0133633283637317
529,0.0134911284467136
530,0.0135173115859734
531,0.0135270888892304
532,0.0134633632290317
533,0.0136137043601321
534,0.0136348004570601
535,0.0134782793154484
536,0.0136331335248046
537,0.013529392509703
538,0.0134435323764929
539,0.0133617027911978
540,0.0134377988474797
541,0.0133344470355349
542,0.0132749930887842
543,0.0133236625633954
544,0.0133829961521897
545,0.0132664126231263
546,0.0133613525035544
547,0.0133164420671792
548,0.013271531630804
549,0.0132266211944287
550,0.0131688435074683
551,0.0132592573975411
552,0.0133174670347802
553,0.013175929298957
554,0.0131293248856571
555,0.0132435730195883
556,0.0130864306282297
557,0.0130810484861135
558,0.012989047831334
559,0.0128851140123385
560,0.0130009029008973
561,0.0127878453417213
562,0.0130033904271784
563,0.0127944856766625
564,0.0128191918900539
565,0.0126435831213675
566,0.0125892797245072
567,0.0124369998369619
568,0.012542635714715
569,0.0123578291278528
570,0.0123588235990292
571,0.0123588738220605
572,0.0123505422122057
573,0.0123294325252744
574,0.0123819349789889
575,0.0122468749801894
576,0.0122618270542644
577,0.0122767791283394
578,0.0122917312024144
579,0.0123066832764894
580,0.0123216353505644
581,0.0124704556767878
582,0.0123776721711353
583,0.0124446349221526
584,0.0122407580099053
585,0.0122151184352202
586,0.011937272111659
587,0.0117713466561546
588,0.0116636927924993
589,0.011556038928844
590,0.0114483850651887
591,0.0115003517011528
592,0.0115522533911667
593,0.0115565218069345
594,0.0116267785511657
595,0.0115872890844915
596,0.0116290270415954
597,0.0116225985693603
598,0.0115786316164603
599,0.0115147756711347
600,0.0115593259483843
601,0.011599664463182
602,0.0116222002596274
603,0.0114946113370167
604,0.0116128880980905
605,0.0115454574533972
606,0.0114975909550762
607,0.0114147376799165
608,0.0112893674570919
609,0.0112409741865155
610,0.0111550679793423
611,0.0110425817994741
612,0.0109401387838969
613,0.0108644628895336
614,0.0106962701233686
615,0.0107582616122997
616,0.0106678736068666
617,0.0107413853001474
618,0.0106778171226794
619,0.0106883224484576
620,0.0106293715992443
621,0.0106847568233003
622,0.0104212259141688
623,0.0104336576995374
624,0.0103248071513876
625,0.0102159566032378
626,0.010107106055088
627,0.0100671649831039
628,0.0100064551649144
629,0.00997203137701476
630,0.0100375257375358
631,0.00985898439606465
632,0.00987887659759637
633,0.00991360042076334
634,0.00989826911204854
635,0.00992923686119852
636,0.00982985437680134
637,0.00988386588589389
638,0.00974130278261836
639,0.00980435942747301
640,0.00972260146392269
641,0.00966851902422302
642,0.00961502886498089
643,0.00955182778431743
644,0.00948862670365398
645,0.00942542562299052
646,0.00951406463981817
647,0.00946629784841375
648,0.00926390876197178
649,0.00939812094277545
650,0.0092493898617851
651,0.00929378614601494
652,0.00916956938303674
653,0.00896500295902555
654,0.00876551404208924
655,0.00881218819334056
656,0.00869560480243976
657,0.00871121662426191
658,0.00878624690671653
659,0.00895809173248508
660,0.00901896284281099
661,0.00902698795230555
662,0.00901916736878186
663,0.00892335207756884
664,0.00885084402525095
665,0.00885429471513989
666,0.00884148764538439
667,0.00884221524809053
668,0.00880116168279453
669,0.00863040258989727
670,0.00867045573474474
671,0.00856226773048056
672,0.00855180440569773
673,0.00855775479902258
674,0.00853037376738484
675,0.00850486110321647
676,0.00844194238675077
677,0.00849273968211702
678,0.00837645673772952
679,0.00832515331425861
680,0.00851312129661692
681,0.00832502102111141
682,0.00810840805494055
683,0.00794835257337088
684,0.0076309883981195
685,0.00735763286161059
686,0.00716210291611963
687,0.00701373147897703
688,0.00691824819628786
689,0.0069919407817017
690,0.0071193513425282
691,0.00734503641658702
692,0.00740198194641936
693,0.00747843976679372
694,0.00762188002059235
695,0.00759856291017637
696,0.00771734015184226
697,0.00772579193152386
698,0.00763480387534379
699,0.00766878616605818
700,0.00774901249112482
701,0.00770972256968019
702,0.00779876702267107
703,0.00780816495146514
704,0.00797248793915562
705,0.00790264318643812
706,0.00799461240186772
707,0.00804694905566315
708,0.00807281740241438
709,0.00811757827837287
710,0.00802944443690706
711,0.00807065133976675
712,0.00811436048349287
713,0.00789352429917702
714,0.00779452412445773
715,0.00756207196893676
716,0.00734607486429007
717,0.00718999587005446
718,0.00717938419345037
719,0.00718003380259312
720,0.00724119262645328
721,0.00714562815231152
722,0.00736105838767605
723,0.00736081561833436
724,0.007340599366594
725,0.00735573441988593
726,0.00735063177642284
727,0.00743868970787425
728,0.00748187662459661
729,0.00754224078335656
730,0.00765950549623974
731,0.00779964345918961
732,0.00789769545022751
733,0.00806778986579528
734,0.00812211194656996
735,0.00813764942341584
736,0.00821728911491592
737,0.00821243414773978
738,0.00820757918056364
739,0.00820272421338751
740,0.00827200478430506
741,0.00825696485391515
742,0.00826293904924795
743,0.00826891324458075
744,0.00827488743991354
745,0.00830097848954578
746,0.00823234884978601
747,0.00828041777005754
748,0.00812941775056655
749,0.00812196242409739
750,0.00811097637417106
751,0.0080351158254664
752,0.00816712226660917
753,0.00791460897691046
754,0.00785197075603025
755,0.00732886182659503
756,0.0068057528971598
757,0.00628264396772458
758,0.00545733972315441
759,0.00468787779285741
760,0.00417518347669042
761,0.00401293527684785
762,0.00416508974366572
763,0.0044679877635992
764,0.00495442788121995
765,0.00542060742036305
766,0.00594580227894909
767,0.00645723336256705
768,0.00678055955122403
769,0.00698263784644761
770,0.00708568806205435
771,0.00715046897256783
772,0.00722721733503421
773,0.00731789061480041
774,0.00723750912951698
775,0.00720781196672704
776,0.0072508883758955
777,0.00712634181197169
778,0.00716855735644614
779,0.00708352756518012
780,0.00714269650562513
