"wavelength","measurement"
380,0.000744586996249382
381,0.000749807835895307
382,0.000809814488740432
383,0.000759035930109046
384,0.00079502408599342
385,0.000855216745466253
386,0.000901299112795511
387,0.00098070783987279
388,0.00105768105433727
389,0.00111177158985637
390,0.00115506200252707
391,0.00118469576207093
392,0.00121577704767454
393,0.00127180375660478
394,0.00138552978153278
395,0.00147668267942502
396,0.00166322241314564
397,0.00192270846894975
398,0.00218219452475386
399,0.00244168058055796
400,0.00259827185720629
401,0.00281254111803762
402,0.00299300675295386
403,0.00316065513921036
404,0.00324639822843697
405,0.00337202684724635
406,0.00352575771390337
407,0.00364993191324217
408,0.00379539242762431
409,0.00397119263882895
410,0.00421774959461558
411,0.00430587767896097
412,0.00454047516646405
413,0.00475954933110845
414,0.00482205747720785
415,0.00498189837441889
416,0.00492696126222271
417,0.00502087607409053
418,0.00509803297015774
419,0.00506186061324327
420,0.0052366686254379
421,0.00527304799269486
422,0.00536170319836621
423,0.00544325573928028
424,0.00550268340801478
425,0.00546407002601117
426,0.00546674837387834
427,0.0053256741186554
428,0.00518203485437633
429,0.00519106025266924
430,0.00524882310260634
431,0.00548660521584803
432,0.00573413552603643
433,0.00591848878860506
434,0.00622209147683778
435,0.00638429767135062
436,0.00651315262119508
437,0.00665833422658327
438,0.00680351583197145
439,0.00694869743735963
440,0.00699739901904255
441,0.00718887429633994
442,0.0073775365862109
443,0.00750250830030797
444,0.00767445542078383
445,0.00784640254125969
446,0.00801834966173554
447,0.00820798000812022
448,0.00828267516677249
449,0.00866903527533913
450,0.00865374341976434
451,0.00863916308160042
452,0.00865764367022096
453,0.00867612425884149
454,0.00869460484746203
455,0.00871531014532462
456,0.00876003196686645
457,0.00896874015177987
458,0.00900496867471144
459,0.00921549406925912
460,0.00928244583169241
461,0.00924665088690241
462,0.00951521458562816
463,0.00926315440086079
464,0.00924376667657305
465,0.00919073924794697
466,0.00913441007211217
467,0.00912921757878287
468,0.00906535895656516
469,0.00901060418589552
470,0.00926813343757073
471,0.00927733303723257
472,0.00938045083172066
473,0.00953272613055373
474,0.00962188851814452
475,0.00979151444270235
476,0.0095982501834277
477,0.00962085745992824
478,0.00964346473642879
479,0.00966607201292933
480,0.00966941066053221
481,0.00943537703426735
482,0.00928602088569101
483,0.00927920292192403
484,0.00912593419686973
485,0.00893339503825967
486,0.00903857592550912
487,0.00914449374752147
488,0.00925463090077104
489,0.00955341943628623
490,0.00969201119933882
491,0.0097758935698833
492,0.0100368874405675
493,0.00996949554143208
494,0.0101509105687205
495,0.0100243916117505
496,0.0100787719092465
497,0.00994080628740883
498,0.0100089748284146
499,0.00979228111159386
500,0.00992317583067897
501,0.00982959974772516
502,0.010022476185937
503,0.0101325064646948
504,0.0100443595578264
505,0.010399991803987
506,0.0104127460635096
507,0.0104147499620369
508,0.0105082626219299
509,0.0104982950319544
510,0.0103598366395374
511,0.0105419280306333
512,0.0104225168737138
513,0.0101383549368244
514,0.0101023356704749
515,0.00995646471341942
516,0.00988468534297864
517,0.00988031362641239
518,0.00987821909346827
519,0.0100427430627739
520,0.0102802070604605
521,0.0103975230092594
522,0.0105148389580584
523,0.0106321549068573
524,0.0105662026999384
525,0.0106170572899641
526,0.0106485578923009
527,0.0105427416653948
528,0.0106546582598336
529,0.0107734392778184
530,0.0107848812948421
531,0.0108244158850637
532,0.0107722042235441
533,0.0108893642519511
534,0.0109176475290121
535,0.0108108462409555
536,0.0109481398060334
537,0.0108734233866325
538,0.0107931460008696
539,0.0107320114281066
540,0.0107836047960487
541,0.0107276439795269
542,0.010694437929808
543,0.0107265188201662
544,0.0108121976402076
545,0.0107007437902473
546,0.0108085136314535
547,0.0107903898301436
548,0.0107722660288338
549,0.0107541422275239
550,0.0107066991662085
551,0.0107812164941671
552,0.0108268433845809
553,0.0107621714486939
554,0.0107236772812177
555,0.0108230322758887
556,0.0107237376431774
557,0.0106909219723447
558,0.0106337079772068
559,0.0105280015444981
560,0.0106886498252379
561,0.0104780614313
562,0.0106895700768884
563,0.0105204110111819
564,0.0105522810638201
565,0.0104070791455043
566,0.0103683610694664
567,0.0102544807775139
568,0.0103271576300893
569,0.0102174575532619
570,0.0101898981921679
571,0.010209427438162
572,0.0102194904312413
573,0.0102103249134612
574,0.0102785485134767
575,0.0101440778318831
576,0.0101772966738223
577,0.0102105155157615
578,0.0102437343577007
579,0.0102769531996398
580,0.010310172041579
581,0.0104201820576927
582,0.0103860663308573
583,0.0104355774603915
584,0.0102505333693051
585,0.0102438100317853
586,0.00994013863671476
587,0.00977140487959336
588,0.00965864745948548
589,0.00954589003937761
590,0.00943313261926973
591,0.00949301464979796
592,0.00954916367937013
593,0.00956074641742242
594,0.00966124128904054
595,0.0096320359309953
596,0.00973567156064042
597,0.00976586581535347
598,0.00976829213847942
599,0.00975111036479255
600,0.00982576071858114
601,0.00986188029569725
602,0.00991899685138769
603,0.0098580646630546
604,0.00993529422900763
605,0.00986847615307546
606,0.00989050063045881
607,0.00981667833649326
608,0.00971666701625648
609,0.00968851879687299
610,0.00964749417843126
611,0.00954078380707361
612,0.00948224823633147
613,0.00940123446600128
614,0.00927782271374385
615,0.00934057521507262
616,0.00925744134286987
617,0.00934074775150039
618,0.00929983074893636
619,0.00932837412672961
620,0.00927961962725501
621,0.00931539706146376
622,0.00910679179176762
623,0.00911047653458752
624,0.00900956268136334
625,0.00890864882813917
626,0.00880773497491499
627,0.00878575373240718
628,0.00873314399178904
629,0.008719708001529
630,0.00877019740595338
631,0.00864826889108402
632,0.00867987675241186
633,0.00871885148577864
634,0.00874752144623659
635,0.00877074852147526
636,0.00872603156246647
637,0.00876324844818339
638,0.00865932746812158
639,0.00873067252546435
640,0.00867130338691257
641,0.00865546058962636
642,0.00859577378969474
643,0.00853592921554201
644,0.00847608464138928
645,0.00841624006723654
646,0.0084471574141903
647,0.00840918052703646
648,0.00825774741193453
649,0.00841275099751829
650,0.00830756518757534
651,0.00836700323411174
652,0.00827542609859919
653,0.00811901632676691
654,0.00798566450761299
655,0.00806641209343765
656,0.00799578076095906
657,0.00804897624591709
658,0.00817706212330957
659,0.00839286186182217
660,0.00847207876440494
661,0.00851823352597549
662,0.00857051281178512
663,0.00851902570330925
664,0.00846969181495523
665,0.00852300820816392
666,0.00855786914777598
667,0.00858183913643187
668,0.0086067288381507
669,0.00845680251645584
670,0.00852048833936069
671,0.00847970828109281
672,0.00850700419394627
673,0.00852068616287987
674,0.00856557121794209
675,0.0085742669810987
676,0.00856181106097168
677,0.00863896308579622
678,0.00854918874554535
679,0.0085128883556264
680,0.00878534821799304
681,0.00861791664021529
682,0.00841497452937207
683,0.00823740425727651
684,0.00790588410351426
685,0.00767237687740651
686,0.00744987908307016
687,0.00729556500681725
688,0.00720440908211298
689,0.0072416109238261
690,0.00739181748250765
691,0.0075883077195683
692,0.00760962935468092
693,0.00767630716420438
694,0.00781385378179599
695,0.00782694446453487
696,0.00795260619005936
697,0.00794709434689563
698,0.00783389638818002
699,0.00786951600887064
700,0.00797408029639135
701,0.00788191581490711
702,0.0079770992584486
703,0.00795664034490216
704,0.00812621319207762
705,0.00807037643298278
706,0.00819023838731386
707,0.00828127350908853
708,0.00823189437447985
709,0.00829226693480857
710,0.00815679954212484
711,0.00817500491517114
712,0.00816184323344328
713,0.00779080082323768
714,0.00760766042989368
715,0.00720341739428607
716,0.00682917394687563
717,0.00655935747705663
718,0.00645257066847163
719,0.00644596019596764
720,0.00647636980122105
721,0.00640251954488973
722,0.00656878282979404
723,0.00650871260338397
724,0.00644689376956096
725,0.00643077636450741
726,0.00636901772946216
727,0.00642892928337922
728,0.00648288423055503
729,0.00654351167710069
730,0.00670316636376496
731,0.00687503767881869
732,0.00701241281822864
733,0.00720212987278873
734,0.00728215770721522
735,0.00731281658832765
736,0.00735383226370605
737,0.00737018577791611
738,0.00738653929212616
739,0.00740289280633621
740,0.00749601545898077
741,0.00748664279609968
742,0.0075035570064513
743,0.00752047121680291
744,0.00753738542715453
745,0.00753708128321375
746,0.0074848462503474
747,0.00751206865751449
748,0.00735114706220071
749,0.00737239633715412
750,0.00732298678504235
751,0.0072943632917268
752,0.00730508861273759
753,0.00717558637927752
754,0.00711516615174147
755,0.00661174958843782
756,0.00610833302513416
757,0.0056049164618305
758,0.00480744210111636
759,0.00406914030119081
760,0.00360503024205871
761,0.00343665646965631
762,0.00359401922489453
763,0.00387432288942348
764,0.00434452710448261
765,0.00478417858420299
766,0.00530144137773517
767,0.00577231097322494
768,0.00606227641050633
769,0.00622994371771148
770,0.00640072764633092
771,0.00647404657732178
772,0.00651795597728205
773,0.00658372118032976
774,0.00654144965656351
775,0.00650031082176849
776,0.00652936391883675
777,0.00642529141740799
778,0.00644847960424007
779,0.00638942881495173
780,0.00641109995833407
