"wavelength","measurement"
380,0.0102686405716749
381,0.00942581988189806
382,0.00966495715070735
383,0.00956919670658686
384,0.0107078517181782
385,0.011198792226146
386,0.0121407204230601
387,0.0131615280639348
388,0.01416917806578
389,0.0150871735234357
390,0.0151410961758532
391,0.0159869409223608
392,0.0167908097420179
393,0.0179568032578789
394,0.0192503722751114
395,0.0210652734381856
396,0.024474855052436
397,0.0282140537275591
398,0.0319532524026822
399,0.0356924510778053
400,0.0390626029078629
401,0.0426558255145419
402,0.0453498892392858
403,0.0470613342707987
404,0.0488829607842168
405,0.0497842601908667
406,0.0515303860900319
407,0.0537173699505682
408,0.0557476528830306
409,0.0581403525808725
410,0.0622100185508748
411,0.0628013221495519
412,0.0655891594937765
413,0.0671422603242397
414,0.0678272148151065
415,0.0692320180833405
416,0.069015570280344
417,0.0683765318944142
418,0.070252618851536
419,0.0690955214248908
420,0.0706144935799271
421,0.0705994048867048
422,0.0715156254055573
423,0.0717699981703852
424,0.0720081656420873
425,0.0698573087983814
426,0.0696621813915473
427,0.0675898342963757
428,0.0658023989389541
429,0.0658930110827702
430,0.0655232143159004
431,0.0686153672251596
432,0.0708033820999984
433,0.0732882506462125
434,0.0764466138125358
435,0.0779128550732275
436,0.0791576511081531
437,0.080503891870616
438,0.0818501326330789
439,0.0831963733955418
440,0.0834503449410131
441,0.0853382507961276
442,0.0873074296439689
443,0.087845509668838
444,0.0892735277407834
445,0.0907015458127288
446,0.0921295638846742
447,0.0935265935327946
448,0.0935253380961827
449,0.0971647462984826
450,0.0962730632392216
451,0.0954860211785893
452,0.0951326679902517
453,0.0947793148019141
454,0.0944259616135766
455,0.094667154996673
456,0.0950142556235125
457,0.0957965963446284
458,0.0965357034504279
459,0.0980760664599271
460,0.0987447180154076
461,0.097450323575504
462,0.0999263220590653
463,0.097322887956742
464,0.096672495224697
465,0.096290921473163
466,0.0951628689259457
467,0.0955828974487398
468,0.0951789433681955
469,0.0947472446834654
470,0.0971695070385969
471,0.0979761035436435
472,0.0990669756901295
473,0.100603055772029
474,0.101448554721298
475,0.103326259008508
476,0.10205294515765
477,0.102260608699493
478,0.102468272241336
479,0.10267593578318
480,0.10266375002559
481,0.100322268690873
482,0.0988222137029127
483,0.0984610456629436
484,0.0963397575817751
485,0.0946561326140378
486,0.0961201158373786
487,0.0968158625418805
488,0.0983094719393751
489,0.100386655496539
490,0.101613912293383
491,0.102204511378921
492,0.104980284748509
493,0.103320028941226
494,0.10491164486124
495,0.103313679608066
496,0.10402869131973
497,0.10169370886103
498,0.102229568647679
499,0.0998435452199645
500,0.100571443273891
501,0.0997991833651369
502,0.100963934285802
503,0.101943902286443
504,0.100576774230646
505,0.103474639474318
506,0.102699958797447
507,0.103055695376785
508,0.103584770316679
509,0.102978274963923
510,0.101256483427259
511,0.102057275113137
512,0.10103478899407
513,0.0976297193115697
514,0.0968816287866204
515,0.0949585272895625
516,0.0941751266946535
517,0.0937608268252204
518,0.0930524831673945
519,0.0944673596367196
520,0.0959772731390858
521,0.0966099247572461
522,0.0972425763754065
523,0.0978752279935669
524,0.096842415427174
525,0.096458188723473
526,0.0965082438287101
527,0.0961287329057136
528,0.0957516577712809
529,0.0968972580276059
530,0.0964973970152803
531,0.0962368529597792
532,0.0958362482833684
533,0.0965511388743756
534,0.0969220617085853
535,0.0952108351981518
536,0.0960637726920462
537,0.0951148542687278
538,0.0942829435592806
539,0.0936109274361388
540,0.0939021267563966
541,0.093507175953145
542,0.0924157632956498
543,0.0930897579222054
544,0.093442407093815
545,0.0927348921273953
546,0.093246252734798
547,0.0931721784661278
548,0.0930981041974576
549,0.0930240299287873
550,0.0921559306212072
551,0.092584450995386
552,0.0933605517874567
553,0.0925072620881848
554,0.0922394884243631
555,0.0928695615826239
556,0.0911205230437028
557,0.0912165101319555
558,0.0904120930403969
559,0.0894066495097142
560,0.0905289103805962
561,0.0887296669708048
562,0.0902176337217464
563,0.0887494459331088
564,0.0888425970156197
565,0.0876989753024123
566,0.0869166749212482
567,0.0860146459908522
568,0.0864786601254026
569,0.0858114220169929
570,0.0858369222897585
571,0.0862320062144856
572,0.0860951590952533
573,0.086431813575507
574,0.0868085218947467
575,0.0860638336350658
576,0.086685204225994
577,0.0873065748169221
578,0.0879279454078503
579,0.0885493159987784
580,0.0891706865897065
581,0.0904988920179962
582,0.0902676028214663
583,0.0913661631674624
584,0.0899468036920996
585,0.0896346659633905
586,0.0876216334282247
587,0.0867637683070685
588,0.0860965192149185
589,0.0854292701227685
590,0.0847620210306185
591,0.0853358671777692
592,0.0862277791902243
593,0.0867339451322321
594,0.0880646113879926
595,0.0881121735694302
596,0.0890999941741675
597,0.0896891408168925
598,0.090037434327864
599,0.0903492451623356
600,0.0912942059378712
601,0.0920958560872785
602,0.0926120121481092
603,0.0922306077522353
604,0.0929727579920739
605,0.0928439450179316
606,0.0931859454080102
607,0.0929817234798333
608,0.0917554636078877
609,0.0920896767583165
610,0.0915169652467862
611,0.0909229241800696
612,0.09049423957544
613,0.0899551532829547
614,0.0895777204913864
615,0.0905015478174748
616,0.0895287457712335
617,0.0906170463713442
618,0.0906881352981913
619,0.0909754852472273
620,0.0906217073384963
621,0.0917521620276703
622,0.0893889511274641
623,0.0900105276363557
624,0.0893334736716695
625,0.0886564197069833
626,0.0879793657422972
627,0.0877691430542494
628,0.0876910160750574
629,0.0876548003354371
630,0.08858869913248
631,0.0875158952329233
632,0.0883489810911498
633,0.0887762869322789
634,0.089381637793691
635,0.089863806824641
636,0.089294405313319
637,0.0898356511731904
638,0.0896418602728195
639,0.0901814242620457
640,0.0899414400043675
641,0.0900307367618352
642,0.0897798025684385
643,0.0892756487734848
644,0.088771494978531
645,0.0882673411835773
646,0.0883894500354927
647,0.0887271441622429
648,0.0878694397154531
649,0.0889158865893602
650,0.0879846300311646
651,0.088877605526106
652,0.088084658586142
653,0.0869047832874502
654,0.0857649364777636
655,0.0864814599317132
656,0.0862591160679238
657,0.087185529953843
658,0.0882725548723004
659,0.0907968728364249
660,0.0915442491852241
661,0.092081799993571
662,0.092502107792659
663,0.0924779828792591
664,0.0916803834664794
665,0.0926797704147897
666,0.0924961468873671
667,0.0934537067493663
668,0.093471537675193
669,0.0920783248299501
670,0.092429187950699
671,0.0925808597233232
672,0.0922072818468137
673,0.0926913363196801
674,0.0931161255897669
675,0.0930843093560098
676,0.0930251295998276
677,0.0939559975503628
678,0.0929581861030558
679,0.0929778484783948
680,0.0953115969061512
681,0.0937563233702025
682,0.0910507103152796
683,0.0889448803830585
684,0.0860140975201642
685,0.0832554892263098
686,0.0813407209698116
687,0.0799014446934327
688,0.079348404972129
689,0.0801284788696155
690,0.0813919935605699
691,0.0836638508424448
692,0.0837650113516014
693,0.085518777199845
694,0.0870171848208201
695,0.0874865747713032
696,0.0888262581492101
697,0.0891984991400399
698,0.0883565747879319
699,0.0887208911778204
700,0.0901964890362732
701,0.0900114409853772
702,0.0913922216633206
703,0.0921150763969444
704,0.0939697126669721
705,0.0939346100586507
706,0.0955658316590148
707,0.0964833413289012
708,0.0967964926137248
709,0.0984823566559034
710,0.0976017793513062
711,0.0977044766751631
712,0.0975689779703232
713,0.0938943765243538
714,0.0916693275602432
715,0.0875352823503003
716,0.0833708692098913
717,0.0815127753016101
718,0.0804008388954132
719,0.0814696403964095
720,0.0824616278486952
721,0.0819322493471822
722,0.0843088263461995
723,0.0837197237970991
724,0.083667632468822
725,0.0844683969451053
726,0.0844874197094068
727,0.0857426479431315
728,0.087051424426997
729,0.0895648555056585
730,0.0915388973420145
731,0.0944144376741587
732,0.097262715615782
733,0.0999336118771671
734,0.102000778110734
735,0.103318235512025
736,0.104959057081225
737,0.105776384625278
738,0.106593712169331
739,0.107411039713384
740,0.110029687243784
741,0.110516775488221
742,0.11143614848603
743,0.112355521483839
744,0.113274894481648
745,0.113862841876338
746,0.113778708840599
747,0.11513799829336
748,0.113990859287393
749,0.114437847721969
750,0.115665031226941
751,0.115207792934689
752,0.116366858148293
753,0.115770701366173
754,0.113073624051506
755,0.104905565660895
756,0.0967375072702836
757,0.0885694488796725
758,0.076218391836181
759,0.0650603156354583
760,0.059911479475877
761,0.0589817954453148
762,0.0619732627554754
763,0.0681263301670758
764,0.0759857843753727
765,0.0843036410320793
766,0.0928250929384499
767,0.101960495427309
768,0.106512505077682
769,0.109847790885341
770,0.113474644469701
771,0.114845464519982
772,0.116758973588794
773,0.118083971305898
774,0.117311044402401
775,0.117519392785817
776,0.118205209908313
777,0.117059867997611
778,0.118502898239243
779,0.117334893322531
780,0.118872949654331
