"wavelength","measurement"
380,0.00154695394845583
381,0.0015750215000257
382,0.0016200067830391
383,0.00160637659550126
384,0.00165313888171583
385,0.00179671255208302
386,0.00194633897037327
387,0.00206469166832836
388,0.00225744106680772
389,0.00230660831480707
390,0.00234996623738454
391,0.00228997894704792
392,0.00237650554665682
393,0.00249520510265888
394,0.00267185436444945
395,0.00276652251172105
396,0.00318504676435356
397,0.00356766474299799
398,0.00395028272164243
399,0.00433290070028686
400,0.00465021985326557
401,0.00504864119866931
402,0.00527623815483554
403,0.00541193510495542
404,0.00559827931196402
405,0.00563589818342268
406,0.00589591798555982
407,0.00602119942171604
408,0.00618216700121913
409,0.00636558933492006
410,0.00673682371129874
411,0.00689194421404192
412,0.00709885348274594
413,0.00737281433870081
414,0.00748009879218422
415,0.00764957654066499
416,0.00760134226843294
417,0.00762315427343442
418,0.00782481208374877
419,0.0077299865717299
420,0.00797957967330707
421,0.00800794687843121
422,0.00808665216032203
423,0.00816816813532087
424,0.00826072991923107
425,0.00815608126531297
426,0.00813701521913366
427,0.00795526700690521
428,0.00772028117896625
429,0.00778075377405801
430,0.00778293201061482
431,0.0081528443662076
432,0.00847396658589445
433,0.00878966934918149
434,0.00914362831096678
435,0.00939316528584454
436,0.00957139037919597
437,0.00975309934151648
438,0.009934808303837
439,0.0101165172661575
440,0.0102162901543629
441,0.0104451695887426
442,0.0106788023331221
443,0.0108514740734609
444,0.0110720985751111
445,0.0112927230767613
446,0.0115133475784114
447,0.0118145568571552
448,0.0118815231962432
449,0.0124096908410875
450,0.0123787664679162
451,0.0123718963999432
452,0.0123665029905409
453,0.0123611095811385
454,0.0123557161717362
455,0.0123700994994217
456,0.0124744088374092
457,0.0127115039637812
458,0.0127730224269905
459,0.0130460206286713
460,0.0130851484625426
461,0.0130168471977021
462,0.0133614730854883
463,0.0130313579171366
464,0.0129432015731752
465,0.0128972501205247
466,0.0127687400216137
467,0.0127382036648556
468,0.0126817688983212
469,0.0125451110378245
470,0.012930821417781
471,0.0128822051245026
472,0.0130482567885773
473,0.0132110267962527
474,0.0132777120791609
475,0.0134909765284904
476,0.0132332460105959
477,0.0132548520129038
478,0.0132764580152117
479,0.0132980640175196
480,0.0132748484269141
481,0.0129556745812744
482,0.0127259895279306
483,0.0127505789787261
484,0.0124667492754926
485,0.0122174808706127
486,0.0123740776979154
487,0.0124999474343231
488,0.0126166931688835
489,0.0129926590558244
490,0.0131709154892892
491,0.0132688800837304
492,0.0136557056773056
493,0.0135322141631599
494,0.0137487330200614
495,0.0135849495524604
496,0.013684023087847
497,0.0134857494440734
498,0.0135519096425579
499,0.0132615666466467
500,0.0133887158446211
501,0.0133093342896265
502,0.0135442116412602
503,0.0136742553051594
504,0.0135605991056552
505,0.0139958783289607
506,0.014006625857325
507,0.0140463595878727
508,0.0141678291310487
509,0.0141384378226673
510,0.0139430124467944
511,0.0141550979954452
512,0.0140211428563754
513,0.0136376718449778
514,0.0135759817173859
515,0.013360328798476
516,0.0132710971368805
517,0.0132914347141883
518,0.0132531423196392
519,0.0135051175862396
520,0.0137816930340688
521,0.0139407068548546
522,0.0140997206756404
523,0.0142587344964262
524,0.0141518938085858
525,0.0142151179095431
526,0.0142202736792885
527,0.0141423834506112
528,0.0142607759955917
529,0.0144230311458096
530,0.0144539035289148
531,0.0144821557258799
532,0.0144211069504802
533,0.0145649378296495
534,0.0146064901194024
535,0.01444955764225
536,0.0146253207551485
537,0.0145327240544138
538,0.0144393246414205
539,0.014345574199422
540,0.0144309892848563
541,0.0143206201405514
542,0.0143001797616308
543,0.0143361506538949
544,0.0144255507743966
545,0.0143072431643847
546,0.0144360146458983
547,0.0144006053789914
548,0.0143651961120844
549,0.0143297868451775
550,0.0142701778215975
551,0.0143631610754067
552,0.0144681762410693
553,0.0143735507696384
554,0.0143050120331577
555,0.0144385630849359
556,0.0143161586297715
557,0.0142322689476346
558,0.0141625178878847
559,0.0140581479999254
560,0.0142203043069091
561,0.0139744877710708
562,0.0142024876881727
563,0.0140210152989462
564,0.0140434931337962
565,0.0138739185641988
566,0.013817908737003
567,0.0136228887809373
568,0.013732985702092
569,0.0135618763337275
570,0.0135379210659679
571,0.0135576874820406
572,0.0135804504612296
573,0.013541277006232
574,0.0136445135916724
575,0.0134636496980026
576,0.0135063377701805
577,0.0135490258423584
578,0.0135917139145363
579,0.0136344019867142
580,0.0136770900588921
581,0.0138212149699399
582,0.0137509881128066
583,0.0138249613195032
584,0.0136110694067487
585,0.0135511680112861
586,0.0131750642697045
587,0.0129584950435297
588,0.0128075294562203
589,0.0126565638689109
590,0.0125055982816014
591,0.0125181904400673
592,0.0126156389289808
593,0.0126626906900956
594,0.0127643025626145
595,0.0127545513330635
596,0.0128687041745528
597,0.01292445346037
598,0.0128821332782538
599,0.0128803571216213
600,0.012967828968467
601,0.0130438394484074
602,0.0131163815220179
603,0.013040144609601
604,0.0131546162379013
605,0.013068681727302
606,0.0130617247062085
607,0.0129598223056945
608,0.0128347720369448
609,0.012789076330247
610,0.0127193560370987
611,0.0126047191078161
612,0.0124884678407495
613,0.0124187646917922
614,0.0122311861464005
615,0.0123899970501476
616,0.0122457491006115
617,0.0123356191995312
618,0.0122870364199152
619,0.0123059210850865
620,0.012208370008539
621,0.0122945250494708
622,0.012008818723031
623,0.012027736013667
624,0.0118986922836015
625,0.0117696485535359
626,0.0116406048234704
627,0.0116110117909401
628,0.0115252623703282
629,0.0115067450634985
630,0.011595351486345
631,0.0114096821918999
632,0.0114659065945692
633,0.0115468451541533
634,0.0114993978761642
635,0.0115267929808321
636,0.0115008812217505
637,0.0115318830190693
638,0.0114337917791746
639,0.0115272862438529
640,0.0114310999789608
641,0.0114032421350596
642,0.0112955715373783
643,0.0111986217192482
644,0.011101671901118
645,0.0110047220829879
646,0.0110850120303208
647,0.0110181837092727
648,0.0108011000945629
649,0.0109796758531944
650,0.0108268884613974
651,0.0109317519089517
652,0.0107898627172413
653,0.010609021725603
654,0.0103817235469261
655,0.0104853689504195
656,0.0104083426205638
657,0.0104541278005941
658,0.0105860993230412
659,0.0108857669062897
660,0.0109344747384644
661,0.0109590128508347
662,0.0110262093381764
663,0.0109310521626125
664,0.0108485935838618
665,0.0109087040722867
666,0.0108952566946369
667,0.0109388686764262
668,0.0109215370210817
669,0.0107235550519999
670,0.0107725045260393
671,0.0107552417781138
672,0.0107219354552693
673,0.0107235551605333
674,0.0107584403443683
675,0.0107362194633368
676,0.0107055382155153
677,0.0107911996568445
678,0.0106460686971174
679,0.0106411933100167
680,0.0109068434255723
681,0.0106844805449352
682,0.0104032609385722
683,0.0101606268196344
684,0.0097884171093738
685,0.00945925009461266
686,0.0092174901419537
687,0.00897998455512614
688,0.00888943434741643
689,0.00894116274113708
690,0.00909076026117081
691,0.00935302338113517
692,0.00938510571185788
693,0.00947356468492498
694,0.00962194961345979
695,0.00963919433197045
696,0.00978861768656865
697,0.00979693052805189
698,0.00968679692510349
699,0.00970397747014274
700,0.00986631634878231
701,0.00979252360453624
702,0.00993493714244334
703,0.00995188340678143
704,0.0101899280263608
705,0.0101085014582329
706,0.0102880384882947
707,0.0103318992545726
708,0.0103477285120927
709,0.0104551451862001
710,0.0103558676418392
711,0.0103781838893646
712,0.0103358767359323
713,0.0099364753189052
714,0.00974735427067599
715,0.00917322205919447
716,0.00877020033522872
717,0.00844406201368249
718,0.0083654611094683
719,0.00837616236576396
720,0.00843642139796271
721,0.00836972749246761
722,0.00860614779595708
723,0.00855812821559114
724,0.00847682994580895
725,0.00848962685571744
726,0.00844350198766981
727,0.00854525267393694
728,0.00862941030143313
729,0.00879158101257529
730,0.00900353179575274
731,0.00928870163138418
732,0.00948476008198122
733,0.00970373996726315
734,0.00984624472699759
735,0.00995742271872641
736,0.0100300074508458
737,0.0100746459872231
738,0.0101192845236004
739,0.0101639230599777
740,0.0102997532597163
741,0.0103401055758604
742,0.0103672470823614
743,0.0103943885888624
744,0.0104215300953634
745,0.0103856223614674
746,0.0104191002799318
747,0.0103813658871362
748,0.0102416486014409
749,0.0102540394787377
750,0.0102088524751415
751,0.0100935967013597
752,0.0102045180179864
753,0.0100359669416418
754,0.0099451751532249
755,0.00922730800716288
756,0.00850944086110087
757,0.00779157371503885
758,0.00668503323519782
759,0.00568323831206368
760,0.00500834338246087
761,0.0048523927489338
762,0.00503865914245183
763,0.00544257658947487
764,0.00604792839685683
765,0.00666979558103625
766,0.00738762331103559
767,0.00808448127450897
768,0.0084565068033572
769,0.00875022222545595
770,0.00897224043335109
771,0.00908282217094238
772,0.00914338815185031
773,0.0092317532336801
774,0.00916511621018418
775,0.00914314943623123
776,0.00919750356400285
777,0.00905999822333953
778,0.00908269531144262
779,0.00897385138271399
780,0.00905790196365289
