"wavelength","measurement"
380,0.00166266560096294
381,0.00163417251220937
382,0.00170526414373783
383,0.0017065429647993
384,0.00174401167661326
385,0.00186047033992553
386,0.00197024590648125
387,0.00212996979994519
388,0.00225614249335231
389,0.00233930318599768
390,0.00233400555123249
391,0.00234120860803761
392,0.00240889557338842
393,0.00246669844551875
394,0.00260391109491598
395,0.00271873519154172
396,0.0030517972388339
397,0.00341431523551093
398,0.00377683323218797
399,0.00413935122886501
400,0.00430467847923547
401,0.00460500923507295
402,0.00476815418485205
403,0.00485392714633448
404,0.00490576048352577
405,0.00493165295083725
406,0.00503571895473975
407,0.00513784017185569
408,0.00518919682451044
409,0.00532029024939587
410,0.0055695015448576
411,0.00560740427762043
412,0.00580866321493835
413,0.0059421232332975
414,0.00596077783535699
415,0.00598182013057533
416,0.00596750958322686
417,0.00592081280094182
418,0.00600207013639329
419,0.00592518656127826
420,0.00609437089268771
421,0.00608815216511422
422,0.00615441385179693
423,0.00620239971600959
424,0.0062043500891146
425,0.00611078756934967
426,0.00606074818781003
427,0.005909805688856
428,0.0057377762108243
429,0.00576707750436672
430,0.00575421005759087
431,0.00598946804277452
432,0.00623887386148427
433,0.00647007230166535
434,0.0067492691546039
435,0.00688235295815883
436,0.00696259888501846
437,0.0071008333180287
438,0.00723906775103894
439,0.00737730218404918
440,0.00741568057164564
441,0.00759512197293686
442,0.00776642646115177
443,0.0079361170883834
444,0.00809133623189112
445,0.00824655537539884
446,0.00840177451890656
447,0.00859616676554118
448,0.00862261485661105
449,0.00897098765923113
450,0.00896478704920662
451,0.00887421582524133
452,0.00884865783560632
453,0.0088230998459713
454,0.00879754185633629
455,0.00878314644769495
456,0.00882230126283084
457,0.00891632798912513
458,0.00894281852877472
459,0.00910094724001297
460,0.00911127439918647
461,0.00901580287693574
462,0.00924108125199416
463,0.00899608426790163
464,0.00886645179249597
465,0.00883137964061563
466,0.00872479400598089
467,0.00871882250189024
468,0.00862969708976295
469,0.00856246627722235
470,0.00874439357311504
471,0.00874979716557185
472,0.00882071802236436
473,0.00894396159829123
474,0.00895544119184796
475,0.00903026450731637
476,0.00890045052723557
477,0.00889403334851061
478,0.00888761616978565
479,0.00888119899106069
480,0.0088286084839476
481,0.00858913069411411
482,0.00846231861609409
483,0.00841695558133477
484,0.00823519803063341
485,0.00806717132262646
486,0.00818130757610104
487,0.00826885611529155
488,0.00835647631869329
489,0.00856818472005181
490,0.00865020138148167
491,0.0087107165190336
492,0.00893544223548083
493,0.00883651587842802
494,0.00897645108295731
495,0.00883631958851394
496,0.00888133609160332
497,0.00874816205301935
498,0.00879872099568461
499,0.00858647918793163
500,0.00866335431217537
501,0.00859562607998157
502,0.00877758287478538
503,0.00883365699179189
504,0.00874999800080235
505,0.00904276629545908
506,0.00900369873708895
507,0.00900221405500846
508,0.00907878980760179
509,0.00905273178159509
510,0.00889306143020353
511,0.00903784697480485
512,0.00892914346367361
513,0.00868719559703472
514,0.00861713618621596
515,0.00847751005946018
516,0.00842768899684919
517,0.00840751614759935
518,0.00839636145868296
519,0.00855526389433919
520,0.00869663720332374
521,0.00878125782859279
522,0.00886587845386183
523,0.00895049907913087
524,0.00886309101749199
525,0.00890717914180347
526,0.00888238363818933
527,0.00883618705204461
528,0.00888957060786417
529,0.00895761652862799
530,0.00895466597647097
531,0.00897363828287959
532,0.00891127516366031
533,0.00899496448762167
534,0.00899139071594827
535,0.00890025154904778
536,0.00897316304135167
537,0.00890526969590416
538,0.00883971363617692
539,0.00877592964002983
540,0.0088205286322346
541,0.00873605519552422
542,0.0086791842174423
543,0.00871711610376675
544,0.00873424428137932
545,0.00866321012849881
546,0.0087164950702569
547,0.00869462703527451
548,0.00867275900029212
549,0.00865089096530972
550,0.00860358801882545
551,0.00866419141795132
552,0.00868718036891227
553,0.00861494067357048
554,0.00856910211962672
555,0.00865941471656262
556,0.00854538940348021
557,0.00852343057218846
558,0.00848148062414582
559,0.00838263410210827
560,0.00849502658727891
561,0.00832634174507439
562,0.00846115909580449
563,0.00832513941284686
564,0.00833772375810781
565,0.0082146962379589
566,0.00816995932409616
567,0.00806879435272838
568,0.00813823154159967
569,0.0080272175329679
570,0.0080131381797587
571,0.00803406343843797
572,0.0080119383158312
573,0.00803176223794465
574,0.00807100054472377
575,0.00796843316064651
576,0.00799018911610919
577,0.00801194507157187
578,0.00803370102703456
579,0.00805545698249724
580,0.00807721293795993
581,0.00816751570982264
582,0.00811641086425536
583,0.00815182999589908
584,0.00801170235860893
585,0.00797842733256905
586,0.00775273962790196
587,0.00762242627332816
588,0.00753933612812364
589,0.00745624598291912
590,0.0073731558377146
591,0.00739383918517932
592,0.00744844304819899
593,0.0074664942455321
594,0.00753081270631929
595,0.0074771315943803
596,0.00754423548658327
597,0.00755378488180112
598,0.00756151375878061
599,0.00754699611504774
600,0.0075927743315271
601,0.00763101770002431
602,0.00765376470056593
603,0.00759774094442193
604,0.00764342270855969
605,0.00759991156604193
606,0.00758610709361712
607,0.00752942403813544
608,0.00743297284588369
609,0.00740347228381895
610,0.00734407572292367
611,0.00726407332863385
612,0.00722307220046866
613,0.00716596185606971
614,0.00707328071369299
615,0.00713708926904995
616,0.00706969798282337
617,0.00713358957968631
618,0.00709911654456407
619,0.00710075340390978
620,0.00704436571090441
621,0.0070849764156901
622,0.00691577440823567
623,0.00689136230351659
624,0.00682326174862481
625,0.00675516119373304
626,0.00668706063884126
627,0.00665357715213011
628,0.0066149371246963
629,0.00657908287532726
630,0.00663440329491992
631,0.00654648085338449
632,0.00655854821203498
633,0.0065978653895641
634,0.00658868500211923
635,0.00659925080318381
636,0.00653559584872495
637,0.00658070710706473
638,0.00650411254799589
639,0.0065474063240351
640,0.00650538943245907
641,0.00646116284648291
642,0.00642002236597704
643,0.00636092276824359
644,0.00630182317051014
645,0.00624272357277669
646,0.00626037830542969
647,0.00621434821991889
648,0.0061150613394205
649,0.00621038156492912
650,0.00611525009125168
651,0.00614867282727293
652,0.00605775979188586
653,0.00591713972932653
654,0.00583163810089371
655,0.00585446900021768
656,0.00581087743539097
657,0.00585804664815411
658,0.00590682103607868
659,0.00604975466405628
660,0.00607593014823169
661,0.00608860983613298
662,0.00610415192685366
663,0.00604751833357798
664,0.00598627492042366
665,0.00600727036104893
666,0.0059977423902898
667,0.00600316724996965
668,0.00598612966432945
669,0.00586202246504249
670,0.0058796787464749
671,0.00583015402257269
672,0.00583504526819416
673,0.00582690682661387
674,0.00581698102105537
675,0.00579893623542177
676,0.00578185698627086
677,0.00580539090189897
678,0.00573061290025472
679,0.00569417984967937
680,0.00582249172722783
681,0.00571429755806612
682,0.00551649011669541
683,0.00538718626772798
684,0.00518444586655069
685,0.00499709338786686
686,0.00485168600752362
687,0.00475870903980688
688,0.00469348543634335
689,0.00470635211926034
690,0.00477218959612668
691,0.00489866728455133
692,0.00489891553270202
693,0.00493263575738413
694,0.0050073054484338
695,0.00501154246795069
696,0.00508505025945039
697,0.00504793149108776
698,0.00497741049909887
699,0.00498622718430221
700,0.00506215722115349
701,0.00502522964928212
702,0.00507047284018005
703,0.00506397261362846
704,0.00516709272923232
705,0.00514479998845309
706,0.00519536618646053
707,0.00522327811684478
708,0.00522627069398782
709,0.00525453189939362
710,0.00518228290185843
711,0.00519219651898386
712,0.00514309464425381
713,0.00493403532986944
714,0.00478664504484759
715,0.00453871226455324
716,0.00433694463882237
717,0.00420353262154607
718,0.00413338072678294
719,0.00416376570515194
720,0.00419541090507731
721,0.00414411982878505
722,0.00421130889387716
723,0.00418998672209753
724,0.00417578640139279
725,0.00417612640224328
726,0.00413759009318066
727,0.00418821482627607
728,0.00422293949769372
729,0.00431259285561773
730,0.00442813611837294
731,0.00452042840203074
732,0.00461543835149702
733,0.00471259140599442
734,0.00478767505756152
735,0.00479989798924254
736,0.00485396247798924
737,0.00486609209883459
738,0.00487822171967994
739,0.00489035134052529
740,0.00496861265230466
741,0.00495141998014046
742,0.004963254807568
743,0.00497508963499555
744,0.0049869244624231
745,0.00496479021753791
746,0.00494899516808372
747,0.00495003248931878
748,0.00485757652784599
749,0.00487466234014094
750,0.00485959809166059
751,0.00484083143293931
752,0.00484359963410445
753,0.00475970745277811
754,0.00468509268098678
755,0.00432606077815638
756,0.00396702887532598
757,0.00360799697249558
758,0.00309841076745337
759,0.00265085775243377
760,0.00240570085773257
761,0.00237386531043517
762,0.00246302506545077
763,0.00267386758280522
764,0.00295129963040707
765,0.00322832423795782
766,0.00356649238358979
767,0.00385683924668884
768,0.00401999573219185
769,0.00413426919094818
770,0.00421789821294228
771,0.00428131615870466
772,0.00430530892528402
773,0.004326640723054
774,0.00430231297762464
775,0.00430936653324297
776,0.00430776194859122
777,0.00422724856006744
778,0.00427791285084079
779,0.00422158492664606
780,0.00425658782659132
