"wavelength","measurement"
380,0.0586076974579193
381,0.0549017293708904
382,0.055903380854411
383,0.0557128173250533
384,0.0556608902397486
385,0.0583366837217637
386,0.0628956548533819
387,0.0664850887746687
388,0.0687748899752576
389,0.0713995156413541
390,0.071212780856082
391,0.0715743505772917
392,0.0725234791329797
393,0.0733947547703925
394,0.0759097783024745
395,0.0818374821238715
396,0.0920326350304917
397,0.103388423197529
398,0.114744211364566
399,0.126099999531602
400,0.132896886732599
401,0.141361569178185
402,0.147183917813277
403,0.149585657563516
404,0.152248329657437
405,0.152722392896755
406,0.155855378786556
407,0.159265051199443
408,0.161611867179185
409,0.166165834380947
410,0.175832296590339
411,0.175711354734292
412,0.181965171748269
413,0.186563713411079
414,0.186239400947907
415,0.188259382858549
416,0.186401877850972
417,0.185191211216455
418,0.188216984428751
419,0.18446244814913
420,0.189222472482707
421,0.19002717161387
422,0.191420078271616
423,0.192431170667876
424,0.192030690326895
425,0.188025889623795
426,0.187829434061265
427,0.180581211014996
428,0.176641524244097
429,0.175419998987708
430,0.176127308219111
431,0.183843300004787
432,0.190081156688001
433,0.197621241143006
434,0.205928787533238
435,0.210124547781325
436,0.212232416923712
437,0.215616307598106
438,0.219000198272501
439,0.222384088946895
440,0.224305032008196
441,0.227985320750122
442,0.233519950933107
443,0.235610448874598
444,0.239670096109614
445,0.243729743344629
446,0.247789390579645
447,0.2520562919351
448,0.253237583318749
449,0.262451039454032
450,0.260545676826768
451,0.259360975077664
452,0.258656866847916
453,0.257952758618168
454,0.25724865038842
455,0.256322865946624
456,0.257002220973664
457,0.260415619667137
458,0.26287473062835
459,0.266787809549196
460,0.268847857565411
461,0.265820436166015
462,0.273532270272077
463,0.265608664815099
464,0.262025156958558
465,0.260976984577572
466,0.258381063436289
467,0.257333625014445
468,0.255827677907552
469,0.256188052977875
470,0.261063760498907
471,0.262148739398257
472,0.26393742854555
473,0.269128157103226
474,0.269489408726613
475,0.27437027104771
476,0.268939072588723
477,0.26914408997764
478,0.269349107366557
479,0.269554124755474
480,0.269404029235901
481,0.262198316256271
482,0.258193583918223
483,0.257895302498564
484,0.252603853069826
485,0.247069027971632
486,0.250695684334853
487,0.251838839235033
488,0.25696039805328
489,0.26289994991872
490,0.265198726043595
491,0.267254374825839
492,0.273942528957644
493,0.270230938426232
494,0.274987483309233
495,0.270416511339403
496,0.271541952400633
497,0.265760866105272
498,0.267024962667826
499,0.261660355102563
500,0.262553051686793
501,0.261252376189242
502,0.265482834592989
503,0.268093967678905
504,0.264064449746331
505,0.272267631313764
506,0.270711060340032
507,0.271672469784152
508,0.273263321046615
509,0.272571937116956
510,0.267986380887088
511,0.271088008643026
512,0.267402004136797
513,0.258724086923058
514,0.256647176085275
515,0.251894218733363
516,0.249885877729797
517,0.249145793366369
518,0.248165663421612
519,0.252891899186352
520,0.256539291859013
521,0.258903395506979
522,0.261267499154944
523,0.263631602802909
524,0.261498173727514
525,0.261290019045973
526,0.26059699023371
527,0.258495515425073
528,0.260309393841937
529,0.261916585680329
530,0.262889495025789
531,0.262342381875508
532,0.260706414001981
533,0.262316603332118
534,0.263291729861625
535,0.260190610807899
536,0.262562440621078
537,0.25997528032396
538,0.257872980522325
539,0.256199366392943
540,0.257773957685469
541,0.25586533167034
542,0.253227280729509
543,0.254949344567852
544,0.25596616283186
545,0.253846327989831
546,0.255626472110215
547,0.255214764407904
548,0.254803056705593
549,0.254391349003281
550,0.252768580670812
551,0.255191994678629
552,0.257537347957453
553,0.254865914826058
554,0.2536065039579
555,0.256258719092609
556,0.252196731562132
557,0.251706389327718
558,0.250024623663597
559,0.247819722743976
560,0.250565601331651
561,0.245966685532995
562,0.250287189145798
563,0.246817317598688
564,0.247631623910826
565,0.24452341615551
566,0.243007159802433
567,0.240063498727178
568,0.242027235320023
569,0.239395800044358
570,0.23957993300847
571,0.240339752417853
572,0.241086947064569
573,0.240872565890537
574,0.243033492115008
575,0.239786325871618
576,0.241183785491355
577,0.242581245111093
578,0.24397870473083
579,0.245376164350568
580,0.246773623970305
581,0.250170066792772
582,0.249016314181107
583,0.250914598855763
584,0.247654944149831
585,0.246468535287144
586,0.23926956326084
587,0.236807820546765
588,0.234574095613675
589,0.232340370680585
590,0.230106645747494
591,0.23114321280846
592,0.233672994270797
593,0.234865414262734
594,0.237830992941474
595,0.237741922101128
596,0.239872973258319
597,0.241535054029311
598,0.241606987423099
599,0.242278555006899
600,0.244495058080685
601,0.246693394608613
602,0.24728628946373
603,0.246808155007283
604,0.249163013885199
605,0.247409094597095
606,0.248306841637156
607,0.247231845463548
608,0.244991871630763
609,0.244499087131875
610,0.243535828523505
611,0.241170396149109
612,0.240310297364355
613,0.23831934209671
614,0.237206590812899
615,0.241237021768108
616,0.237779136860149
617,0.240296872240268
618,0.240446949362001
619,0.24145307022153
620,0.240446211053144
621,0.242556644605399
622,0.237074566075203
623,0.237606944760533
624,0.235580915540472
625,0.23355488632041
626,0.231528857100348
627,0.231298147795556
628,0.23103229467355
629,0.230272139414435
630,0.233380157070077
631,0.229860864046377
632,0.232996035074076
633,0.234074411083551
634,0.234380280523021
635,0.235629883302274
636,0.233560449769963
637,0.236440479401413
638,0.235664780253956
639,0.236708886208033
640,0.23614531210131
641,0.235383964318701
642,0.234384438930903
643,0.232946457408775
644,0.231508475886647
645,0.230070494364519
646,0.232499098935637
647,0.231311842322132
648,0.227783084512279
649,0.231797912805938
650,0.229316977264854
651,0.231010201424493
652,0.229060411365297
653,0.225814045952429
654,0.221424721404479
655,0.224118353345545
656,0.222979973080085
657,0.226216127418658
658,0.228499368485339
659,0.234256681003772
660,0.236829181338049
661,0.237545379634186
662,0.238639700229381
663,0.23792435804552
664,0.236548954642164
665,0.236544131452004
666,0.238218495946982
667,0.238049788846439
668,0.239006185942913
669,0.233874152467095
670,0.236356032965064
671,0.236904348752101
672,0.235348908520659
673,0.235020400726181
674,0.236506032337179
675,0.236050899204509
676,0.236097120414951
677,0.23762598896658
678,0.235015361117054
679,0.23488245264647
680,0.23986945007105
681,0.235958388159704
682,0.229429451896094
683,0.224345827266242
684,0.215921766434591
685,0.208169840580418
686,0.20257217166451
687,0.197923537565119
688,0.197266264635944
689,0.19945330339607
690,0.20224616908928
691,0.207091033513603
692,0.20807790283883
693,0.209948917474773
694,0.213645712598256
695,0.212994450729723
696,0.215812453380041
697,0.216874688557733
698,0.213965226897115
699,0.213794057023647
700,0.218107699685571
701,0.216956669957557
702,0.219352970472158
703,0.219744229451122
704,0.223807752519771
705,0.223589581786058
706,0.225988811598578
707,0.229109367240182
708,0.228788987203823
709,0.230781184588721
710,0.228868976917523
711,0.22809362344291
712,0.227028497934138
713,0.218065878333062
714,0.211594358326129
715,0.200047097201746
716,0.190300664881718
717,0.184577672818061
718,0.182472460870548
719,0.183580197547957
720,0.186697815638386
721,0.184974077359082
722,0.189120878258513
723,0.186935196895869
724,0.186745181394461
725,0.187390672202974
726,0.186447000543776
727,0.189408477879655
728,0.192070166472073
729,0.197032757652189
730,0.200988288139256
731,0.207435755585782
732,0.212878636354407
733,0.218775491700848
734,0.222588867474628
735,0.223464051082542
736,0.22624486981269
737,0.227877788165454
738,0.229510706518219
739,0.231143624870983
740,0.235342986357911
741,0.235603362016285
742,0.237251033143474
743,0.238898704270663
744,0.240546375397852
745,0.241408865609878
746,0.240359245376897
747,0.242958435631185
748,0.239165165247781
749,0.240768263805866
750,0.240589817588161
751,0.239715937763889
752,0.243966591162817
753,0.241689183393285
754,0.235938971309638
755,0.217960439943986
756,0.199981908578334
757,0.182003377212683
758,0.156504846169094
759,0.134095339221805
760,0.120454851361808
761,0.120324807711444
762,0.126688533522246
763,0.139144244835726
764,0.156224267091294
765,0.172510981884896
766,0.191720958253435
767,0.208385759829354
768,0.218563386813924
769,0.225299724781151
770,0.230847635193865
771,0.233799731509533
772,0.236247838368897
773,0.238759926966385
774,0.238915908928404
775,0.23830172340767
776,0.240385883792636
777,0.236627679485859
778,0.240072614999713
779,0.237248203687184
780,0.240592658175597
