"wavelength","measurement"
380,0.00162247008634291
381,0.0016090090171993
382,0.00165044271196018
383,0.00164535210160164
384,0.0016750790261611
385,0.00180400403721304
386,0.00189204039732398
387,0.00207316555645243
388,0.0021596519599289
389,0.00227069829795054
390,0.00230085709969806
391,0.00229676681608787
392,0.00237303497490574
393,0.00241126324862157
394,0.00260704116329376
395,0.00270472224856503
396,0.00310651768846681
397,0.0034823215224492
398,0.00385812535643159
399,0.00423392919041398
400,0.00447855245560996
401,0.00483315372709044
402,0.00507226050054975
403,0.00526690242955852
404,0.00532763602516518
405,0.00535632556438354
406,0.00553276699192226
407,0.00563264866005802
408,0.00577888875337958
409,0.0059695368831553
410,0.00629548522486161
411,0.00647632956163105
412,0.00673106046253913
413,0.00687689481627693
414,0.00694308638644653
415,0.00705716636502057
416,0.00707151186606656
417,0.00708454781328993
418,0.00714495225851801
419,0.00710646605953076
420,0.00731005054682808
421,0.00738087915724989
422,0.00744776040920015
423,0.00750567211702134
424,0.00761866319710663
425,0.00744294336470504
426,0.00745524165276067
427,0.00731237698195528
428,0.00705896208957284
429,0.00705410582442539
430,0.00709781706096602
431,0.00740747503583575
432,0.00778241848810391
433,0.00801045482792236
434,0.00837156842263928
435,0.0086035040151694
436,0.00866961102906218
437,0.00884295558501734
438,0.00901630014097249
439,0.00918964469692764
440,0.00924735907270738
441,0.00946238249570494
442,0.00973460974966447
443,0.00985300043403538
444,0.0100523767159553
445,0.0102517529978753
446,0.0104511292797952
447,0.0106464904994016
448,0.0107719211924578
449,0.0111809770630971
450,0.0111800068991085
451,0.0111609142875933
452,0.0111662384124902
453,0.011171562537387
454,0.0111768866622839
455,0.0111584867721416
456,0.011196406371648
457,0.0114171317854579
458,0.0114341743790092
459,0.0117001876444844
460,0.0117461537090047
461,0.011667366281315
462,0.0119746457515704
463,0.0116741169336922
464,0.0115665286723775
465,0.0115066303384852
466,0.0113983612271242
467,0.0113908445049523
468,0.0112989880102052
469,0.0111809683243111
470,0.0114798728074225
471,0.0114935384970385
472,0.0116284535489363
473,0.0118022505593489
474,0.01182937351393
475,0.0120313657213828
476,0.0117692340367882
477,0.0117900189259058
478,0.0118108038150234
479,0.011831588704141
480,0.0117968227879917
481,0.0114892321124234
482,0.0113214699418054
483,0.0112595250105173
484,0.0110563789841819
485,0.0108295061678635
486,0.0109490740747358
487,0.0110452195136539
488,0.0111460903932015
489,0.0114884672765706
490,0.0116278795820454
491,0.0117532846844894
492,0.0120536109301439
493,0.0119399443090247
494,0.0121352258943719
495,0.0119766187243226
496,0.0120617661800014
497,0.0118729517601803
498,0.0119371850797115
499,0.0117020263642776
500,0.0118249046788447
501,0.0117020325900206
502,0.0119554068847881
503,0.0120000865266044
504,0.0119018190831044
505,0.0122910809335893
506,0.0123076331848003
507,0.012305354385261
508,0.0124240036783327
509,0.0124014965829389
510,0.0122393667995246
511,0.0124527880256316
512,0.0122721717610001
513,0.0119662488689313
514,0.0118718543503778
515,0.0117134253571098
516,0.0116241936955143
517,0.0116134789615996
518,0.0115798406366132
519,0.0117805609230564
520,0.012038121579033
521,0.0121740924091241
522,0.0123100632392153
523,0.0124460340693065
524,0.0123574790248056
525,0.0123715151612102
526,0.0124041026804176
527,0.0123204975039357
528,0.0124398315920411
529,0.012571388057117
530,0.0125620587384243
531,0.0126196345296421
532,0.0125510183750804
533,0.012630526531373
534,0.0126768084331021
535,0.0125624424637357
536,0.0127076119939806
537,0.012584605639947
538,0.0125396716118989
539,0.0124402193599069
540,0.012527530669402
541,0.0124301241653283
542,0.0123520613471639
543,0.0124458824007298
544,0.0124760923032032
545,0.0124039027892298
546,0.0124870597907949
547,0.0124660641623612
548,0.0124450685339275
549,0.0124240729054938
550,0.0123200230464186
551,0.0124565581438423
552,0.0125219584299336
553,0.0124185569007246
554,0.0123587285329668
555,0.0124732012934724
556,0.0123314733078959
557,0.0122889239378475
558,0.0122029914741603
559,0.0120672660105069
560,0.0122398449809196
561,0.012050481619142
562,0.0122778509213137
563,0.0120809284662983
564,0.0121207657288091
565,0.0119489664898747
566,0.0119200030363504
567,0.0117452328263756
568,0.0118618110676458
569,0.011695475103961
570,0.011667832490568
571,0.0117213105297824
572,0.0116801646271427
573,0.0116760494209189
574,0.0117124780475599
575,0.0115841018986504
576,0.0116229388404839
577,0.0116617757823175
578,0.011700612724151
579,0.0117394496659845
580,0.0117782866078181
581,0.0119175461495089
582,0.0118453223450967
583,0.0119000092451792
584,0.011723708989095
585,0.0116593232207956
586,0.0113683524947861
587,0.0111548224822331
588,0.0110134234109996
589,0.0108720243397662
590,0.0107306252685328
591,0.0108174613868495
592,0.0108742220749565
593,0.0108728828987219
594,0.0109931942556283
595,0.0109608459910797
596,0.011045832892049
597,0.0110815689123742
598,0.011079678154114
599,0.0110983181558455
600,0.0111667182803241
601,0.0112369218477826
602,0.0112862362714655
603,0.0111973345092011
604,0.0113025790148774
605,0.011223695129539
606,0.0112119209110623
607,0.0111943194647542
608,0.0110196520629575
609,0.0109913420595428
610,0.0109194890617348
611,0.0108481280820347
612,0.0107317060234245
613,0.0106688082605886
614,0.0105319416658308
615,0.0106428521105075
616,0.010510804808162
617,0.0105984830822723
618,0.0105556480949886
619,0.0105862801528694
620,0.0105116217120679
621,0.0105516137694401
622,0.0103015601777239
623,0.0103377755862358
624,0.0102247439283207
625,0.0101117122704055
626,0.00999868061249032
627,0.00995800145707319
628,0.00989900280938423
629,0.00986287645648381
630,0.00995777589082084
631,0.00980841950610438
632,0.00984100460743318
633,0.00986854234438941
634,0.00989229324372397
635,0.00992923515775132
636,0.00986417710102572
637,0.0099175175563915
638,0.00982372238070852
639,0.00986803326010443
640,0.00978522566612654
641,0.00975716199651899
642,0.0096886858684555
643,0.00960395421459726
644,0.00951922256073902
645,0.00943449090688078
646,0.00946275512247518
647,0.00942415119882227
648,0.00923873408800144
649,0.00940127295861723
650,0.00927575966254986
651,0.00934122281477996
652,0.00921976291924464
653,0.00905084449112975
654,0.00887784707513738
655,0.00893334240115057
656,0.00884914720573461
657,0.00890590245798752
658,0.00902946140209547
659,0.00927072265670783
660,0.00931094784221777
661,0.00933159278324846
662,0.00937583751469433
663,0.00932258995636422
664,0.00922857886243458
665,0.00926226483357752
666,0.00926133778985362
667,0.00925363786097128
668,0.00925986668010089
669,0.00907968644498514
670,0.00912263193937702
671,0.00908971767922644
672,0.00907457656978694
673,0.00904222189568838
674,0.00911196607149629
675,0.00904152066538872
676,0.00904420069908096
677,0.00905605391795899
678,0.00895541634497122
679,0.00892471640062626
680,0.00910954708190286
681,0.00898059403779624
682,0.00869342738230017
683,0.00853241410411506
684,0.00819381529377811
685,0.00793613110891321
686,0.00767866928242021
687,0.00747597232595658
688,0.00740551858987548
689,0.00741526729803678
690,0.00760083614471191
691,0.00777630650564217
692,0.00777773832319672
693,0.00790101249553327
694,0.00797826055652935
695,0.00799321929591817
696,0.00809864412132643
697,0.00811564981445116
698,0.00799315791057969
699,0.00803618709885012
700,0.00812574031466481
701,0.00806990695811737
702,0.00819491070675457
703,0.00818205384673691
704,0.00832392093092568
705,0.00827174788872475
706,0.00840416396983822
707,0.0085493610519771
708,0.00850948599066614
709,0.00860308168755417
710,0.00848214208241509
711,0.0084728947389047
712,0.00845356123771986
713,0.00812957523536183
714,0.00793520782125529
715,0.00752666020091552
716,0.00713537054221301
717,0.00688520818194044
718,0.0067907455605245
719,0.00682841874289569
720,0.00684727177395073
721,0.00681197723685335
722,0.00696113619938145
723,0.00692352176536321
724,0.00686339179362739
725,0.00687585697380699
726,0.0068322983581835
727,0.00689693910751864
728,0.0069542693248608
729,0.00709284452736601
730,0.00726419509514384
731,0.00749833767267621
732,0.00764521253799085
733,0.00787599017759125
734,0.00797559560499319
735,0.00798079525429175
736,0.00812266004332216
737,0.00815109527941054
738,0.00817953051549892
739,0.0082079657515873
740,0.0083092960595215
741,0.00832617986586874
742,0.00835904799822863
743,0.00839191613058851
744,0.00842478426294839
745,0.00845038338109504
746,0.00836362405287498
747,0.00837741177572776
748,0.00827272865281939
749,0.00825451280965146
750,0.00821956891940007
751,0.00816763739485558
752,0.00822508782052883
753,0.00804201508370903
754,0.00799504227439781
755,0.00742698412792597
756,0.00685892598145414
757,0.00629086783498231
758,0.00539947214881538
759,0.00461654658878662
760,0.00407194152095297
761,0.00387114715905871
762,0.00404957903792354
763,0.00440090692215074
764,0.00491096471193485
765,0.00533808574372281
766,0.0059325932207124
767,0.00651431578745711
768,0.00677158253682663
769,0.00704414608314281
770,0.00721005707933481
771,0.00727721397215178
772,0.00735151772414251
773,0.00743339710658638
774,0.00739458158761357
775,0.00730326468842403
776,0.00739380472708413
777,0.0072603195566006
778,0.00734168572956064
779,0.00721597285145013
780,0.00730766525914692
