"wavelength","measurement"
380,0.0126631157294383
381,0.0128028147161698
382,0.0134674087690658
383,0.0132776439618492
384,0.0142302175853806
385,0.015822911610826
386,0.0164065787350516
387,0.0182743209234398
388,0.0192464084281349
389,0.0210763954210977
390,0.0211188783891172
391,0.0220329384710673
392,0.023206731867723
393,0.024459219345184
394,0.026169889203117
395,0.029710392150983
396,0.0341480532283004
397,0.0397680189147085
398,0.0453879846011165
399,0.0510079502875246
400,0.0545210981725564
401,0.0596864069731827
402,0.0639743917677463
403,0.0667422667845298
404,0.0693835218161812
405,0.0709526501028795
406,0.0745477771650594
407,0.0772848606318619
408,0.0792958950518807
409,0.0827257762225497
410,0.0880530116721933
411,0.0898477203317754
412,0.0928044173652652
413,0.0959193459770362
414,0.0967748885442675
415,0.098472597470847
416,0.0977533506696819
417,0.0977143485993032
418,0.100126111212798
419,0.0979235261076977
420,0.100624764776382
421,0.100860354384749
422,0.101609083002688
423,0.101990660084246
424,0.102289756309806
425,0.10017247245292
426,0.0996637982180663
427,0.0963723786681403
428,0.0942873996064163
429,0.093723326072802
430,0.0945576306954527
431,0.0979572624262253
432,0.101605030767999
433,0.105162568677553
434,0.108878119080694
435,0.111928557679467
436,0.112337460949211
437,0.114371740700825
438,0.116406020452439
439,0.118440300204054
440,0.119448793542207
441,0.121806024884186
442,0.124088750560047
443,0.125646205940289
444,0.127662688009366
445,0.129679170078442
446,0.131695652147519
447,0.134276552351991
448,0.134269664114257
449,0.138741533176419
450,0.137520088779948
451,0.136941845828457
452,0.136441948625057
453,0.135942051421656
454,0.135442154218256
455,0.135384473412016
456,0.135637320986968
457,0.137049093038762
458,0.138438073693881
459,0.140457610266379
460,0.140785558177834
461,0.139766014590031
462,0.143196182227897
463,0.139997088732749
464,0.138203150331855
465,0.137725756789048
466,0.136394376286097
467,0.136340254759476
468,0.135232760088458
469,0.135743591922602
470,0.13896633375904
471,0.139387562113151
472,0.141239745256319
473,0.143480882930319
474,0.144287636165909
475,0.14706813050315
476,0.145107938210833
477,0.145264744894864
478,0.145421551578894
479,0.145578358262925
480,0.14588044053085
481,0.141836783895478
482,0.139722567068623
483,0.13951260181374
484,0.136889260800776
485,0.133753691194149
486,0.136077938684215
487,0.137328957721842
488,0.138887922533679
489,0.142614260941202
490,0.143445853871152
491,0.144595157195133
492,0.148114460312829
493,0.146249434154823
494,0.148563689964479
495,0.145956446120857
496,0.146894680891556
497,0.143324212517878
498,0.14439007785646
499,0.141004897472102
500,0.141566795757862
501,0.140705405786321
502,0.14305824253835
503,0.143572615383994
504,0.141777543656198
505,0.146287907022397
506,0.144861288679239
507,0.145352734731967
508,0.146061064552602
509,0.145531115609795
510,0.142349819294987
511,0.143872803230683
512,0.141770013002384
513,0.137497864980278
514,0.136145609905843
515,0.133637890798292
516,0.132158857916472
517,0.131422319545764
518,0.130791056978789
519,0.132874856558844
520,0.134874637242234
521,0.135673097967153
522,0.136471558692072
523,0.137270019416992
524,0.136023433965632
525,0.13549954363676
526,0.135399191761043
527,0.134411885432208
528,0.134655040143177
529,0.135613626428475
530,0.13523793796666
531,0.134988137266941
532,0.133899957820456
533,0.135130529489019
534,0.135436992188534
535,0.133510898562452
536,0.134195772171213
537,0.133174000366496
538,0.131983219296821
539,0.130857893244972
540,0.131331928564563
541,0.130369022299833
542,0.129382108672425
543,0.129792741869037
544,0.130156233871946
545,0.129417483593344
546,0.130298445482316
547,0.129926657572003
548,0.12955486966169
549,0.129183081751376
550,0.128539598160062
551,0.129462760540056
552,0.130126702687268
553,0.128781009181303
554,0.128293394626007
555,0.129166561077724
556,0.126945635557388
557,0.126763402060419
558,0.125911373499774
559,0.12443023804917
560,0.125984222661679
561,0.12339847608065
562,0.125738749056996
563,0.123407511687172
564,0.123691456810337
565,0.12171243970953
566,0.12151614959609
567,0.119963650263276
568,0.120742007029978
569,0.119532627356623
570,0.119517342667622
571,0.120037467316594
572,0.120143763228576
573,0.120246227474101
574,0.121126082955817
575,0.120088041397966
576,0.120926079611391
577,0.121764117824816
578,0.122602156038242
579,0.123440194251667
580,0.124278232465092
581,0.125871390931589
582,0.125225089880205
583,0.126805808054696
584,0.124657392518876
585,0.124604289035143
586,0.121302053806088
587,0.120049668786478
588,0.119082409826178
589,0.118115150865879
590,0.11714789190558
591,0.11789987383391
592,0.119259867889274
593,0.119372061048168
594,0.121645307560561
595,0.121458356211841
596,0.123053474844834
597,0.123692458721327
598,0.123692786875568
599,0.124037723057036
600,0.12544648842827
601,0.126467979469151
602,0.12703909575285
603,0.126663858838999
604,0.128196043630911
605,0.127476346088736
606,0.127468192660721
607,0.127067009209867
608,0.125786037803844
609,0.125918066966979
610,0.124982319557968
611,0.124270039405447
612,0.123509168747893
613,0.123135709190386
614,0.122297704757405
615,0.124337448427633
616,0.122677171086834
617,0.124012158533435
618,0.123799953623719
619,0.124417661763064
620,0.123691099356235
621,0.1251091626325
622,0.122515392353918
623,0.122696441537972
624,0.121725221891731
625,0.120754002245491
626,0.11978278259925
627,0.119655211630977
628,0.119497914575088
629,0.119652841040429
630,0.120583307932153
631,0.118949113955207
632,0.119850887657579
633,0.120852366179968
634,0.121367990125494
635,0.122272930101585
636,0.121187847512708
637,0.122733845827026
638,0.12211937296736
639,0.122941497161216
640,0.122352304102851
641,0.122191967051652
642,0.121832119602123
643,0.121191497832966
644,0.120550876063808
645,0.119910254294651
646,0.120664281365157
647,0.120162302657098
648,0.118718289516035
649,0.120511996469919
650,0.119670964205192
651,0.120446508852901
652,0.119183689310731
653,0.117639920138229
654,0.115895573049188
655,0.117402578695035
656,0.116671765728636
657,0.118360162070975
658,0.119869957934574
659,0.122666590125127
660,0.123770635938351
661,0.124627403679159
662,0.124902278273118
663,0.124757041918375
664,0.123962377033332
665,0.12439818544289
666,0.12519553972147
667,0.125600960729114
668,0.12621091966693
669,0.123716015476407
670,0.124491987216935
671,0.124787848750732
672,0.124432176467193
673,0.124384285615555
674,0.125459719370214
675,0.125027887215716
676,0.125320154459342
677,0.12592688143935
678,0.124741210479125
679,0.124648366045298
680,0.127501127980413
681,0.125256240426302
682,0.121577159966873
683,0.119485952935578
684,0.114917007266898
685,0.110925897323562
686,0.108222362827826
687,0.106534273415792
688,0.105439838195916
689,0.10621115824795
690,0.10829479883472
691,0.110784805924288
692,0.111295855299198
693,0.112939203324123
694,0.114403092940871
695,0.114557095766279
696,0.116197095728511
697,0.116782562488967
698,0.115177163547692
699,0.115741177036962
700,0.117142516422344
701,0.116784182021699
702,0.118706830706918
703,0.119020219345732
704,0.121098277625828
705,0.121022787957806
706,0.122584376696617
707,0.124004237724848
708,0.123851445690368
709,0.125574115673653
710,0.124613112413962
711,0.124175607945445
712,0.123643201929755
713,0.118812645244253
714,0.115727332013417
715,0.1096179517345
716,0.105008584608769
717,0.10153147693163
718,0.101187640726117
719,0.101547529958749
720,0.102515891975865
721,0.101867142854548
722,0.104474105149788
723,0.103880426726928
724,0.103538612956834
725,0.104047566005453
726,0.103642425167382
727,0.105676671039728
728,0.106560264297177
729,0.109908792336888
730,0.111782712065882
731,0.115827636832287
732,0.118777926916085
733,0.122410701684304
734,0.124867215089467
735,0.125134211036478
736,0.127623061383873
737,0.128574548241184
738,0.129526035098495
739,0.130477521955806
740,0.133064934174024
741,0.133837367937552
742,0.134978040801077
743,0.136118713664601
744,0.137259386528126
745,0.137707073444545
746,0.137746464131425
747,0.138978499529698
748,0.137282454623663
749,0.138768464828121
750,0.139142496565799
751,0.138566633720116
752,0.140539408658721
753,0.14000333508857
754,0.136672897160322
755,0.126616047400095
756,0.116559197639868
757,0.10650234787964
758,0.091253121400568
759,0.0782806117788159
760,0.0714508880791114
761,0.0707833717722949
762,0.074296787117551
763,0.081610733806751
764,0.0912605483610837
765,0.100912570645139
766,0.111225477128227
767,0.122485527436333
768,0.12755157681824
769,0.1330549315081
770,0.136007639517113
771,0.137624661470742
772,0.139553440031336
773,0.140591301670052
774,0.140775229759805
775,0.140877686455903
776,0.142724532069274
777,0.140116601639415
778,0.142099933148938
779,0.140478319876969
780,0.141860895976474
