"wavelength","measurement"
380,0.00080276998209766
381,0.000777699408743998
382,0.000832641435431246
383,0.000819031933881541
384,0.000829707907152412
385,0.000909793402182659
386,0.000972860769558023
387,0.00105291981828203
388,0.0011345153525992
389,0.00119734253246327
390,0.0011919135625085
391,0.00124531033778014
392,0.00130216910347177
393,0.00137423051078251
394,0.00150219354361302
395,0.00156691316568258
396,0.00180010526642426
397,0.00207375899168369
398,0.00234741271694313
399,0.00262106644220256
400,0.00285577295368971
401,0.00311002495280155
402,0.003305126109222
403,0.00348391535924472
404,0.00362527080262512
405,0.00372731705060859
406,0.00395333872254113
407,0.00409025386154969
408,0.00421808836018847
409,0.00439459801318955
410,0.00475516051395498
411,0.00487313551535959
412,0.00510330993981084
413,0.00533657020333995
414,0.00540314285973141
415,0.00559616986764231
416,0.00558200376238933
417,0.00562543434568129
418,0.00580018328146164
419,0.00568814006576189
420,0.00592066686114786
421,0.00595290343865528
422,0.00605729555232345
423,0.00613290323373962
424,0.00619916256421756
425,0.00613675222714098
426,0.00614779060210316
427,0.00601717842374245
428,0.0058487924501336
429,0.00589476520494681
430,0.00593905085038684
431,0.0061820596227893
432,0.00645104178877913
433,0.00670522470668749
434,0.00703211142795363
435,0.00723559279290854
436,0.00733508692470244
437,0.00749478581129543
438,0.00765448469788842
439,0.00781418358448141
440,0.00791084036611401
441,0.00809947787622566
442,0.0083393776291724
443,0.0084790855879917
444,0.0086605605409888
445,0.00884203549398591
446,0.00902351044698301
447,0.00926116441941656
448,0.00933897050224256
449,0.00973674517897218
450,0.00976061494848758
451,0.00973987954584904
452,0.00977078631408304
453,0.00980169308231704
454,0.00983259985055104
455,0.00988127992739894
456,0.00993430046625091
457,0.0101706571745087
458,0.0102024538758477
459,0.0104713374270576
460,0.0105041254066858
461,0.0104741778826284
462,0.0108263243352229
463,0.0105422166500463
464,0.0104947298849771
465,0.0104426106075395
466,0.0103642799774746
467,0.0103738636897094
468,0.0102988986904795
469,0.0102521273296549
470,0.0105162079697712
471,0.0105668354669285
472,0.0106850628389361
473,0.0108474662952673
474,0.0109374935887519
475,0.0111102222263515
476,0.0109243479857897
477,0.0109536591953152
478,0.0109829704048407
479,0.0110122816143662
480,0.0110134919365798
481,0.0107369837672062
482,0.0105973495988032
483,0.0105772186531772
484,0.0103737131283217
485,0.0101661158486188
486,0.0102994444960324
487,0.0104435342280362
488,0.0105392898574617
489,0.0108938484008632
490,0.0110310825901078
491,0.0111420200928645
492,0.011450612252965
493,0.0113525183842348
494,0.0115437681579081
495,0.0114236648319984
496,0.0114885904124933
497,0.0113363921620234
498,0.0114215960646843
499,0.0111776167565493
500,0.0113009643505978
501,0.0112185444588565
502,0.0114348839327772
503,0.011537880008538
504,0.0114292600127909
505,0.0118455801874392
506,0.0118547412556409
507,0.0118785845753955
508,0.0119820184722627
509,0.0119775030738709
510,0.0118122216505702
511,0.0120116549522456
512,0.0119005206162845
513,0.0115586289480279
514,0.0115247204899863
515,0.0113505966702783
516,0.0112632621315602
517,0.0112606651143026
518,0.0112352038895973
519,0.0114300959091335
520,0.0116996161657702
521,0.0118347849400226
522,0.011969953714275
523,0.0121051224885274
524,0.0120366390633472
525,0.0120751966622346
526,0.0121336560528359
527,0.0120397952339808
528,0.0121338225090466
529,0.0122940095281751
530,0.0122907897480725
531,0.0123322161830846
532,0.0122705452976125
533,0.0124127722694936
534,0.0124524066152975
535,0.0123030388194549
536,0.01245959460516
537,0.0124016272526151
538,0.0122893959733467
539,0.0122520189422235
540,0.0123054078110084
541,0.0122384396984661
542,0.012179284282298
543,0.0122492349129936
544,0.0123115240501045
545,0.0122098403522913
546,0.0123317442885468
547,0.0123089091222205
548,0.0122860739558942
549,0.0122632387895679
550,0.0122164964115083
551,0.0122885941925994
552,0.0123571356151109
553,0.0122834615416141
554,0.0122083112390958
555,0.0123489342878945
556,0.0121920194055747
557,0.0122063109984705
558,0.0121037129824862
559,0.0120318539303
560,0.0121823860965351
561,0.0119749836217756
562,0.0122022620198884
563,0.0120272653868076
564,0.0120582902402685
565,0.0118794073537035
566,0.0118567086485999
567,0.011720660490144
568,0.0117925928667602
569,0.0116537750213866
570,0.0116305380001264
571,0.0116665683367931
572,0.0116719082868017
573,0.0116495195622047
574,0.0117326469140333
575,0.0115795150666678
576,0.0116198410264553
577,0.0116601669862428
578,0.0117004929460303
579,0.0117408189058179
580,0.0117811448656054
581,0.0119171042481683
582,0.0118538838905977
583,0.0119183108149384
584,0.0117091281856919
585,0.0116910712965105
586,0.0113448333936539
587,0.0111802270988358
588,0.0110495894828348
589,0.0109189518668338
590,0.0107883142508328
591,0.0108206692827688
592,0.0109136348381596
593,0.0109192836648899
594,0.0110476416440994
595,0.0110125571156115
596,0.0111147344482306
597,0.0111452921823826
598,0.0111400635409396
599,0.0111476728166948
600,0.0112237748986039
601,0.0112860255818886
602,0.0113547559625429
603,0.0112717281656672
604,0.0113498423442306
605,0.0112895493811175
606,0.0112797803557718
607,0.0112509988573391
608,0.011099202665233
609,0.0110737695934655
610,0.011010585867061
611,0.0109054082403253
612,0.0108117290250376
613,0.0107501592150541
614,0.0106132921546514
615,0.0106731959406185
616,0.0105975418621708
617,0.0106939806077584
618,0.0106398174072082
619,0.010668261156601
620,0.0106034183126841
621,0.0106761704738529
622,0.0104310305938668
623,0.0104127401580786
624,0.0103047873576478
625,0.0101968345572171
626,0.0100888817567863
627,0.0100595055688865
628,0.01001038884378
629,0.00999307391480886
630,0.0100595027684837
631,0.0099159340891879
632,0.00995475241914432
633,0.00998858150985178
634,0.0100109847344412
635,0.0100372335062203
636,0.00997936340872018
637,0.0100699701688891
638,0.00992898742386914
639,0.0100116747914142
640,0.00993618117943973
641,0.00991777650899972
642,0.0098442517621761
643,0.00977443613684895
644,0.00970462051152179
645,0.00963480488619464
646,0.0096859216176302
647,0.00964644483038204
648,0.00945653763563463
649,0.00965689732421632
650,0.0095394977292718
651,0.00962025187422883
652,0.00951218678585471
653,0.00933491252785648
654,0.00918309277823475
655,0.00922958790102973
656,0.00920189750395196
657,0.00925409670490573
658,0.00940926617976763
659,0.00963814898844594
660,0.00972328447490452
661,0.00978170119345047
662,0.00984225292094816
663,0.00979674351649779
664,0.00973314634461917
665,0.00978591313939913
666,0.00982247761517671
667,0.00986356398198916
668,0.00988424958417357
669,0.00971809806583804
670,0.00978372390550721
671,0.00976139809248731
672,0.00973620407094536
673,0.00981744285390789
674,0.00985531012823686
675,0.00985195851866515
676,0.00982073523546024
677,0.00992055874287823
678,0.00982983629059694
679,0.00982968020849816
680,0.0100893307050959
681,0.00989583152056951
682,0.00968139820433219
683,0.00946357367919453
684,0.0091034152869892
685,0.00880654220857589
686,0.00856183056539749
687,0.00839838352083308
688,0.00827005634941196
689,0.00836295813068583
690,0.00849062020561404
691,0.00871639462349416
692,0.00874386037490552
693,0.00882798957676719
694,0.00898836752031996
695,0.00900223552354567
696,0.00914962499890355
697,0.00912654133346703
698,0.00900996038840732
699,0.00901879529682978
700,0.00914467896722389
701,0.00904972270089257
702,0.00917015482762752
703,0.0091471844025363
704,0.00933860105020936
705,0.00926289554154403
706,0.00937625427940779
707,0.00946499028424957
708,0.00941244055790868
709,0.00949262931656372
710,0.00936502928306081
711,0.00934660643891346
712,0.00934807370978428
713,0.00893863604679945
714,0.00870966220998955
715,0.00823866376682675
716,0.00783399095940074
717,0.0075172506077991
718,0.00739078554790375
719,0.00740688159215599
720,0.00742912385820971
721,0.00734594575603639
722,0.00749279135621609
723,0.00743437211472735
724,0.00737383202784606
725,0.00734324989283188
726,0.00729156357958786
727,0.00735798601369534
728,0.0074024718835604
729,0.00747997484839346
730,0.00764750784241443
731,0.0078418732796125
732,0.00800191552234554
733,0.00820346974465725
734,0.00832448973917954
735,0.00835692222478306
736,0.00841569584142405
737,0.00842988964547397
738,0.00844408344952389
739,0.00845827725357381
740,0.00856341005514874
741,0.00853964492026778
742,0.0085594676960091
743,0.00857929047175041
744,0.00859911324749172
745,0.00859016223424811
746,0.00853362128381175
747,0.00856839245824181
748,0.00838077483088445
749,0.00843493870177611
750,0.0083738474460101
751,0.00830527405894165
752,0.00836049276669176
753,0.00819110413889885
754,0.00814168025920753
755,0.00755103155007815
756,0.00696038284094878
757,0.0063697341318194
758,0.00547388384199975
759,0.0046301084105516
760,0.00409264228863176
761,0.00392730554021594
762,0.00410180219069211
763,0.00442986070355231
764,0.00495022836563429
765,0.00543849850476213
766,0.0060279272943649
767,0.00661170761724638
768,0.00692937193948113
769,0.00714249607290223
770,0.00732414935052629
771,0.00740913465772517
772,0.00744638537712077
773,0.00751385192669881
774,0.00743088603322045
775,0.00741606223394871
776,0.00745626714295907
777,0.0073083362489915
778,0.00737438654435813
779,0.00727998847445303
780,0.00732826587483681
