"wavelength","measurement"
380,0.00143058797675928
381,0.0013613174862962
382,0.00143739120951259
383,0.00146562684650505
384,0.00146714032184521
385,0.00154941515551127
386,0.00172286480449658
387,0.00184952935757286
388,0.00197804361858251
389,0.00201673565190859
390,0.00207714645322256
391,0.0020879194131747
392,0.0021338611248302
393,0.00221683240369519
394,0.00233482571843985
395,0.00248269324190331
396,0.00278446614704859
397,0.00316040135914144
398,0.00353633657123428
399,0.00391227178332712
400,0.00418426548820033
401,0.00445370637366907
402,0.00469813067614887
403,0.00491264573399849
404,0.00495573962864195
405,0.00506510408621776
406,0.005228188739194
407,0.00536210828611236
408,0.00546037566240283
409,0.00574421028592126
410,0.00603020654423951
411,0.00617304319365554
412,0.00643013890055174
413,0.00667606695218919
414,0.00671856119568624
415,0.00687403841686331
416,0.00687800066791333
417,0.006853716473228
418,0.00706693555726202
419,0.00692161705812659
420,0.00718955054392267
421,0.00717846052320811
422,0.00724864046054827
423,0.00747309034562956
424,0.00744454340805594
425,0.0073510399971744
426,0.00732793626373391
427,0.00715211320428678
428,0.00693143773702867
429,0.00696881077585043
430,0.00699556109833187
431,0.0073217464394963
432,0.00759424562050534
433,0.00786245738649961
434,0.00820731294004826
435,0.00845136378399711
436,0.00853810154050101
437,0.00871286206053546
438,0.00888762258056991
439,0.00906238310060437
440,0.00916516016826871
441,0.00933374142922194
442,0.00964636745214506
443,0.00973038086428137
444,0.00993952875810528
445,0.0101486766519292
446,0.0103578245457531
447,0.0105584507431358
448,0.0106247382953198
449,0.011053868741236
450,0.0110687296395567
451,0.0109884498627343
452,0.0110046433366358
453,0.0110208368105373
454,0.0110370302844387
455,0.0110506034471098
456,0.0110802243293061
457,0.0112850529917514
458,0.0113338015026248
459,0.0116560840128061
460,0.0116793643621043
461,0.0115791152252549
462,0.0119427646634344
463,0.011617203936245
464,0.0115370835533728
465,0.0114721392052215
466,0.0113812295215215
467,0.0113478455442194
468,0.0112541880745415
469,0.0111962957705303
470,0.0114356334183634
471,0.0114965339179567
472,0.0115912188027993
473,0.0117331369147111
474,0.0117931262932566
475,0.0119880109449341
476,0.0117975241232386
477,0.011804251554538
478,0.0118109789858374
479,0.0118177064171367
480,0.0117887036207658
481,0.0114811742549824
482,0.0113214699418054
483,0.0112661815014468
484,0.0110511588939267
485,0.0108179711697659
486,0.010971528783447
487,0.0110640722725036
488,0.0111704566534198
489,0.0115005978554355
490,0.011681087716778
491,0.011782218523681
492,0.0120581478542247
493,0.0119427360938718
494,0.0121756640767686
495,0.0120173284214809
496,0.0121003913444739
497,0.0119001032363402
498,0.0119851643656481
499,0.0117208079599841
500,0.0118334617731054
501,0.0117308438096425
502,0.011951350585628
503,0.0120454995601169
504,0.0119328243171707
505,0.0123491150242457
506,0.0123358192635799
507,0.0123448860586956
508,0.0124568153614178
509,0.0124446192580592
510,0.0122797655684882
511,0.0124379422991507
512,0.012331291910703
513,0.0119768948751481
514,0.0119040814008714
515,0.0117445356936646
516,0.0116786367844851
517,0.0116521917114791
518,0.011639162232752
519,0.0118769048707203
520,0.0120467531208896
521,0.0121893497870178
522,0.012331946453146
523,0.0124745431192743
524,0.0124047751445679
525,0.0124698910903157
526,0.0124372099642512
527,0.0123675746601806
528,0.0124577209114142
529,0.0126245961918496
530,0.012630165150882
531,0.012681119485333
532,0.0126096655635856
533,0.0127411994516167
534,0.0127903191205316
535,0.0126239274194267
536,0.0127874373338905
537,0.0127022054710642
538,0.0126232981584712
539,0.0125266968114759
540,0.0125839926020034
541,0.0125157301420979
542,0.0124185824637555
543,0.0124983898522066
544,0.0125839712489646
545,0.0124604008508115
546,0.0125642575684958
547,0.0125467624368272
548,0.0125292673051586
549,0.01251177217349
550,0.0124119658273824
551,0.0125388227373361
552,0.0125965111283441
553,0.0125104996816884
554,0.0124438965827016
555,0.0125610932493639
556,0.0124066215870737
557,0.0123903149945878
558,0.0123331433889135
559,0.01220030824369
560,0.012350136904643
561,0.0121337227899236
562,0.0123494519915094
563,0.0121698451714513
564,0.0121790012659015
565,0.0120596394101184
566,0.0120001962349695
567,0.0118209066179952
568,0.0118952249004038
569,0.0117584840457332
570,0.0117472899717686
571,0.0117834261004035
572,0.0117754137572195
573,0.0117578191568634
574,0.0118473267297617
575,0.0117004503532655
576,0.0117352776351681
577,0.0117701049170707
578,0.0118049321989733
579,0.0118397594808759
580,0.0118745867627785
581,0.0119932199411285
582,0.0119575542855844
583,0.0120182495445849
584,0.0118129760358759
585,0.0117870227441537
586,0.0114440262864057
587,0.0112831132070882
588,0.0111300251334166
589,0.010976937059745
590,0.0108238489860734
591,0.0108756750275902
592,0.0109633402265455
593,0.0109627980775144
594,0.0111044934115318
595,0.0110677877729866
596,0.0111712464362853
597,0.0111942037457339
598,0.0111982863122289
599,0.0112130375218911
600,0.0112644679737698
601,0.0113337037224813
602,0.0113830181461642
603,0.0112976548343413
604,0.0113997988166109
605,0.0113296734719693
606,0.0113352411640721
607,0.0112834376163432
608,0.0111343013606775
609,0.0111366462497013
610,0.0110267330132958
611,0.0109291829020948
612,0.0108405922013661
613,0.0107951940028422
614,0.0106686624861065
615,0.0107316374375501
616,0.0106173436971968
617,0.010726385146884
618,0.0106733628819525
619,0.0107024950397389
620,0.0106239499965032
621,0.0107083806997354
622,0.0104609043086192
623,0.0104421554949889
624,0.0103249795875674
625,0.0102078036801459
626,0.0100906277727244
627,0.0100828927733204
628,0.01002466159276
629,0.00999944400229734
630,0.0100687641185296
631,0.0098929963543422
632,0.00993955570735262
633,0.00999492808664301
634,0.0100111466409784
635,0.0100658683926201
636,0.010007077071763
637,0.0100183152219997
638,0.00995270065100834
639,0.0100077407427577
640,0.00994558140847235
641,0.00987493809326772
642,0.00985535542382605
643,0.00976958916734801
644,0.00968382291086997
645,0.00959805665439193
646,0.0096282915416431
647,0.00956902184121629
648,0.00940840453837821
649,0.00952362977215034
650,0.00941770057308083
651,0.00949134858159201
652,0.00936270230341503
653,0.00919363607492589
654,0.00906138229543704
655,0.00913030008506795
656,0.00899037867446914
657,0.00910439288652683
658,0.0091578791257907
659,0.00942045428918853
660,0.00948534790457076
661,0.00951817597571058
662,0.00953769534676962
663,0.00950827101913458
664,0.0094199704937392
665,0.0094684058474154
666,0.00947220403639739
667,0.00949099431385225
668,0.00951001060239908
669,0.0092769506778269
670,0.00937239048588455
671,0.00934035207980364
672,0.00928277584068856
673,0.00928031406598788
674,0.0093009753797314
675,0.00928767069312919
676,0.0092555267690113
677,0.0093151928615527
678,0.00918758774175975
679,0.00921595977514378
680,0.00939233846464805
681,0.00927286654084562
682,0.00894073353741262
683,0.00878917072463927
684,0.00845055439722092
685,0.00815216927373839
686,0.0079176789098577
687,0.00772253838438015
688,0.00763540400754216
689,0.00766276614104455
690,0.00780282998952991
691,0.00797451228160883
692,0.00799162188701051
693,0.00805761520319054
694,0.00822707318064164
695,0.00820354689220909
696,0.0083421490697765
697,0.0083115170600518
698,0.00821220901340454
699,0.00824759637491708
700,0.00834910061951244
701,0.00828506488960253
702,0.00838280877513879
703,0.00840176184011401
704,0.00856199120487344
705,0.00851847598015121
706,0.00861042760324586
707,0.00867469576934709
708,0.0086746370340434
709,0.00874762388467206
710,0.00866375042376148
711,0.00865745908773623
712,0.00865670683063947
713,0.00829061852315233
714,0.008083971634989
715,0.00769418042955124
716,0.00733550319713295
717,0.00702401353490198
718,0.00694515863300759
719,0.00690910679906418
720,0.00697970090928506
721,0.00689973781463443
722,0.00702929516308329
723,0.00703407206603714
724,0.00697486612034483
725,0.00697389131982532
726,0.00693368722528866
727,0.00700759232104577
728,0.0070337180475207
729,0.00712829910010631
730,0.0073104139144004
731,0.00752481912047273
732,0.00769694485861599
733,0.00791063020604676
734,0.00804693391896793
735,0.0080206466144618
736,0.00816273036700963
737,0.0081892080692523
738,0.00821568577149496
739,0.00824216347373762
740,0.00834705412846505
741,0.00836572467711443
742,0.00838040569971758
743,0.00839508672232073
744,0.00840976774492388
745,0.00840852193583509
746,0.00838260818983511
747,0.00834514093253072
748,0.00827786115766766
749,0.00828026729857015
750,0.00822821797833808
751,0.00820249638682851
752,0.00822508782052883
753,0.00805264795211484
754,0.0079950597914792
755,0.00742460472437003
756,0.00685414965726086
757,0.00628369459015169
758,0.00541045535884906
759,0.00457466981608045
760,0.00407563762512698
761,0.00388035238533097
762,0.00404579534834256
763,0.00431252777243295
764,0.00484036211537863
765,0.00531886950543422
766,0.0059054067103898
767,0.00648469002355047
768,0.00679128925339424
769,0.00701438894112572
770,0.00717986638955323
771,0.00729526532452771
772,0.00734748003688132
773,0.0074333445553422
774,0.00731809763097951
775,0.00731979205471874
776,0.00740628564757695
777,0.00721002801592006
778,0.00730549106013146
779,0.00719690988762373
780,0.00725372578626621
