"wavelength","measurement"
380,0.00295251066847858
381,0.00279713533200116
382,0.00290484614933446
383,0.00283781832464888
384,0.00291320432515066
385,0.00306995119498406
386,0.00322497011418197
387,0.00342084025794814
388,0.00365012244059668
389,0.00372392127423019
390,0.00373572004593101
391,0.00382399647740801
392,0.00389011033551648
393,0.00401201648829909
394,0.0043097838546353
395,0.00445174100678165
396,0.00507529920971474
397,0.00576351729687443
398,0.00645173538403413
399,0.00713995347119382
400,0.00763557873365415
401,0.0082678877864917
402,0.0086418902171217
403,0.00894395612795566
404,0.00921666489032441
405,0.00934254391889258
406,0.00973366679516197
407,0.00989957136017762
408,0.0101283891752216
409,0.0104870412149576
410,0.0110038048484841
411,0.0111745581479577
412,0.0115981733218847
413,0.0118562045211333
414,0.0120194025912652
415,0.0122009994242755
416,0.0122119066506756
417,0.0121442774004509
418,0.0124475427208733
419,0.0121823253588284
420,0.0125791681241079
421,0.0125622182047556
422,0.0126222048268421
423,0.0128296867558963
424,0.0128971145840627
425,0.0126500707924293
426,0.0126237372409976
427,0.0122691164511766
428,0.0119420610692783
429,0.0119418390330996
430,0.0119077656406874
431,0.0124270408827764
432,0.0128626758332897
433,0.0132369374050724
434,0.0137835708368803
435,0.0140767042831501
436,0.0142041836260828
437,0.0144401266355843
438,0.0146760696450858
439,0.0149120126545873
440,0.015046687037472
441,0.0152428997548173
442,0.0156416635883396
443,0.0157257832176884
444,0.0159735075066698
445,0.0162212317956511
446,0.0164689560846325
447,0.0166843109197725
448,0.0167512068108256
449,0.0172583142201128
450,0.0171943211333939
451,0.0170418919938114
452,0.0169884701563054
453,0.0169350483187995
454,0.0168816264812936
455,0.016796820043988
456,0.016742222114583
457,0.0168447650666936
458,0.0169210854931681
459,0.0170928513055887
460,0.0170515025264354
461,0.0168481755549731
462,0.0172431447988558
463,0.0167474161043923
464,0.0165329245747289
465,0.0164475954470914
466,0.0161886403891016
467,0.0161635527843443
468,0.0159213496587435
469,0.0158564096865626
470,0.0160257359131963
471,0.0160087207487683
472,0.0160603009026954
473,0.0162777478013361
474,0.0162160937429227
475,0.0165020054481627
476,0.0160137823215037
477,0.016015793454693
478,0.0160178045878824
479,0.0160198157210717
480,0.0159973875384103
481,0.0155715196312581
482,0.0152936528132917
483,0.0152375567613745
484,0.0148060309808316
485,0.0144972381952073
486,0.0145276755551909
487,0.0146428979961542
488,0.0147785349635145
489,0.0151512975237732
490,0.0152920830400365
491,0.0154020027341354
492,0.0157141925870122
493,0.0155989534819798
494,0.0158014768657088
495,0.0156466773611455
496,0.0156889735982028
497,0.01547532606444
498,0.0155464889304073
499,0.0152549181529074
500,0.0153570227539271
501,0.0151911718385305
502,0.015497893951788
503,0.0155423346955841
504,0.0154517303876772
505,0.0159418718207609
506,0.0158836051910672
507,0.0160127209254672
508,0.0161145901656773
509,0.0161742834441956
510,0.0159446811000906
511,0.0162386241426469
512,0.0161557797905179
513,0.0157894013953413
514,0.0157631165733357
515,0.0155376644946312
516,0.0154608413017635
517,0.0155189268249689
518,0.0156065226572544
519,0.0158899289047763
520,0.0162159975643665
521,0.0164919087083103
522,0.0167678198522541
523,0.0170437309961979
524,0.017023737092642
525,0.0171608564413727
526,0.0173667003250559
527,0.0172801948239122
528,0.0175142669619936
529,0.0178175451569129
530,0.0178484256230044
531,0.0179688823477926
532,0.0179474017516565
533,0.0182215411839826
534,0.0182669410027174
535,0.0181762432055647
536,0.0183387883645495
537,0.0182859541241561
538,0.0182133098319961
539,0.0180927675399473
540,0.0182237973834991
541,0.0181697125733071
542,0.0180171270509101
543,0.0181571409549694
544,0.0183141640425352
545,0.0182045891797292
546,0.0184099339601231
547,0.0184121203199063
548,0.0184143066796895
549,0.0184164930394727
550,0.0183091125989368
551,0.0184780065643422
552,0.0186158080929674
553,0.0184419942576643
554,0.018392123849355
555,0.0185798796611276
556,0.0183449886749297
557,0.0182500673404584
558,0.0181458487991013
559,0.0179935608319741
560,0.0181810017647102
561,0.01782604089789
562,0.0181900623537318
563,0.0178661846615378
564,0.0179388756496618
565,0.0176492401632413
566,0.0175447655833911
567,0.0173253575110032
568,0.0173764950816469
569,0.017142675094544
570,0.0171205025342759
571,0.0171571977913349
572,0.0170953367107534
573,0.0170400209176633
574,0.017112123635332
575,0.0168490050680313
576,0.0169018589354222
577,0.0169547128028132
578,0.0170075666702042
579,0.0170604205375952
580,0.0171132744049862
581,0.0172961297493993
582,0.0171586403237093
583,0.0172707771210676
584,0.0169840703105983
585,0.0169031710177965
586,0.0165234393560065
587,0.0163178486514947
588,0.0161739339474895
589,0.0160300192434842
590,0.015886104539479
591,0.0159762799679087
592,0.0161835364394641
593,0.0162827911086332
594,0.0165133214668671
595,0.0165184536349347
596,0.0167080248925309
597,0.0168980112268395
598,0.0169533185996199
599,0.0170062026942252
600,0.0172183384395285
601,0.0173173868800069
602,0.0174855467713735
603,0.0174455151776582
604,0.0176274995381959
605,0.0175337118180544
606,0.0176426738787893
607,0.0175137687244148
608,0.0173448136184729
609,0.0173956957345614
610,0.0172168215205654
611,0.0171843532588858
612,0.0170341327723861
613,0.0169912400137866
614,0.0167574980221378
615,0.0169366969266852
616,0.0167615132286902
617,0.0168868976397783
618,0.016809825356359
619,0.0169027588825343
620,0.0168264059008856
621,0.0169061030368338
622,0.0165931629408607
623,0.0166132621802902
624,0.0164937326389047
625,0.0163742030975192
626,0.0162546735561337
627,0.0162373509822821
628,0.016208552400946
629,0.016104788696117
630,0.0162346102596014
631,0.0160154172341809
632,0.0161135413787024
633,0.0162004868603273
634,0.0161720887476902
635,0.0162482875205854
636,0.0160793762601237
637,0.0162281933416394
638,0.0160390480480021
639,0.0161372304301792
640,0.0159676735049162
641,0.0159042008470321
642,0.0157514279675188
643,0.0156133943351959
644,0.015475360702873
645,0.0153373270705501
646,0.0153329046153563
647,0.0152927843558343
648,0.0149337538205021
649,0.0152367525089739
650,0.0150066876205798
651,0.0151732591003993
652,0.0149378234458139
653,0.014718301747157
654,0.0144192459921598
655,0.0145396836742177
656,0.0144071740640923
657,0.0144611245087443
658,0.0146191100421428
659,0.0149712621680497
660,0.0150323008958103
661,0.0150724383922145
662,0.0151225801819988
663,0.0150293666820622
664,0.0149037095470925
665,0.0149236617318435
666,0.0148906391196703
667,0.0149063027704716
668,0.0149229700283769
669,0.0146360536921995
670,0.0147037643386013
671,0.0146021029617918
672,0.0146098872973635
673,0.0145855662601292
674,0.0146405369527698
675,0.0146284776462847
676,0.0145903697055666
677,0.0146889119845565
678,0.0145320666652848
679,0.0143870740235868
680,0.0147717831379037
681,0.0145765023048739
682,0.0142849948764025
683,0.014075277639035
684,0.0136883115393184
685,0.0133537630106757
686,0.0131391565620042
687,0.0129296493388687
688,0.012921541735157
689,0.0129989031776773
690,0.0132339791020752
691,0.0136627793074018
692,0.0138043962028043
693,0.0140820286191328
694,0.0144626077625757
695,0.0146941322011652
696,0.0151739655087611
697,0.0155803721905172
698,0.0156161550993389
699,0.0160016409046157
700,0.0164928447493356
701,0.0167167517142462
702,0.0173053487157226
703,0.0177895060086961
704,0.0183525408869363
705,0.0188194177455231
706,0.0194604843104903
707,0.0201633363633357
708,0.0205279056470219
709,0.0212048132058737
710,0.0213844068877733
711,0.02195841931144
712,0.0223275103858806
713,0.0219011588291676
714,0.0218695444880107
715,0.0211012434882322
716,0.0205449262091878
717,0.0201931488634586
718,0.0203594809067078
719,0.0210177836674152
720,0.0216921828603126
721,0.0219521325363369
722,0.0230549008146967
723,0.0234235839887256
724,0.0238370992044303
725,0.0243740172246993
726,0.0247231049283375
727,0.0255753716210687
728,0.0263972681068766
729,0.027517089426382
730,0.0286500071733474
731,0.0300725113609358
732,0.0314337596849682
733,0.0329720433552259
734,0.0341888378966388
735,0.0348491673087817
736,0.0358290927013449
737,0.0365776115521126
738,0.0373261304028804
739,0.0380746492536481
740,0.0392239566473818
741,0.0398661538658631
742,0.0405187924454613
743,0.0411714310250596
744,0.0418240696046579
745,0.0423182104815221
746,0.0426074913757406
747,0.0431921638176129
748,0.0429270910637141
749,0.0434151428550915
750,0.0437616110619154
751,0.0437519574903496
752,0.0444742655011475
753,0.0443073077744124
754,0.0440354072345662
755,0.0414689814540042
756,0.0389025556734421
757,0.03633612989288
758,0.0319337690910069
759,0.0281363729108222
760,0.0253260622321403
761,0.0247689017988983
762,0.0257745826966378
763,0.0277274211069022
764,0.0305159717921292
765,0.0331198048229267
766,0.0363680484189325
767,0.0395063600081944
768,0.0413840450498459
769,0.0427636861341047
770,0.0439450105122204
771,0.0443405069206605
772,0.0449156530384211
773,0.0456272332475137
774,0.0453386699250287
775,0.0455057531934438
776,0.0457453781285452
777,0.0453192337548433
778,0.0458606281668447
779,0.0453150334681156
780,0.0460509977723322
