"wavelength","measurement"
380,0.0024430474742035
381,0.00245624620866504
382,0.0023374777580213
383,0.00238887829633603
384,0.00252008825755332
385,0.00252923075083039
386,0.00263295668613424
387,0.00275489021012875
388,0.00298891112738568
389,0.00308663344339973
390,0.00303461699400697
391,0.00309921320988289
392,0.00326286030839029
393,0.00322560939499538
394,0.00343870433808809
395,0.00365577530571923
396,0.00416789183039838
397,0.00471352367537102
398,0.00525915552034365
399,0.00580478736531628
400,0.00627187537558468
401,0.00676490878565436
402,0.00718321702502414
403,0.00735750469113823
404,0.00765941592531069
405,0.00778320813710936
406,0.00797606637065116
407,0.00823870966459737
408,0.00832179555086272
409,0.00861934330922964
410,0.00913202805406684
411,0.00923160893156566
412,0.009506758342859
413,0.00982258592524158
414,0.0100260664584775
415,0.0101107199806827
416,0.0101647344844458
417,0.0101096634293815
418,0.0102611503180057
419,0.0101502660103708
420,0.010455774623258
421,0.0104086805592392
422,0.0105737993987333
423,0.0106279489162058
424,0.0107293427865291
425,0.0105685486170471
426,0.0105408143994156
427,0.0103013240996295
428,0.0100295308495382
429,0.0100122508781221
430,0.00995328043638897
431,0.0103793271240809
432,0.0107908985901577
433,0.0111501147084068
434,0.011561022157361
435,0.0118888049855615
436,0.011993910965566
437,0.0121668593645498
438,0.0123398077635337
439,0.0125127561625176
440,0.0126571861214272
441,0.0127877497590486
442,0.0132234306901784
443,0.0132205105503858
444,0.0134565501297305
445,0.0136925897090751
446,0.0139286292884197
447,0.0141390777731876
448,0.0141730048554102
449,0.0146697567617425
450,0.0145736748663482
451,0.0144804233775808
452,0.014407185524879
453,0.0143339476721772
454,0.0142607098194754
455,0.0141951955975811
456,0.0141375945940053
457,0.0142825996066385
458,0.014290314801241
459,0.0144744451429766
460,0.0144250173226303
461,0.0142270929399268
462,0.0146390597792716
463,0.014188757061114
464,0.0139562770414614
465,0.0139436537306729
466,0.0136820141149913
467,0.013666507569771
468,0.0134613019055814
469,0.0133526006856605
470,0.0135259379067032
471,0.0135359048184005
472,0.0135877443400022
473,0.0137326893277085
474,0.0136976045168357
475,0.0138235080864911
476,0.0135530239325779
477,0.0135685311717363
478,0.0135840384108947
479,0.0135995456500531
480,0.0135122821797685
481,0.0131222450042564
482,0.0129665457451963
483,0.0128444135564356
484,0.0125279565291046
485,0.0122523130598829
486,0.0123757253618257
487,0.0123710785036003
488,0.0125130519606204
489,0.0128117698336735
490,0.0128947570005669
491,0.0130560876931169
492,0.0133023430521488
493,0.0131963197709969
494,0.0134140471482857
495,0.0132276085887112
496,0.0133540045705445
497,0.0130878430315634
498,0.0131774210680352
499,0.0128854640684148
500,0.0130255756807344
501,0.0128543540496475
502,0.0131256194211025
503,0.0131822923668702
504,0.013136821484215
505,0.0135490145520551
506,0.0134748467733689
507,0.0135811883151638
508,0.0136903295073928
509,0.0137565760295742
510,0.0135206665702607
511,0.0137777705527532
512,0.0137397989107448
513,0.0134285707706662
514,0.0133898618169046
515,0.0131603382097829
516,0.0131832049892892
517,0.0131488192279095
518,0.0132171222959286
519,0.0134979013260511
520,0.0137918187621618
521,0.0140230601330724
522,0.014254301503983
523,0.0144855428748936
524,0.014468397421715
525,0.0145940607883389
526,0.0146840826748537
527,0.0146474398497333
528,0.0148352920071973
529,0.0151003140668606
530,0.0151354694207027
531,0.0152484935807581
532,0.0152261416360165
533,0.0154219321606473
534,0.0155373237140719
535,0.0153615786534473
536,0.0155862859646391
537,0.0155081030393415
538,0.015416489693319
539,0.0153663991500568
540,0.0154562632171278
541,0.0153601315373608
542,0.0153512023607835
543,0.0153711088571683
544,0.0155292599277338
545,0.015461591171953
546,0.0156206865916093
547,0.0156346016127112
548,0.0156485166338131
549,0.015662431654915
550,0.015509023733994
551,0.0156694811114559
552,0.0158108598447261
553,0.0156409105628822
554,0.0156069967306298
555,0.0157436419557507
556,0.0155706046409845
557,0.0155326328083422
558,0.015396044568732
559,0.0153149666081858
560,0.0154217648987233
561,0.015202173353971
562,0.0154202909743303
563,0.0151601504090366
564,0.0152716750500371
565,0.0150319076342922
566,0.0149280464741748
567,0.0146727535525589
568,0.0148403238289882
569,0.0145872292285696
570,0.0145537787424125
571,0.0145553938836583
572,0.0145456913128239
573,0.0145204943715291
574,0.014603004928485
575,0.0144216767743214
576,0.0144551181612282
577,0.014488559548135
578,0.0145220009350418
579,0.0145554423219486
580,0.0145888837088554
581,0.0147874769089601
582,0.014674676002027
583,0.0147753664003601
584,0.014578810269722
585,0.0145519119800156
586,0.0141965351051222
587,0.0139727945401987
588,0.0138546163717581
589,0.0137364382033176
590,0.013618260034877
591,0.0137613104501778
592,0.0139375274879988
593,0.0140076476058822
594,0.014260425125146
595,0.0142411534079378
596,0.0144597918534842
597,0.0145380417790112
598,0.0146901376026884
599,0.0147017210990412
600,0.0148956158806724
601,0.0149376226016864
602,0.0150823063520184
603,0.0150488854423214
604,0.0152433641217924
605,0.0151870960394998
606,0.0152195908554793
607,0.0152313276590051
608,0.0150337210086798
609,0.0150401112212909
610,0.0149382185038469
611,0.0148743247096884
612,0.0147528576454962
613,0.0147407446663465
614,0.0145808850160904
615,0.0147152550585652
616,0.0145668833617732
617,0.0146362325814584
618,0.0146477931630632
619,0.0146645205648694
620,0.0145903673989216
621,0.014721679548066
622,0.0144330481445657
623,0.0144198150083143
624,0.0143249872192082
625,0.0142301594301021
626,0.014135331640996
627,0.0141148692897084
628,0.0140520570307007
629,0.0140038334423691
630,0.0141176204815245
631,0.0139101347814556
632,0.0139866248583021
633,0.0140708898897497
634,0.0140353824121101
635,0.014074476653577
636,0.0140210827102748
637,0.0140721332283759
638,0.0139612901637706
639,0.0139860720384562
640,0.0138774737457436
641,0.0138500870389668
642,0.0137721781656515
643,0.0136379041704074
644,0.0135036301751634
645,0.0133693561799194
646,0.0133839961311024
647,0.0133282227696872
648,0.0129844210772537
649,0.0132505149187752
650,0.0130622810931241
651,0.0131841247383576
652,0.0129743954170778
653,0.0128235964388192
654,0.0125707789256545
655,0.0126659984052504
656,0.0124858174899019
657,0.0125892692167647
658,0.0127146357593051
659,0.0130427017560197
660,0.0130830668818803
661,0.0131247600947979
662,0.0131611809912401
663,0.0130819494404869
664,0.0129728709671409
665,0.0129766411978745
666,0.0129762203475709
667,0.013004532124616
668,0.0129859803277809
669,0.0127698245793868
670,0.0128286750862202
671,0.0127736413663194
672,0.0126827326537069
673,0.01267713967221
674,0.0127166477723255
675,0.0127047888021133
676,0.0126855974713787
677,0.0127361337398843
678,0.012590362831798
679,0.0126370725528023
680,0.0129234804356828
681,0.0126529750734576
682,0.0124407093269478
683,0.012286131252171
684,0.011936483109611
685,0.0116659652150166
686,0.011473090206757
687,0.0112953238699956
688,0.0112402411014684
689,0.0113745810510844
690,0.0115863505269494
691,0.0119369068323845
692,0.0120475723566999
693,0.0123068548584474
694,0.0126809316385588
695,0.0128264796998319
696,0.0132837510299401
697,0.0135543200907548
698,0.0136443320210571
699,0.0139396222281344
700,0.0144541492464878
701,0.0146719154353999
702,0.0151588644372437
703,0.0155451019200467
704,0.0160952595691522
705,0.0164575211195493
706,0.0170103624757517
707,0.0175692992502777
708,0.0179867867579622
709,0.0185605702992219
710,0.0187293252920561
711,0.0191404402908134
712,0.0196309472951511
713,0.01925232337407
714,0.0191609653808496
715,0.0185413822554359
716,0.0180422814747691
717,0.017754051271197
718,0.0179345501442153
719,0.0184638261924514
720,0.0190581133902908
721,0.0193103992290091
722,0.0203237639488369
723,0.0206525684801053
724,0.0210030014796444
725,0.0214269185556784
726,0.0217906285867025
727,0.0225108708463361
728,0.0232383861438203
729,0.0242187545189421
730,0.0252281383256307
731,0.0265360619138042
732,0.0277352021536173
733,0.0291187692297749
734,0.0301215326418108
735,0.0308353146381981
736,0.0317026874911462
737,0.032354609712542
738,0.0330065319339378
739,0.0336584541553336
740,0.0346815439445912
741,0.0352883067729728
742,0.0358524205492439
743,0.036416534325515
744,0.0369806481017861
745,0.0375151839199674
746,0.0378073317453092
747,0.0381659719193436
748,0.0380416624428642
749,0.0384774407501156
750,0.0387561068320304
751,0.0387907308035557
752,0.0394617049004978
753,0.0392479471504905
754,0.0391198519714923
755,0.0368577688039263
756,0.0345956856363604
757,0.0323336024687945
758,0.0284002087787742
759,0.0250267742789425
760,0.0225379858666138
761,0.0221007031501788
762,0.0229711646493502
763,0.0247318445631057
764,0.0271961246939762
765,0.0295644455501952
766,0.0325035056638437
767,0.035262183268358
768,0.0370047016085624
769,0.0380466815490012
770,0.0391501868177566
771,0.0396018844253233
772,0.0401340259682768
773,0.0406742932220945
774,0.0404390974842607
775,0.0406234910789899
776,0.0406847045448554
777,0.0403208349402159
778,0.0408817566579038
779,0.0404748094198398
780,0.0410205789918325
