"wavelength","measurement"
380,0.00258698707580098
381,0.00247166575101949
382,0.00248680309851824
383,0.00249172299127781
384,0.0024480575807165
385,0.00266011423272879
386,0.00283896119903851
387,0.0030141505135335
388,0.00305745038439075
389,0.00325382052966161
390,0.00314148666934966
391,0.00326470650990845
392,0.00338770990063071
393,0.00347891817044076
394,0.00358709863329656
395,0.00385009161930978
396,0.00425473687015214
397,0.0049332790109973
398,0.00561182115184246
399,0.00629036329268762
400,0.00663283447203771
401,0.00704779436325405
402,0.00740577982028951
403,0.00774608002322465
404,0.00789051568968266
405,0.00814516989771921
406,0.00845501755270069
407,0.0086387189490149
408,0.00879009700718952
409,0.00904008267508928
410,0.0096257112373347
411,0.00967249468509044
412,0.0101993844186124
413,0.0104612203266223
414,0.0105551078770467
415,0.0108550262318331
416,0.0108658115866639
417,0.0107747878596909
418,0.0110995924097072
419,0.0110391277853864
420,0.0113317450019717
421,0.0113513137806074
422,0.0115960244589637
423,0.0116048302804159
424,0.0117793828247525
425,0.0116196128050879
426,0.0116078639188707
427,0.0113287827086642
428,0.011064441401824
429,0.0110951711388022
430,0.0110068297991613
431,0.0114550425266056
432,0.0118655325477704
433,0.012279472643321
434,0.012775713973907
435,0.0130825554450037
436,0.0131768040045673
437,0.0133962927314966
438,0.0136157814584259
439,0.0138352701853553
440,0.0139376025734523
441,0.0141587354319814
442,0.0144067892518239
443,0.0146385641435942
444,0.0148359820545366
445,0.015033399965479
446,0.0152308178764214
447,0.0153996683319834
448,0.0155008186745053
449,0.0159585741070243
450,0.0158392876982867
451,0.0157469457691472
452,0.0156363944860383
453,0.0155258432029293
454,0.0154152919198204
455,0.0153895118460833
456,0.0153861979447121
457,0.0154247128620048
458,0.0153958809480915
459,0.0156484574423032
460,0.0156093248342814
461,0.0154054811521093
462,0.0157861075746668
463,0.0153101653016421
464,0.0151510946220419
465,0.0149487242814632
466,0.0147362295332392
467,0.0147059927772723
468,0.0145262315065335
469,0.014392864748355
470,0.0146312891969486
471,0.0145781312380877
472,0.0146696905840728
473,0.0147399657396439
474,0.0148036433482172
475,0.0149697680743345
476,0.0146402699729059
477,0.0146180997190764
478,0.0145959294652469
479,0.0145737592114174
480,0.0144917274994654
481,0.0141541296593546
482,0.0138700893882223
483,0.0138785900153209
484,0.0134569750036006
485,0.0131553410470569
486,0.01324972622166
487,0.0132660708537462
488,0.0133775203490781
489,0.0137838527337047
490,0.0137552577037183
491,0.013922095887244
492,0.0142410945308528
493,0.0140597389430334
494,0.0143137520199685
495,0.0141343034619444
496,0.0142022584472091
497,0.0139048710816301
498,0.0140273365024454
499,0.0137268156766428
500,0.0138681000479315
501,0.013688341447738
502,0.0139657893180028
503,0.0139907834478303
504,0.0139058648924913
505,0.014344413703882
506,0.014355785711074
507,0.0143733502941415
508,0.0144910105507601
509,0.0145454507024949
510,0.0143376588108932
511,0.0145951566971616
512,0.0145293969342359
513,0.0142041314959619
514,0.0141101542614993
515,0.0139409981985046
516,0.013903447300676
517,0.0139362507806331
518,0.0139308759378435
519,0.0142541965757622
520,0.0145572239319263
521,0.0147923518200923
522,0.0150274797082584
523,0.0152626075964244
524,0.0152186766864852
525,0.0153273234099906
526,0.0155194451552164
527,0.0154327407411237
528,0.0156036550362244
529,0.0158757315544195
530,0.0159290637770473
531,0.0160049607157532
532,0.0160243768950298
533,0.0161938689712047
534,0.0163340120055289
535,0.0161427972693421
536,0.0163695672039421
537,0.0163026517171068
538,0.0161686883437608
539,0.016126368447714
540,0.0162344308692311
541,0.0161609737231817
542,0.0160505606101613
543,0.0161283351521679
544,0.0162849249314035
545,0.0162022108418554
546,0.0163447748362262
547,0.0163506016997965
548,0.0163564285633667
549,0.016362255426937
550,0.0162371011495777
551,0.0163738168721835
552,0.016568071815952
553,0.0164184497594158
554,0.0163762263479638
555,0.016502264818683
556,0.0162953875886243
557,0.0162492064431981
558,0.0161584345841392
559,0.0159443890326258
560,0.0161746224427539
561,0.0158781981760423
562,0.0161135043248042
563,0.0158284403933267
564,0.0159055593299749
565,0.0156955567159137
566,0.0155915952893807
567,0.0153920934662046
568,0.0154648403609467
569,0.0152164296345177
570,0.0152251626618151
571,0.0152169373705505
572,0.0151962771128595
573,0.0151565128937436
574,0.0152919247278016
575,0.0150311819914749
576,0.0150651648170264
577,0.0150991476425779
578,0.0151331304681294
579,0.0151671132936809
580,0.0152010961192324
581,0.0153598549047642
582,0.0153187588088169
583,0.0153864185850698
584,0.0152067645073609
585,0.0151552293269443
586,0.0147147692364583
587,0.0145757967641066
588,0.0144457334444644
589,0.0143156701248222
590,0.0141856068051799
591,0.0142839491419171
592,0.0144791451798492
593,0.0145484846520677
594,0.0147985693018817
595,0.0148771289588312
596,0.0150194503382705
597,0.0150983018622915
598,0.0152243570654389
599,0.0152629695227047
600,0.0154575017122641
601,0.0155374950810477
602,0.0157027549322549
603,0.0156386668231331
604,0.0158713899782997
605,0.0157700736278188
606,0.0158009928286947
607,0.015774914869735
608,0.0155883375251346
609,0.0156102690321764
610,0.015494339016537
611,0.0154104904151861
612,0.0153188758857914
613,0.015281323884606
614,0.0150759862529514
615,0.0152012248897124
616,0.015073629826627
617,0.0152556999831986
618,0.0151675742619555
619,0.0151904537245525
620,0.0151672573834313
621,0.0152751233055516
622,0.0149461400411548
623,0.0149400544679641
624,0.0148466805418854
625,0.0147533066158067
626,0.014659932689728
627,0.0146224680190954
628,0.0145699187439215
629,0.0145208321482263
630,0.0146872268271237
631,0.0144449343570397
632,0.0145505804751889
633,0.0146111683087621
634,0.0145424439999846
635,0.0146588866192629
636,0.0145362945253668
637,0.0146081216771745
638,0.014485132052498
639,0.014546697377965
640,0.0144091292530074
641,0.0143556589543798
642,0.0142421232750068
643,0.0141027822448274
644,0.0139634412146481
645,0.0138241001844687
646,0.0138803148887253
647,0.0137677406028266
648,0.0134585523094637
649,0.0137398579986214
650,0.0135737257557412
651,0.0136639425087141
652,0.013493059261624
653,0.0133112672180896
654,0.0130273778588939
655,0.0131795271769363
656,0.0129662368587525
657,0.0130993746065438
658,0.0132046234089664
659,0.0135399229113837
660,0.0136084629000508
661,0.0136257913739579
662,0.0137047682019699
663,0.0135640160433094
664,0.0134395395132695
665,0.0135051884462522
666,0.0135310660444044
667,0.013528567384288
668,0.013560650127372
669,0.0132488473803047
670,0.0133058930916558
671,0.0132604491382263
672,0.0131815867192692
673,0.0132095686632519
674,0.0131802725165495
675,0.0132574859328965
676,0.0132663620366658
677,0.013275015590964
678,0.0131780815892014
679,0.0130931056969818
680,0.013468177738872
681,0.0131919786766135
682,0.0130106093099072
683,0.0128063993593681
684,0.0123934831085132
685,0.0121616394028244
686,0.011921102037682
687,0.0117884913974114
688,0.0117018390317183
689,0.0118170424197127
690,0.0120681807875064
691,0.0124146619793326
692,0.0125351536123848
693,0.0128510866389924
694,0.0132046517752101
695,0.0133467621308027
696,0.0137901966955469
697,0.0141269559144849
698,0.0142253758999308
699,0.0145103350852495
700,0.0149842577861954
701,0.0152207451472926
702,0.0157682962450572
703,0.0161476457831973
704,0.0167500637205332
705,0.0171300222932981
706,0.0176962563778808
707,0.0182525432542781
708,0.0186745570744419
709,0.0191982647029556
710,0.019471619053006
711,0.0199194530455632
712,0.0203511752827642
713,0.0199454937532228
714,0.0198790089929783
715,0.0191829870493811
716,0.0187159858455061
717,0.0183189307714855
718,0.0185600979878779
719,0.019159603498412
720,0.0197319037036698
721,0.0199682185347474
722,0.0210291811544766
723,0.0213367865007152
724,0.0216666040090015
725,0.0221768110785596
726,0.0224848446013331
727,0.0232908003226007
728,0.0240362847941524
729,0.0250330324044644
730,0.0261124666262801
731,0.0274712969060725
732,0.0286833643516216
733,0.0300567185771533
734,0.0311196848099192
735,0.0318520160932075
736,0.0327118689649795
737,0.0334068221897719
738,0.0341017754145643
739,0.0347967286393567
740,0.0358211863489997
741,0.0363959641907789
742,0.0370061312866907
743,0.0376162983826025
744,0.0382264654785143
745,0.0387565609268583
746,0.039039265804409
747,0.0395435751757114
748,0.0392748820606508
749,0.0397651909742592
750,0.040269592567307
751,0.0400164161163924
752,0.0408511109463686
753,0.0405124212424223
754,0.0403938227253665
755,0.0380546776554625
756,0.0357155325855586
757,0.0333763875156547
758,0.0292561115505779
759,0.0257594173973831
760,0.023315859881357
761,0.0227555144634467
762,0.0235935612628056
763,0.0254021076472187
764,0.0280572699669427
765,0.0304066261468243
766,0.0334090403114097
767,0.0363603869955427
768,0.0379715563312044
769,0.0393768587907517
770,0.0402976070312672
771,0.0408241893275742
772,0.0414118283316074
773,0.0419847466275031
774,0.0416765855866005
775,0.0418266665815062
776,0.0419622347564863
777,0.0416193136708373
778,0.0422060038573554
779,0.0418132371552235
780,0.0423035021042497
