"wavelength","measurement"
380,0.00271065165115102
381,0.00266682441138201
382,0.00260095754100333
383,0.00255172761796539
384,0.00263747761185881
385,0.00273050151643997
386,0.00294982001567887
387,0.0031373860092058
388,0.00328303494380638
389,0.00338589027953084
390,0.00345520106202522
391,0.00347973989600507
392,0.00361527731819746
393,0.00364318394223867
394,0.00386629985345231
395,0.00415062486092719
396,0.00469352768348784
397,0.00535376867475617
398,0.00601400966602451
399,0.00667425065729284
400,0.00709402481780039
401,0.00773043684289134
402,0.00816549540888845
403,0.00851254128153755
404,0.00867998159349472
405,0.00884425380325753
406,0.00913467912745319
407,0.00941413271363927
408,0.00962692796412633
409,0.00987887063910112
410,0.0103772153454875
411,0.0106190069277525
412,0.0109736337870641
413,0.0112770087329874
414,0.011391981278658
415,0.0116713128637076
416,0.0115624627043616
417,0.0115721184089787
418,0.0118632658779669
419,0.0115206257956004
420,0.011983276204291
421,0.0118983665370874
422,0.0120424150923191
423,0.0122071819986711
424,0.0123061459391044
425,0.0120567742606959
426,0.0120305164482189
427,0.0116675046135223
428,0.0112903879152279
429,0.0113824018553594
430,0.0114038297130001
431,0.0117649583312672
432,0.0121761584093481
433,0.012613312352137
434,0.0130717359553277
435,0.013407653981646
436,0.0135108616732652
437,0.0137498160456275
438,0.0139887704179897
439,0.0142277247903519
440,0.0142645521136815
441,0.0145297070128907
442,0.0148993753961253
443,0.0149794318977312
444,0.0152097667478554
445,0.0154401015979797
446,0.0156704364481039
447,0.0159777138977644
448,0.0159352871460201
449,0.0165623626772653
450,0.0163764638586521
451,0.016353466330736
452,0.0162939741352659
453,0.0162344819397959
454,0.0161749897443259
455,0.0160732651752705
456,0.0159945004237892
457,0.0161235350324101
458,0.0161839218030102
459,0.0163201016971051
460,0.0163269694976128
461,0.0161574385114796
462,0.0165493722674747
463,0.0160681857754627
464,0.0158400055215496
465,0.0157233995210002
466,0.0154484838361885
467,0.0153791391520461
468,0.0152597258332383
469,0.0151766542866239
470,0.0154363216015705
471,0.0152932016324114
472,0.0153841327509724
473,0.0155466389748702
474,0.0155208818515656
475,0.0158007297377518
476,0.0154093447643625
477,0.0153873768920045
478,0.0153654090196465
479,0.0153434411472885
480,0.0153540929971313
481,0.0149339400120205
482,0.0146814294819838
483,0.0146369527476863
484,0.0142286847299655
485,0.0139116838393993
486,0.0139746665933912
487,0.0140943242172573
488,0.0141965414710675
489,0.0145447350955233
490,0.014634059385421
491,0.014793294433443
492,0.0151139562138716
493,0.0149703865750717
494,0.0152251419876624
495,0.0150288531311557
496,0.0150730291313997
497,0.0148876875091525
498,0.0149718784452066
499,0.0146553807816139
500,0.0147526620874395
501,0.0146398667818325
502,0.0148545070863344
503,0.014924228620571
504,0.014842503148027
505,0.0153650715397679
506,0.015329282163613
507,0.0154262431222764
508,0.0155796025868696
509,0.0155774744408394
510,0.0153472151148356
511,0.0156402635314458
512,0.0155986123372543
513,0.0152109441347461
514,0.0151960469652156
515,0.0149592267082648
516,0.014981451556115
517,0.0149687532716617
518,0.0149982648210236
519,0.0153748863395174
520,0.0156788685195936
521,0.0159362014786276
522,0.0161935344376615
523,0.0164508673966955
524,0.016478898683981
525,0.016571759149305
526,0.0168083584697129
527,0.0167023829882743
528,0.0169811355920137
529,0.0171797270339352
530,0.0172832868816238
531,0.0173694087507268
532,0.0173704609589203
533,0.0175991872540756
534,0.0176859852226182
535,0.0175256349642439
536,0.0177824849983645
537,0.0177048687725294
538,0.0176111795974886
539,0.0175569385066824
540,0.017637800409733
541,0.0175543602353896
542,0.0175436270878697
543,0.0176253602780208
544,0.0177500229329603
545,0.0176170609327932
546,0.017790903790297
547,0.0178067250203487
548,0.0178225462504003
549,0.0178383674804519
550,0.0177615616453123
551,0.0179230622618967
552,0.0180100244437643
553,0.0178736674476211
554,0.0177916275808445
555,0.0179982595893145
556,0.0177774199932343
557,0.0177123846707596
558,0.0175825246619077
559,0.0173773449292079
560,0.0176542664293955
561,0.0172832013484067
562,0.0176045550883006
563,0.0172941265885337
564,0.0173569811279956
565,0.0170859532629298
566,0.0169732539947669
567,0.0167524620608091
568,0.0167900129067031
569,0.0165504940027605
570,0.0165452810742901
571,0.0165602369884295
572,0.0164978074921191
573,0.0165180938392162
574,0.0165551857535026
575,0.0163277414317016
576,0.0163615865761846
577,0.0163954317206676
578,0.0164292768651507
579,0.0164631220096337
580,0.0164969671541168
581,0.0166798433112753
582,0.0165696827569182
583,0.0166586549170929
584,0.0164147946161771
585,0.0163847331272878
586,0.015972916614994
587,0.015748837673736
588,0.015601152058664
589,0.015453466443592
590,0.0153057808285201
591,0.015423949643267
592,0.0156130665225432
593,0.0157019887391463
594,0.0159804740959645
595,0.015965621152811
596,0.0161372307297316
597,0.0162440504528403
598,0.0163577078341152
599,0.0163962555795822
600,0.016560622932626
601,0.0166993099711706
602,0.0168545235060896
603,0.0168078982419997
604,0.0169747747681512
605,0.0169259838280399
606,0.0169774882116848
607,0.0169127706586086
608,0.0166999876261711
609,0.0167397955504166
610,0.0166039894137933
611,0.0165068401719041
612,0.0163691745679983
613,0.0163161642695152
614,0.0161551016086646
615,0.0163088623455823
616,0.0160756242524135
617,0.0162201526683419
618,0.0161932013647814
619,0.0162438600357675
620,0.0162214387475064
621,0.0162787587752777
622,0.016009702080403
623,0.0159778427281752
624,0.0158656783119983
625,0.0157535138958215
626,0.0156413494796447
627,0.0156420094339623
628,0.0155193394939017
629,0.01554208759042
630,0.0156667261381622
631,0.0154236190625159
632,0.015512655452551
633,0.0155563823074133
634,0.0155114406861251
635,0.0156632617342349
636,0.0155274747902177
637,0.0155949014196602
638,0.0154924877917792
639,0.0154780397873711
640,0.0153644101259036
641,0.0152906558196774
642,0.0152287358239848
643,0.0150916613903898
644,0.0149545869567947
645,0.0148175125231996
646,0.0148181843417083
647,0.0147299767791604
648,0.014365498307176
649,0.0146615808708846
650,0.0144956227278254
651,0.0146051124046938
652,0.0143991553936591
653,0.0142067586772234
654,0.0138955165085381
655,0.0139873864487252
656,0.0138616718400163
657,0.0139307681568693
658,0.0140570862935817
659,0.0144211194774498
660,0.0145289904079536
661,0.0145186384341704
662,0.0145786607920981
663,0.0144373140478252
664,0.0143044742965977
665,0.0144135862071928
666,0.0143428410608102
667,0.0143915942533949
668,0.0143956128256148
669,0.0140973080914857
670,0.0141377808647429
671,0.0141677794276423
672,0.0140032203855861
673,0.0140383060347231
674,0.0141011327488941
675,0.0140450408265455
676,0.0140896471653528
677,0.0141713784244859
678,0.01397335085121
679,0.0139987060392214
680,0.0143178849775861
681,0.0140286370901019
682,0.0138210068333981
683,0.0136071093617047
684,0.013173805633324
685,0.0128996378283558
686,0.0126847266338398
687,0.0125345990311717
688,0.0124850986425782
689,0.0125470305217409
690,0.0128257521728273
691,0.0132066660966315
692,0.0133882219310518
693,0.01364819342
694,0.0139933030096721
695,0.0142031834692921
696,0.0146530233672305
697,0.0150234849360268
698,0.0151261043871026
699,0.0154789082167025
700,0.0159811325278951
701,0.016147912920514
702,0.016740036659817
703,0.0172064791415339
704,0.0178015809570576
705,0.018121348217277
706,0.0187621394046736
707,0.0193866079266339
708,0.0199126387284359
709,0.0204918245619125
710,0.0207126964729797
711,0.0211691976284819
712,0.0216877082313557
713,0.0212392180949862
714,0.0211162419492913
715,0.0204582491346183
716,0.0198992330262965
717,0.0196122638302631
718,0.0197934695443838
719,0.0204766178402023
720,0.0211015767676239
721,0.0213166246585953
722,0.0224750804233626
723,0.0227710389078941
724,0.0231646379952998
725,0.0237222824011015
726,0.0240668664057126
727,0.0249395579418097
728,0.0256852482697265
729,0.0268044055841287
730,0.0279523873531696
731,0.0293432065813629
732,0.030737523953627
733,0.0321894545403426
734,0.0334337898170206
735,0.034144353080459
736,0.0350929604276278
737,0.0358217424482161
738,0.0365505244688045
739,0.0372793064893928
740,0.0383955474323864
741,0.0390965450326022
742,0.0397384074618442
743,0.0403802698910862
744,0.0410221323203282
745,0.0415147229993451
746,0.0418927436151805
747,0.0423187786676516
748,0.042187325411563
749,0.0425688325067877
750,0.042939361190499
751,0.0428981514449921
752,0.0438001537840785
753,0.0435453833843049
754,0.0432803551979985
755,0.0407281299552871
756,0.0381759047125757
757,0.0356236794698643
758,0.0313876352092703
759,0.0275896001824064
760,0.0248816169183755
761,0.0243127199487716
762,0.0253394868333793
763,0.0273228365195604
764,0.0300264651478037
765,0.0327153883567833
766,0.0358928242386359
767,0.0390830349703594
768,0.040848414221681
769,0.0421922913874372
770,0.04330255500702
771,0.0436025821058522
772,0.0442908347997264
773,0.0448830708597987
774,0.0446874016617749
775,0.0448673763559457
776,0.0450411213171417
777,0.0445339461233091
778,0.045138114109498
779,0.044707610477859
780,0.0454273289135714
