"wavelength","measurement"
380,0.00266939174571742
381,0.0026235693707768
382,0.00253657821201722
383,0.00263367158833533
384,0.00264526908705984
385,0.00282669972049659
386,0.00294675475778285
387,0.00316237292345795
388,0.00324022173640427
389,0.00334844337851753
390,0.00341813603398831
391,0.00342966266842144
392,0.00351277434947617
393,0.00362926766075501
394,0.00379909048359437
395,0.00412828795150466
396,0.00453257510800529
397,0.00519943382412796
398,0.00586629254025063
399,0.00653315125637329
400,0.00697374028535446
401,0.00744002404809771
402,0.00783493440317956
403,0.00809612440414208
404,0.00839852264661929
405,0.00844997980139066
406,0.0088573365456223
407,0.00903408195934861
408,0.00918723795592987
409,0.0095128030155929
410,0.0100109133207221
411,0.0101684911578058
412,0.0105456974564891
413,0.0107890915059005
414,0.010965483992657
415,0.011205263983695
416,0.0111283520342388
417,0.0111522909147313
418,0.0113547704376164
419,0.0111519275030279
420,0.0115689753414739
421,0.0114592577389752
422,0.0116232038195002
423,0.0117469221152102
424,0.0119217611350201
425,0.0117102536448639
426,0.0115797033798379
427,0.0113493659714262
428,0.0109753296248872
429,0.0110611235287915
430,0.0110402758106778
431,0.0114317520706202
432,0.0117664406815299
433,0.0121825186003005
434,0.0127275323802287
435,0.012997522362619
436,0.0131614417573075
437,0.0133613188507887
438,0.0135611959442698
439,0.013761073037751
440,0.0138587716850663
441,0.0140896375478032
442,0.0143923580498526
443,0.0145812690489191
444,0.0147845979037955
445,0.0149879267586718
446,0.0151912556135482
447,0.01544884363746
448,0.0155477361951574
449,0.0160417236131715
450,0.0158558316568741
451,0.0158290209922692
452,0.015754637237674
453,0.0156802534830787
454,0.0156058697284834
455,0.0155523731526972
456,0.0154676285980191
457,0.0155651144915061
458,0.0156245743184871
459,0.0157928410808844
460,0.0157515509544537
461,0.0155549640541165
462,0.015968592451207
463,0.0154496788571759
464,0.01529555883185
465,0.0152230675185412
466,0.0149506134537397
467,0.0148146117434743
468,0.014670428936057
469,0.0145432643718771
470,0.0147560492656036
471,0.0147600718112284
472,0.0148034746301391
473,0.0149731997462925
474,0.0149104485665784
475,0.0151942932265925
476,0.0148022002342314
477,0.0147822740382767
478,0.0147623478423219
479,0.0147424216463672
480,0.0146863231266425
481,0.014360907656037
482,0.0141095828839642
483,0.0140963113750862
484,0.0136790794381086
485,0.0133147932955376
486,0.0134576895106134
487,0.0135288977767944
488,0.0135715859966295
489,0.0139822369990171
490,0.0141033254038694
491,0.0141399676466328
492,0.0145088345082694
493,0.0143168506803878
494,0.0145544200651512
495,0.0144078015963759
496,0.0145271216340168
497,0.0142689814082902
498,0.0143516267383064
499,0.0140490200129633
500,0.0141459382857846
501,0.0139925712385759
502,0.0142761944457637
503,0.0142912962194011
504,0.0141762977393577
505,0.0147090683339416
506,0.0147018659876286
507,0.0147413566872396
508,0.0148375921593931
509,0.0149341477866575
510,0.0146808922374311
511,0.0149836174390587
512,0.0149483673140474
513,0.0145333491099649
514,0.0145365801655054
515,0.0143019143236366
516,0.014318421347634
517,0.0143359019707089
518,0.0143238558303331
519,0.0147268811068317
520,0.0149963908326108
521,0.0152509035611419
522,0.015505416289673
523,0.0157599290182041
524,0.01574155172049
525,0.0158177121253147
526,0.0159835354220846
527,0.0159254785553294
528,0.0161225695468098
529,0.0163958993952009
530,0.0164612206163895
531,0.0165773387115573
532,0.0165828321828278
533,0.0167848105776836
534,0.0168909203257707
535,0.0167770539673952
536,0.0169585822628625
537,0.0168776796110396
538,0.0167810153443271
539,0.0167247082832927
540,0.0168470013739498
541,0.0167328647106811
542,0.0166411297985247
543,0.0167840775107243
544,0.0168985124240527
545,0.0168212932921782
546,0.0169613488356853
547,0.0169747434263439
548,0.0169881380170025
549,0.0170015326076611
550,0.0169018674855453
551,0.0170464970931032
552,0.0172129854016147
553,0.0170060557171015
554,0.0170030060361618
555,0.0171570761319508
556,0.0169256336300502
557,0.01687892429547
558,0.0167846699689379
559,0.0166437472820035
560,0.0168020037294461
561,0.016495438230977
562,0.0167411434394224
563,0.0164735258642735
564,0.0165331984445931
565,0.0163143437384046
566,0.0162036214906999
567,0.0159722062997898
568,0.0160347116963587
569,0.0158456300404658
570,0.015816104268294
571,0.0158504635561466
572,0.0158111967164598
573,0.0157431143968008
574,0.0158930218898116
575,0.0156283114681786
576,0.0156572122188324
577,0.0156861129694863
578,0.0157150137201401
579,0.0157439144707939
580,0.0157728152214477
581,0.0159515699950211
582,0.0159075804967928
583,0.0159781336753268
584,0.0157458540531588
585,0.0157508118360918
586,0.0153335562589492
587,0.0151212961986212
588,0.0149932632738966
589,0.0148652303491719
590,0.0147371974244472
591,0.0148764377159521
592,0.0150503056548915
593,0.0151335535113423
594,0.0154158523281374
595,0.015433607565863
596,0.0155791088230567
597,0.0156346985386397
598,0.0158348935942966
599,0.0158496569684039
600,0.0160906125084238
601,0.016137367560409
602,0.016305792965597
603,0.0162994726356813
604,0.0164437679741038
605,0.0164239538957982
606,0.016451721866467
607,0.0164268256188349
608,0.0161949493400071
609,0.0162432007811652
610,0.0161184043496248
611,0.0160594289812498
612,0.0159278224757718
613,0.0159014000467271
614,0.0157547540776803
615,0.0158874697242964
616,0.0156986333668902
617,0.0158131364925945
618,0.0158140921102692
619,0.015841845236857
620,0.0157360902452524
621,0.0158466955890869
622,0.0155482541910952
623,0.0155497100847411
624,0.0154449033999791
625,0.0153400967152172
626,0.0152352900304552
627,0.015254092723737
628,0.0151531828077138
629,0.0150750547609052
630,0.0152197489226945
631,0.0150080448712801
632,0.0150777526412944
633,0.0152122941183194
634,0.0151678199583631
635,0.0151745424713387
636,0.0150907033471034
637,0.0151216003156526
638,0.0150400422063131
639,0.0150898333898244
640,0.0149725405664949
641,0.0148824157310488
642,0.0147761225097371
643,0.0146341405337876
644,0.014492158557838
645,0.0143501765818885
646,0.0144037055785822
647,0.0143015375142538
648,0.0139827594544197
649,0.0142419349132592
650,0.0140578836295194
651,0.0141948102084261
652,0.0139952865758853
653,0.0137622780891265
654,0.0134985297461808
655,0.013612069332299
656,0.0134836115636685
657,0.0135167335618176
658,0.0136595607844602
659,0.0140165822896462
660,0.0141132183603646
661,0.0141174047719306
662,0.0141963601142822
663,0.0140384910460874
664,0.0139343972459782
665,0.0139802507237506
666,0.0139934374584324
667,0.0139167416507117
668,0.0139599969372574
669,0.0137474221322804
670,0.0137182888593534
671,0.0136487666423867
672,0.0136071890062894
673,0.0136328146895036
674,0.0136041487888426
675,0.0136279846626129
676,0.0136240409889487
677,0.0136867381412991
678,0.0135436386170021
679,0.0135086025616786
680,0.0138689927355584
681,0.0135784340901969
682,0.0133558265790982
683,0.0131853347917754
684,0.0127928155946249
685,0.0124694143276453
686,0.0122807898992219
687,0.0121375975711536
688,0.0120651615508266
689,0.0121755951221894
690,0.0124848736873046
691,0.0127708297734935
692,0.0129909360905251
693,0.0132139078260223
694,0.0136093914858817
695,0.0137875404560249
696,0.0142511572178684
697,0.0145352264353659
698,0.0146600666213438
699,0.0149767529653389
700,0.0155433218343743
701,0.0156987581221668
702,0.016305008044426
703,0.0167076337147779
704,0.0173104025845687
705,0.0176792315851929
706,0.0182584644943801
707,0.0188674628578784
708,0.0193007924592406
709,0.0199005879734828
710,0.020142705754105
711,0.0206221272485453
712,0.0210110142405898
713,0.0206917265519316
714,0.0206345379207981
715,0.0199041317585091
716,0.0193429087714409
717,0.0190947636484808
718,0.0192258956355497
719,0.0198793731252677
720,0.0205861735652753
721,0.0208054431056871
722,0.0218361825629751
723,0.0221382302850302
724,0.0224702751401221
725,0.023057379388621
726,0.0233463622924151
727,0.0241832072315993
728,0.0249682109947031
729,0.0260414260707458
730,0.0271128318174203
731,0.0285288282779247
732,0.0297852206410918
733,0.0311930736755048
734,0.0324030233117727
735,0.0331163755949499
736,0.0339831754969512
737,0.0346879787034365
738,0.0353927819099218
739,0.0360975851164071
740,0.0372610264019582
741,0.0378129363390753
742,0.0384486976312375
743,0.0390844589233998
744,0.0397202202155621
745,0.0402362353943897
746,0.040513074686623
747,0.0409766400837246
748,0.0407565618564958
749,0.0413144574961603
750,0.0415709074051148
751,0.0415841531444394
752,0.0422118694449019
753,0.0421644393547363
754,0.0419260654422622
755,0.0394939614685436
756,0.037061857494825
757,0.0346297535211063
758,0.0304370064231524
759,0.0267796102722242
760,0.0240875603496488
761,0.0236355527938823
762,0.0246289982137738
763,0.0263693204642025
764,0.0289994018562325
765,0.0315725669996886
766,0.0346638745036624
767,0.0378138919285813
768,0.0394540669059223
769,0.0407070360325021
770,0.0417879670339555
771,0.0423167265438602
772,0.0429151155400318
773,0.0434401852699869
774,0.0432341742210032
775,0.0434691164130095
776,0.0435153185640701
777,0.0430789635027798
778,0.043836937374829
779,0.0432522822387434
780,0.0438476765246116
