"wavelength","measurement"
380,0.0106604044655579
381,0.0102807008987037
382,0.0104650707076632
383,0.0105766604559024
384,0.0107113939631105
385,0.0114664226829369
386,0.0121931826259088
387,0.0129182848427756
388,0.0136503032496548
389,0.0142342437792008
390,0.0144912833133352
391,0.0147031320432165
392,0.0152969857020788
393,0.0157914905104499
394,0.0167835345198422
395,0.0185682716002579
396,0.0211191263017281
397,0.0241556770829904
398,0.0271922278642528
399,0.0302287786455151
400,0.0319713509999409
401,0.034539095275726
402,0.0365089866781567
403,0.0375952979961378
404,0.0384852486545067
405,0.0391063638232146
406,0.0405894725679349
407,0.0414673884417885
408,0.0424680694156679
409,0.043932714410292
410,0.0465071949224396
411,0.0469894000942211
412,0.048371713753495
413,0.0495129372736905
414,0.0497445632402727
415,0.0503229076438611
416,0.0498973493057683
417,0.0498743675658644
418,0.0506719529723031
419,0.0499829654429746
420,0.0513045134347107
421,0.0515095123374374
422,0.0520992210104831
423,0.05266040992921
424,0.0530142181502265
425,0.0519668338284222
426,0.0516500990808264
427,0.050116154289057
428,0.0489819261714556
429,0.0493089873303819
430,0.0496582636061055
431,0.0521447349489395
432,0.054417608794385
433,0.0565660140145815
434,0.0590233789901399
435,0.0603771190828283
436,0.0614253435023409
437,0.0626135397610734
438,0.0638017360198059
439,0.0649899322785383
440,0.0658084190058621
441,0.0672076909571365
442,0.0687375572514503
443,0.0697526296183384
444,0.0712519907173924
445,0.0727513518164463
446,0.0742507129155003
447,0.0758134111540917
448,0.0764093724823215
449,0.0793658145547165
450,0.0789172666857383
451,0.0786904591927795
452,0.0786964297179626
453,0.0787024002431458
454,0.0787083707683289
455,0.0789563117624975
456,0.0793621000598711
457,0.0806036184803877
458,0.0813236741296538
459,0.0825986944690153
460,0.0829876520105146
461,0.0822754988491877
462,0.0844435558643107
463,0.0822777193578899
464,0.0814664201676198
465,0.0809804010121954
466,0.0800373772292351
467,0.0799703088987224
468,0.0795750074804588
469,0.0794353056344717
470,0.0812924064618651
471,0.0815381170079792
472,0.0823003764897137
473,0.083304789634936
474,0.0837393329033304
475,0.0847708380260171
476,0.0831146766145879
477,0.0832270981711088
478,0.0833395197276298
479,0.0834519412841507
480,0.0833421360274168
481,0.0812030570051452
482,0.0799481249098394
483,0.0798612009066614
484,0.0782897855191572
485,0.077052677444332
486,0.0782212637226651
487,0.0795991058088445
488,0.0809115022072424
489,0.0831846002059745
490,0.0839884936662992
491,0.0848435044420777
492,0.0871230116007445
493,0.0861578892648084
494,0.0875226582532744
495,0.086389526215502
496,0.0870321016645582
497,0.0854666782127671
498,0.0859378713293758
499,0.0843544285207526
500,0.0852194797606375
501,0.0849191836099961
502,0.0867907790498848
503,0.0875972422092245
504,0.0868576949527836
505,0.0897804990917382
506,0.0893279231242793
507,0.0898449719371046
508,0.090484290555027
509,0.0903490966468867
510,0.0890508761667157
511,0.0901180649341019
512,0.0893315758762296
513,0.0866850530915201
514,0.0861492955786528
515,0.0848280861064982
516,0.0844230709483786
517,0.0845562810270386
518,0.0846438265369885
519,0.0865564110630507
520,0.0880995632594492
521,0.088898433617275
522,0.0896973039751009
523,0.0904961743329267
524,0.0898572632754598
525,0.0901459395588163
526,0.0899891319184901
527,0.0898286199997253
528,0.0902929063173302
529,0.0913135712732286
530,0.091265324365367
531,0.0913434081524876
532,0.0911201508497471
533,0.0921530070254387
534,0.0924849679555493
535,0.0916216956893294
536,0.0926618204929961
537,0.0920673960305609
538,0.0914603940684028
539,0.0910430507101608
540,0.0917679240968596
541,0.0912018447787526
542,0.0907992255041013
543,0.0914032382971846
544,0.0918068559238757
545,0.0911725250693539
546,0.0918761598817728
547,0.091790162201009
548,0.0917041645202452
549,0.0916181668394814
550,0.0914567297881788
551,0.0922845281668822
552,0.0932664739377156
553,0.0922610718310439
554,0.092071808838465
555,0.0931516091006854
556,0.0919490323483825
557,0.0919501264310274
558,0.0915852774513068
559,0.0909728509337999
560,0.0920506487995665
561,0.0906062682795616
562,0.0922990133044443
563,0.090850660682368
564,0.0913715817563873
565,0.0902197086477996
566,0.0900357905601253
567,0.0891021106412416
568,0.0899646730579161
569,0.0891045937842976
570,0.089215206539252
571,0.0896065325498049
572,0.0897625790952423
573,0.0896688687613237
574,0.0904452302755068
575,0.0894541709215307
576,0.0901167297424106
577,0.0907792885632904
578,0.0914418473841703
579,0.0921044062050502
580,0.0927669650259301
581,0.0944188780936651
582,0.094150203110419
583,0.095150305532438
584,0.09393562450566
585,0.0941179851486602
586,0.0919227511232679
587,0.0916119140594268
588,0.091195518522454
589,0.0907791229854812
590,0.0903627274485084
591,0.0911773457167781
592,0.0918945193942954
593,0.092052591758385
594,0.0934375230612367
595,0.0932611537711772
596,0.0936669873681288
597,0.0940801667230071
598,0.0938126155173933
599,0.0939281831161624
600,0.0945770259349744
601,0.0953211357651843
602,0.0958072549287743
603,0.0954552914303141
604,0.0964709741459815
605,0.0959939246082309
606,0.0963182960423346
607,0.0960079396908346
608,0.0951734478195361
609,0.0952846014550323
610,0.0948824976610873
611,0.094407073235676
612,0.0938923344662218
613,0.0937184844554303
614,0.093126353111033
615,0.0946636178620776
616,0.0937296657575014
617,0.0947837442379438
618,0.0946349352672021
619,0.0951362480639237
620,0.0949165529337053
621,0.0956648163505821
622,0.0937133475675161
623,0.0936688588698191
624,0.0929831747088441
625,0.0922974905478692
626,0.0916118063868942
627,0.0914797022573205
628,0.0914366147874186
629,0.0913450309140197
630,0.0923848339248193
631,0.0914691790060247
632,0.0927293852700798
633,0.0933737674529806
634,0.0939455390551274
635,0.0946750164788006
636,0.0939431449075795
637,0.0952636107944955
638,0.0948777173608779
639,0.0955410808783029
640,0.0953190326307552
641,0.0953408212597941
642,0.0951669589851788
643,0.0949644109391341
644,0.0947618628930895
645,0.0945593148470449
646,0.0955328397459314
647,0.0957808042313453
648,0.0942858479075623
649,0.0959507427100372
650,0.0950495632896029
651,0.0955934124777855
652,0.0945750614813566
653,0.0930936069118082
654,0.091459205710127
655,0.0926180236069611
656,0.0919867428016543
657,0.0931510300144471
658,0.0942325558385001
659,0.0964501368385543
660,0.0969799730377338
661,0.0974011803259148
662,0.0977866747573072
663,0.0975160756154513
664,0.096805508225354
665,0.0972099442709799
666,0.0976362314878688
667,0.0978542408294613
668,0.098313118586771
669,0.0964977575997903
670,0.0971891260974808
671,0.0971265733171933
672,0.096940823375785
673,0.0972327151415576
674,0.0975313257825649
675,0.0976458533630467
676,0.097496420776953
677,0.0983433145712998
678,0.0973713403209003
679,0.0972120963896061
680,0.0996779840393715
681,0.0974956997498369
682,0.0946227930464275
683,0.0920511270184232
684,0.0877900430648366
685,0.0843323985742152
686,0.081618469552222
687,0.0799583854629054
688,0.0802521250945148
689,0.0816952305254476
690,0.0841854658452895
691,0.0871570612338339
692,0.0886250304038225
693,0.0899632239132506
694,0.0916808630162189
695,0.0916095652129965
696,0.0930298659606996
697,0.093298213428458
698,0.0920251474758529
699,0.0922725677144507
700,0.0936331761804708
701,0.0928899141060597
702,0.0939134475585041
703,0.0939531549687586
704,0.0950860143536122
705,0.0948914117720989
706,0.0956938283726501
707,0.0964116267039169
708,0.0959235523589018
709,0.0967361596991323
710,0.0955589491642435
711,0.0950571956794103
712,0.0952560011398863
713,0.091894905410567
714,0.0904146602362603
715,0.0866202738550533
716,0.0837549313935643
717,0.0818142678199536
718,0.0811585551386374
719,0.0816398586332154
720,0.0821052539747754
721,0.081119700978745
722,0.0828174827385902
723,0.0824636841225054
724,0.0821886528927411
725,0.0824385134025865
726,0.0819696159616081
727,0.0830136400060971
728,0.0835742437005861
729,0.0851769842520773
730,0.086099291355839
731,0.0877681101262526
732,0.08922198349548
733,0.090984898562054
734,0.091492935902427
735,0.0916605585738297
736,0.0923759326716005
737,0.0924287500533537
738,0.0924815674351069
739,0.0925343848168601
740,0.0935654368993294
741,0.0937304718752568
742,0.0939983377091636
743,0.0942662035430704
744,0.0945340693769772
745,0.0947644394334024
746,0.0943641053195786
747,0.0945759448866081
748,0.0935011357250034
749,0.0941635699986415
750,0.0937380233102726
751,0.0935262365258027
752,0.094825209316072
753,0.0938003491540472
754,0.0915516968263694
755,0.0836638697074234
756,0.0757760425884774
757,0.0678882154695315
758,0.0566162296170832
759,0.0469358588792176
760,0.0416958686827887
761,0.0413044831644685
762,0.043758614700442
763,0.049876782879656
764,0.0572494538459578
765,0.0647471687311603
766,0.0728464610221784
767,0.0804140145286615
768,0.0845345274754349
769,0.0877644520405474
770,0.0902718504633387
771,0.0915371293538937
772,0.0925555804374485
773,0.0936367522775223
774,0.0933074190261692
775,0.0935618518189415
776,0.0940377436633977
777,0.0929901843654218
778,0.0941413343641826
779,0.0931908562307364
780,0.0944880005434582
