"wavelength","measurement"
380,0.0202445744776955
381,0.019456024054026
382,0.0190157555197476
383,0.0186533275211175
384,0.018693246469848
385,0.0193422710168397
386,0.0200848018458575
387,0.0207603808424594
388,0.0212152262114452
389,0.0213642908307079
390,0.0210518168555425
391,0.0208540691186972
392,0.0205970675799684
393,0.0204252353949729
394,0.0210021258444596
395,0.0221052694982866
396,0.0242606333550565
397,0.0263880902344687
398,0.028515547113881
399,0.0306430039932932
400,0.0313128890622387
401,0.0324460231471113
402,0.0331326115242332
403,0.0329586186816597
404,0.032589885125427
405,0.0322420207152256
406,0.0322882704825242
407,0.0321383314993398
408,0.0320472413606536
409,0.032313683035113
410,0.0333417713994876
411,0.0328800384547876
412,0.033283587896067
413,0.0332814609325526
414,0.0329690070965438
415,0.0326776435197127
416,0.0322498578845644
417,0.0316955094343338
418,0.031695843940569
419,0.030908281490748
420,0.031354393894018
421,0.0310590422976651
422,0.0309799856956738
423,0.0307547918256748
424,0.0308382841838574
425,0.0297552145220059
426,0.0291816433740796
427,0.0280150672312847
428,0.0272160365573495
429,0.0269639446059243
430,0.0268934184964149
431,0.027970507468267
432,0.0288159791573014
433,0.0295360321579637
434,0.0304694503073857
435,0.0307144687494709
436,0.0309675886958959
437,0.0311715671073727
438,0.0313755455188494
439,0.0315795239303261
440,0.0315461884909216
441,0.0318942458337459
442,0.0323299374977718
443,0.0324191153807681
444,0.032813800387349
445,0.03320848539393
446,0.0336031704005109
447,0.0338824879834969
448,0.0337268282717332
449,0.0345612787413648
450,0.0341368162331645
451,0.0337207243324461
452,0.033447080966687
453,0.0331734376009279
454,0.0328997942351687
455,0.0326319738813967
456,0.032686908398891
457,0.0330318622964664
458,0.0329461405904368
459,0.0332553802993359
460,0.0331859909048659
461,0.0325170156158143
462,0.0330789549449178
463,0.032001743884897
464,0.0314027355611423
465,0.0309239028881517
466,0.0305053631485482
467,0.0301664462061948
468,0.0298339503770608
469,0.0295136349462355
470,0.0301491830684826
471,0.0298409151057155
472,0.0298260218657201
473,0.0299242108228549
474,0.0298262741227745
475,0.0299253149971942
476,0.029242085954482
477,0.0290640338804759
478,0.0288859818064698
479,0.0287079297324638
480,0.0283365852473127
481,0.027536977178255
482,0.0268043129762422
483,0.026747277999661
484,0.0260440241519762
485,0.0254641099715299
486,0.0257537874439589
487,0.0259011765520963
488,0.0261068461054503
489,0.0266668823265531
490,0.0267125561017288
491,0.0267354223663081
492,0.0271746949977777
493,0.0266347417812933
494,0.0269453217458224
495,0.0264192198941237
496,0.02626563217548
497,0.0257478913876115
498,0.0257387831517373
499,0.0250812926126444
500,0.0251587442579259
501,0.0248284621689379
502,0.0252351637741681
503,0.0253520480714054
504,0.0248493884813826
505,0.0255781113828785
506,0.0253261502668575
507,0.0253040548589028
508,0.025308393892941
509,0.0251575559648502
510,0.024613404279359
511,0.0247301689268042
512,0.0244030161944346
513,0.0235598976863318
514,0.0233467658313607
515,0.0228739424584987
516,0.0226979844046834
517,0.0226828993684826
518,0.0226356767761683
519,0.0230082715614065
520,0.0232740864850227
521,0.0234015070859869
522,0.0235289276869511
523,0.0236563482879153
524,0.023397393402528
525,0.0233616432790548
526,0.0233161525927469
527,0.0231731486406012
528,0.0232262990442484
529,0.0233559904430855
530,0.0231964942076594
531,0.0231943638567871
532,0.0230584773249695
533,0.0232216009394107
534,0.0232625114447728
535,0.0229422946218702
536,0.0230484462745245
537,0.0228959861070759
538,0.0226277381421364
539,0.0225081116169149
540,0.0225381896556994
541,0.0223017610168294
542,0.0221543563235534
543,0.0221819389570115
544,0.0222582826293087
545,0.0219143953077905
546,0.022048017132591
547,0.0219602034971182
548,0.0218723898616454
549,0.0217845762261726
550,0.0216887411195376
551,0.0217261829711994
552,0.0218802752316526
553,0.0216074498555576
554,0.0214524761382608
555,0.0216304165211568
556,0.0211311900750536
557,0.021121941603867
558,0.0209065743265386
559,0.0206989315548343
560,0.020916236508452
561,0.0204262607524201
562,0.0206019470480182
563,0.0202149343353422
564,0.0202143773585028
565,0.0198364892915891
566,0.019742976913287
567,0.0193374254187989
568,0.0194208246634816
569,0.0191611659637224
570,0.0190452188891315
571,0.0189582006467788
572,0.0188490183966462
573,0.0188050924252318
574,0.0187690367195233
575,0.0185546231258563
576,0.0185883274300303
577,0.0186220317342043
578,0.0186557360383783
579,0.0186894403425524
580,0.0187231446467264
581,0.0189074818633107
582,0.0187483614841562
583,0.0188140270911513
584,0.0184541808449324
585,0.0183996145281527
586,0.0180266561973919
587,0.0177454960859526
588,0.0176019639456709
589,0.0174584318053891
590,0.0173148996651074
591,0.0173431731920973
592,0.0174096629162722
593,0.017326378231539
594,0.0175484953685679
595,0.0174253276843635
596,0.0174032452048362
597,0.017424713477454
598,0.017345079664788
599,0.0172509789083577
600,0.0172909999444228
601,0.0174208022204014
602,0.0174308562517025
603,0.0172680900658371
604,0.0173075288326584
605,0.0171831114454471
606,0.0171733469716249
607,0.0170023820195959
608,0.0168227779421613
609,0.0167385346627215
610,0.0166188425364696
611,0.0164638575913024
612,0.0162732549433034
613,0.0161664882331621
614,0.0160451473710356
615,0.0162196446722169
616,0.0159746803952191
617,0.0161319894617345
618,0.0160753810936605
619,0.0160968078480907
620,0.0159788684801744
621,0.0160521739417647
622,0.0156893644960779
623,0.0156059404671231
624,0.0154564415263431
625,0.0153069425855632
626,0.0151574436447833
627,0.0150966187737346
628,0.0150980991932091
629,0.0150156595583304
630,0.0151699776538234
631,0.0150551939872634
632,0.0150798832742935
633,0.0151455093727858
634,0.0153096065165999
635,0.0153002240116311
636,0.0151529630159245
637,0.0154066835337108
638,0.0152056291305942
639,0.0153329719662746
640,0.0152278973032726
641,0.0151852936843435
642,0.015146113775292
643,0.0150348373841719
644,0.0149235609930518
645,0.0148122846019318
646,0.0149288752808273
647,0.0149386404938458
648,0.0147375482907057
649,0.0150082950979585
650,0.0148034819874911
651,0.0147849325067507
652,0.0145779550736254
653,0.0143420598992819
654,0.0141654136866944
655,0.014325218534478
656,0.0141043397563959
657,0.0143694015558856
658,0.0144912442863174
659,0.0146394670219266
660,0.0146816749186466
661,0.0147014237227975
662,0.0147076876679127
663,0.0145709233233456
664,0.0144155108869932
665,0.014478127461971
666,0.014413328342475
667,0.0144626819529449
668,0.0144758419976233
669,0.0141746252591986
670,0.0142352373458067
671,0.0141530394933857
672,0.0141986054839494
673,0.0141813385075292
674,0.0142212933184183
675,0.0142659919944243
676,0.0141677685684791
677,0.0142275664658015
678,0.014129132481236
679,0.0141036505598849
680,0.0143515193547943
681,0.0141851950336504
682,0.0135624696632878
683,0.0133159331853984
684,0.0127411394822015
685,0.0123120462897942
686,0.0119704833729041
687,0.0119518545329738
688,0.0120753277667458
689,0.012377638698896
690,0.0128014496503698
691,0.0133069352878271
692,0.013672468387724
693,0.0139371503903208
694,0.0144019014477796
695,0.014581689414787
696,0.0149647495640744
697,0.0152490684689645
698,0.0152512531087339
699,0.0155341800978828
700,0.0160202264039054
701,0.016183135014472
702,0.0166012203958194
703,0.016845981871876
704,0.0173700210293524
705,0.0174191610749894
706,0.0179802421094805
707,0.0183005126219401
708,0.0185625769587037
709,0.0189154537236826
710,0.0188603909810422
711,0.0190802247993322
712,0.0192300407902397
713,0.0188063537662011
714,0.0186906481742846
715,0.0182377712754505
716,0.0180237963217661
717,0.0179981907899158
718,0.0181322411617707
719,0.0184220857100083
720,0.0188213116689956
721,0.0188219104958548
722,0.0194520346381327
723,0.0195197854963597
724,0.0198049422721025
725,0.0201761766004102
726,0.0202813907482177
727,0.020840130200579
728,0.0211925321263075
729,0.0218439038029094
730,0.0223872308693861
731,0.0229792327598172
732,0.0234446997716276
733,0.0241580870384742
734,0.0245437222198963
735,0.0248168188701989
736,0.0251674211232973
737,0.0253307748088447
738,0.0254941284943921
739,0.0256574821799395
740,0.0261641000237636
741,0.0263175726000891
742,0.0264357021433453
743,0.0265538316866014
744,0.0266719612298576
745,0.0269004559967267
746,0.0269255088745256
747,0.0271103307875739
748,0.026853659018522
749,0.0270281038241077
750,0.0270876894447543
751,0.0270777233440247
752,0.0274337689938762
753,0.0273262306231632
754,0.0261567499742273
755,0.0238936101371615
756,0.0216304703000957
757,0.0193673304630298
758,0.0162428622004006
759,0.0138795401157837
760,0.0130021582408421
761,0.0129228817273236
762,0.0137781483542377
763,0.0155727460479407
764,0.0175981163513665
765,0.0195299833046228
766,0.021483678248122
767,0.0236344310357884
768,0.0247281325396808
769,0.0254297275662151
770,0.0262064121091863
771,0.0263714352526986
772,0.0267135975063806
773,0.0270102260364408
774,0.026992920391085
775,0.0271055503360166
776,0.0270920472653097
777,0.0269512112837417
778,0.0273009537086003
779,0.026936179957529
780,0.0273732767340401
