"wavelength","measurement"
380,0.00176686709740139
381,0.00173654058741164
382,0.0017646266600057
383,0.00178201507311814
384,0.00183736150627328
385,0.00199367231042508
386,0.00210839823961488
387,0.00220974329944282
388,0.00233665757873123
389,0.00244168549948821
390,0.00243056396219254
391,0.00249119504396967
392,0.00252208990834559
393,0.00259262344320996
394,0.00271011824167724
395,0.00294436564893028
396,0.00324635815095775
397,0.00362276702506425
398,0.00399917589917074
399,0.00437558477327724
400,0.00451318605124582
401,0.00474232372253966
402,0.00493651455280469
403,0.0050382927766643
404,0.00506777337279395
405,0.00507619954173791
406,0.00520567489759119
407,0.00525516664557582
408,0.00529897987825239
409,0.00542439550292412
410,0.00569240092646453
411,0.00573011287555277
412,0.00586348808528548
413,0.00593232659568455
414,0.00595168996577228
415,0.00601441610940701
416,0.00596225735333102
417,0.00594788335322881
418,0.00601687701241905
419,0.00592279566778571
420,0.00607905175856398
421,0.00608363714882121
422,0.00613125798098006
423,0.00619480645450942
424,0.00619347499997634
425,0.00609082887003147
426,0.00599083732025186
427,0.00587745739332836
428,0.00574090093197666
429,0.00574715448439702
430,0.00583051536145625
431,0.00606199538264508
432,0.00631127668658288
433,0.00649840370945631
434,0.00678146683705115
435,0.00688794174843864
436,0.00699474850799987
437,0.00712387835351988
438,0.00725300819903989
439,0.0073821380445599
440,0.00743679449153961
441,0.00758650828303756
442,0.00779276386844443
443,0.00790536982864123
444,0.00807565997711337
445,0.00824595012558551
446,0.00841624027405765
447,0.00856659054267853
448,0.00861093763797452
449,0.00890359698114012
450,0.00889093198291626
451,0.00879669048223663
452,0.00877808013317175
453,0.00875946978410686
454,0.00874085943504197
455,0.00874809526321574
456,0.00877351707192917
457,0.00889116534974307
458,0.00893383699456641
459,0.00906103766556694
460,0.00906327881390888
461,0.00897276665734263
462,0.00920154711139782
463,0.00892428564513136
464,0.00884214099112649
465,0.00877042654889374
466,0.00870059892247275
467,0.00867055714425228
468,0.00862802531023579
469,0.00858839938000533
470,0.00877173263203845
471,0.00875058854836811
472,0.00881038081576008
473,0.00890196924742132
474,0.00890406330287572
475,0.00902882546173948
476,0.0088402626687485
477,0.00883162818621037
478,0.00882299370367224
479,0.00881435922113411
480,0.00878550995669633
481,0.00854515460342656
482,0.00837534419356623
483,0.00840969909798889
484,0.00826213499654751
485,0.00812510711164137
486,0.00824195539624401
487,0.008318774036422
488,0.00843086061661261
489,0.00862795127129254
490,0.00868131967395755
491,0.00874023585559765
492,0.00894424920194571
493,0.00885385793119864
494,0.00895648327255649
495,0.00882636713974207
496,0.00884544889354864
497,0.00869157760148546
498,0.00872694668268521
499,0.00855669698030171
500,0.00863121927577101
501,0.00857640661762819
502,0.00875536671035628
503,0.00880910842770718
504,0.00872202994729681
505,0.00901594936425943
506,0.00892822069851393
507,0.0089580282139953
508,0.00900699629368459
509,0.00897201422031427
510,0.00881209324257446
511,0.00890434367850722
512,0.00878573405690861
513,0.00852886519189493
514,0.00847622625075134
515,0.00834205262659385
516,0.00832560496575408
517,0.00832553604662068
518,0.00829788638082741
519,0.00844691473655856
520,0.00858511602127449
521,0.00864688847999911
522,0.00870866093872374
523,0.00877043339744837
524,0.00869480257242362
525,0.00869437750152924
526,0.00870634454785661
527,0.00864825798836994
528,0.00868712661028056
529,0.00875625733970713
530,0.00873961290537196
531,0.00872528586283437
532,0.00866755578976727
533,0.00876971822047736
534,0.00879196270111423
535,0.00866996952386924
536,0.0087399821117691
537,0.00867560916804338
538,0.00861125588794956
539,0.00853622837470564
540,0.0086000522683996
541,0.00852262820036917
542,0.00847330613374665
543,0.00852242208819681
544,0.00853356903937431
545,0.00843059728655103
546,0.00848973995041653
547,0.00846416931179385
548,0.00843859867317116
549,0.00841302803454848
550,0.00837110181889103
551,0.00843404350891227
552,0.00846609293293669
553,0.00837122179723577
554,0.00834090089045495
555,0.00839269119416271
556,0.00827838762960243
557,0.0082578459696432
558,0.00821191226957844
559,0.00813330857537591
560,0.0082095491224919
561,0.00804705700694963
562,0.00816829678581293
563,0.00802667090077885
564,0.00805534328889475
565,0.00791807507406341
566,0.00788308164675882
567,0.0077909845673637
568,0.00784707170004985
569,0.00774290070897442
570,0.00772559364686842
571,0.00773386764946048
572,0.00772118624955989
573,0.00769693067156817
574,0.00773802769420954
575,0.00765763210118563
576,0.00768804296388132
577,0.00771845382657701
578,0.0077488646892727
579,0.00777927555196839
580,0.00780968641466408
581,0.00789472123509675
582,0.00785286095513384
583,0.00787619991756073
584,0.00774452944312428
585,0.00774301469000757
586,0.00756415106158024
587,0.00748793677339382
588,0.00744279862339863
589,0.00739766047340345
590,0.00735252232340826
591,0.00736793633292669
592,0.00740589793672836
593,0.00737358740410651
594,0.00744069311556216
595,0.00740744667375153
596,0.00742877492832294
597,0.00742646887394038
598,0.00738408643281891
599,0.00734152850211071
600,0.00739254587658677
601,0.00740530583676617
602,0.007416482223395
603,0.00735327439413317
604,0.0074095618614799
605,0.00734026372452227
606,0.00732981675390064
607,0.00729063472443725
608,0.00719554764527674
609,0.00718646157831337
610,0.00714098910061682
611,0.0070781609396489
612,0.00701550094230501
613,0.00697418164089433
614,0.00690855410153292
615,0.00697028252669416
616,0.00690666215498885
617,0.00696948127021364
618,0.00691332097832545
619,0.00693459348750073
620,0.00686871903247906
621,0.00691745811942213
622,0.00674837130333213
623,0.00674165368524924
624,0.00666704356607445
625,0.00659243344689965
626,0.00651782332772486
627,0.00649642812708627
628,0.00646801740347888
629,0.00644526261780772
630,0.00650888169890345
631,0.00641119456892574
632,0.00645079747202869
633,0.00647375164174869
634,0.00650943440820198
635,0.00650255052003151
636,0.00643106379384329
637,0.00649939988190696
638,0.00644222641129692
639,0.00647134516741791
640,0.0064455135196037
641,0.00642211942376526
642,0.00639580263053575
643,0.00636199173084709
644,0.00632818083115843
645,0.00629436993146977
646,0.00632208766901117
647,0.00632542052868641
648,0.00621687505454532
649,0.00631234412686339
650,0.00621098347213099
651,0.0061970230942179
652,0.0061237918542416
653,0.00600863028187206
654,0.00590863719026248
655,0.00593903896449203
656,0.00590788248546158
657,0.00594627477147322
658,0.00598209813256584
659,0.00609488110748303
660,0.00611584104787926
661,0.00609750960963791
662,0.00611683418717022
663,0.00604866021501816
664,0.00601410403154398
665,0.00599458040686321
666,0.00602137040909758
667,0.00599245611101685
668,0.00599377868309662
669,0.00587049050624031
670,0.00588776745602442
671,0.00587528980246367
672,0.00584933561858107
673,0.00585752215846348
674,0.0058496181022722
675,0.00582684525900261
676,0.00581750704853198
677,0.00580880763141693
678,0.00575227196075818
679,0.00571275755312275
680,0.00583753739278802
681,0.00569909726260066
682,0.00543614232434098
683,0.00531569321307862
684,0.0050606722917955
685,0.00486172963402786
686,0.004705813568713
687,0.00465687761586224
688,0.00464268850415913
689,0.00471705463453723
690,0.00479683178674994
691,0.004959756751267
692,0.00502245467223414
693,0.00506403693362816
694,0.00513123470205384
695,0.00511415194061472
696,0.00517183844120662
697,0.00518191300376495
698,0.00508693888008417
699,0.00510990362875428
700,0.00517836198467033
701,0.00512918683546008
702,0.00516468111279213
703,0.00514100469905297
704,0.00521759900895671
705,0.00516965638111384
706,0.00522837928611088
707,0.00526164163287298
708,0.00521334967159558
709,0.00523076350791575
710,0.00515740734812393
711,0.00512232097298439
712,0.00510041589673582
713,0.00493845738884995
714,0.00484016183976735
715,0.00464778121549638
716,0.0045469946449218
717,0.00445719997118452
718,0.00441304315841745
719,0.00447000821472701
720,0.00447131647564175
721,0.00438960929732253
722,0.00446856856585229
723,0.00446458882435533
724,0.00444585720839155
725,0.00445789729618072
726,0.00440740876844246
727,0.00447702527109555
728,0.00451400912072954
729,0.00456505137598153
730,0.0046209807106695
731,0.00471641884304417
732,0.00475479031107026
733,0.0048047274621057
734,0.00486568046905715
735,0.00483507861182376
736,0.00488018449077582
737,0.00486601154346939
738,0.00485183859616297
739,0.00483766564885654
740,0.00485877647375193
741,0.00486850983083991
742,0.00486400742032601
743,0.00485950500981211
744,0.00485500259929821
745,0.00483063440746208
746,0.00479668363642129
747,0.00478938728555678
748,0.00472305719876722
749,0.00473881141388104
750,0.00469658958397853
751,0.00466227987981237
752,0.0047006934265781
753,0.00456971035614239
754,0.00443666979437482
755,0.00404457286715994
756,0.00365247593994505
757,0.00326037901273016
758,0.00272236015576528
759,0.00234046819397037
760,0.00218866661754643
761,0.00216012659871916
762,0.00226493127675518
763,0.00254596749684925
764,0.00283273852938724
765,0.00310678531234094
766,0.00342971764161156
767,0.00371247466489591
768,0.00388256848506229
769,0.00403896113709888
770,0.00410356897327588
771,0.00413734717660807
772,0.00413825225404352
773,0.00421121422199367
774,0.00415781200697557
775,0.00415078561724859
776,0.00416424896839885
777,0.00411626934984461
778,0.00414436541521324
779,0.00407016250348041
780,0.00413836088496587
