"wavelength","measurement"
380,0.00238914902085532
381,0.00239113446306931
382,0.00242323194362575
383,0.00250542700550757
384,0.00256691906038148
385,0.00277431469606035
386,0.00295794446385141
387,0.00312574879539495
388,0.00333677600631271
389,0.00343085651716376
390,0.0034674260913852
391,0.00352563491800932
392,0.00357386728642878
393,0.00369014413925107
394,0.0039002904385112
395,0.00421176949416529
396,0.00465037186730072
397,0.00516893336024531
398,0.0056874948531899
399,0.00620605634613449
400,0.00645037322643317
401,0.00683296093102093
402,0.00706837666096374
403,0.00718280082517252
404,0.00725443288322313
405,0.00724572780992235
406,0.00744217434745392
407,0.00752641131195435
408,0.00764669019524935
409,0.00782379516926815
410,0.00817465310958966
411,0.00826813732994678
412,0.00845314178536727
413,0.00854959235991307
414,0.0085805150976209
415,0.00865452232759215
416,0.00861120512111709
417,0.00860580222463006
418,0.00875928895568612
419,0.00861988000087416
420,0.00884059431669394
421,0.00887171186360542
422,0.0089801053758527
423,0.00905782332446816
424,0.00908250081449767
425,0.00894495676534598
426,0.00884642310002459
427,0.00865865826197473
428,0.00844900028386966
429,0.00856293884241861
430,0.0086240571216211
431,0.00904829708727199
432,0.00940769205625316
433,0.00974154843178748
434,0.0101490607721583
435,0.0103417844310456
436,0.0105286079089159
437,0.0107211817152771
438,0.0109137555216383
439,0.0111063293279995
440,0.0112395471023239
441,0.0114749482745086
442,0.0117693778964499
443,0.0119576656722283
444,0.0122207479025782
445,0.0124838301329282
446,0.0127469123632782
447,0.0130113406937031
448,0.013072065216103
449,0.0135749112988085
450,0.0135186441061036
451,0.0134711926983262
452,0.0135000921149762
453,0.0135289915316262
454,0.0135578909482762
455,0.0136440501124118
456,0.0137081813069747
457,0.0139143784311243
458,0.0140498854803065
459,0.0143168440341
460,0.0143410010237752
461,0.0142322644384276
462,0.0146231343276529
463,0.0142228346275373
464,0.0141217857205699
465,0.0140456176531721
466,0.0139561486989306
467,0.0139619998196398
468,0.0138873012440523
469,0.0138495226416413
470,0.0141968641314583
471,0.014244802612241
472,0.0143551555767489
473,0.0145619737755036
474,0.0146009229046756
475,0.0148302588193558
476,0.0145186770271361
477,0.0145390484422099
478,0.0145594198572838
479,0.0145797912723577
480,0.0145229238797194
481,0.0141468388575189
482,0.013956214802621
483,0.0139752224121544
484,0.0137250332186557
485,0.013543240104396
486,0.0137992380993312
487,0.0139691820601115
488,0.0141375114345725
489,0.0145035598479734
490,0.0146261452495625
491,0.0147570584312116
492,0.0151162774399592
493,0.0149369250106005
494,0.0151684238655937
495,0.0149608716120952
496,0.0150084237665978
497,0.0147753046957394
498,0.0148490481385945
499,0.0145521281817861
500,0.0147288529248303
501,0.0146244743472958
502,0.0149506008213944
503,0.015075185534936
504,0.0149164822676918
505,0.0154036977225712
506,0.0153160845680686
507,0.0153564066494766
508,0.0154500827757193
509,0.0154216021776512
510,0.0151328324041704
511,0.0153172076836407
512,0.0151400620540062
513,0.0146961072383921
514,0.0146106177344902
515,0.0144245301785939
516,0.0143768171942169
517,0.0144130109535674
518,0.0143798287418905
519,0.0146631210993356
520,0.0149202867736507
521,0.0150317654426566
522,0.0151432441116626
523,0.0152547227806686
524,0.0151488418565275
525,0.0151969512798707
526,0.0151655974473118
527,0.0151075422480159
528,0.0152032202335318
529,0.0153309766265457
530,0.0153092512034037
531,0.0153208699791151
532,0.0152773276514761
533,0.015446068997918
534,0.0154965172362418
535,0.0152842849682884
536,0.0154367198736258
537,0.0153361498096588
538,0.0152280263920678
539,0.0151602988323029
540,0.0152598465233175
541,0.0151535830510029
542,0.0150846445989519
543,0.0151461773591217
544,0.015184149007832
545,0.0150415586556385
546,0.0151908759217755
547,0.0151543857700599
548,0.0151178956183443
549,0.0150814054666286
550,0.0150382938461852
551,0.0151635906181137
552,0.0152377008927326
553,0.0151040660976174
554,0.0150470607134551
555,0.0151858402775686
556,0.0149877777345998
557,0.0149681544407975
558,0.0148735504331636
559,0.0147804350358363
560,0.0149310320786957
561,0.014657010811275
562,0.014884475335533
563,0.0146418704487373
564,0.014699052414112
565,0.0145000283172138
566,0.0144311911720981
567,0.014275813496815
568,0.0143899998714845
569,0.0142511926024915
570,0.0142150993270771
571,0.0142467917116811
572,0.0142361337698866
573,0.0142025692835721
574,0.0142800571822962
575,0.0140988256289913
576,0.0141737790906855
577,0.0142487325523797
578,0.0143236860140739
579,0.0143986394757681
580,0.0144735929374623
581,0.0146474768467218
582,0.0145576451948211
583,0.0146554255408226
584,0.014416852416408
585,0.0143904655512119
586,0.0140683705092353
587,0.0139538647101142
588,0.0138744599555185
589,0.0137950552009228
590,0.0137156504463272
591,0.0137720725964101
592,0.0138400889116109
593,0.0138121800967171
594,0.0139780889038923
595,0.013920500327504
596,0.0139607384303487
597,0.0139504278846371
598,0.013890879210745
599,0.013859429477988
600,0.0139691408806718
601,0.0140084806088067
602,0.0140262168267928
603,0.0139286056664337
604,0.014026958417811
605,0.0139359993918874
606,0.013955084051729
607,0.0138505946295452
608,0.0136821769618479
609,0.0136931172420404
610,0.0135981104679163
611,0.0134804640550382
612,0.0133826455736977
613,0.0133193945231429
614,0.0132040497790868
615,0.0133485425162058
616,0.0132197202315762
617,0.0133575387675367
618,0.0132857657613066
619,0.01328683636285
620,0.0132383256523569
621,0.0132953625821744
622,0.0130024642640179
623,0.0129558005039012
624,0.0128339046844663
625,0.0127120088650313
626,0.0125901130455964
627,0.0125352500641546
628,0.0125050016239084
629,0.0124745808530268
630,0.0125813215758862
631,0.0124303661068783
632,0.0125149723449165
633,0.0125826892843163
634,0.0126211940267928
635,0.0126700060479072
636,0.0125242636443571
637,0.0126742472940015
638,0.0125661872489192
639,0.012652220660204
640,0.0125675319685079
641,0.0125648162823523
642,0.012503771964983
643,0.0124467606476586
644,0.0123897493303342
645,0.0123327380130098
646,0.0124110859229797
647,0.0123941135970478
648,0.0121881119413773
649,0.0123904193364793
650,0.0122110366178728
651,0.012204429893071
652,0.012064055574765
653,0.0118431761847907
654,0.0116192971516433
655,0.0117479619633313
656,0.0116649320965069
657,0.0117670458639976
658,0.0117963919300297
659,0.0120306764479297
660,0.0120944770475761
661,0.0120789643595446
662,0.0121042688637324
663,0.0119985652263717
664,0.0119149457514489
665,0.0119333628991374
666,0.0119297313044959
667,0.0119177835201188
668,0.0119391895887517
669,0.0117025532190282
670,0.011764750062125
671,0.0117001187272863
672,0.0116567831064503
673,0.0116652410052167
674,0.0116522178351675
675,0.0116160850748671
676,0.0115630301757079
677,0.0116044212898597
678,0.011465556884875
679,0.0114086155200895
680,0.0116298153541457
681,0.0113569822773188
682,0.0108882075274913
683,0.0105891519975142
684,0.0100741792884243
685,0.0096545547258017
686,0.00936143513293559
687,0.00924725500417638
688,0.00923879297728603
689,0.00935331902684285
690,0.0095553200798142
691,0.00984374395343332
692,0.00994138397442777
693,0.0100261019137169
694,0.0102095310193504
695,0.0101521670358067
696,0.0102366605278303
697,0.0102081049564429
698,0.0100607448621448
699,0.0100778082168513
700,0.0102064332505169
701,0.0100943628722247
702,0.010164483333322
703,0.0101467747635996
704,0.0102277589766426
705,0.0101516717145452
706,0.0102244259893867
707,0.0102706630580584
708,0.010179336652486
709,0.0102206790860633
710,0.0100593231096094
711,0.00998464005455964
712,0.00996018247967154
713,0.00956592346702901
714,0.00939418458493961
715,0.00900078712184127
716,0.00875987547876486
717,0.00853816693525172
718,0.00848344746281641
719,0.00851374822813756
720,0.0085519140556141
721,0.00837318128288875
722,0.00850751336536522
723,0.00848366659003626
724,0.00843287346832585
725,0.00846091627956337
726,0.00836212293621967
727,0.00847868006437607
728,0.00852742583096825
729,0.00866562294648887
730,0.00873845959427318
731,0.00884072396973292
732,0.00894823318467795
733,0.00904763340369096
734,0.00908658850404753
735,0.0090888891728971
736,0.00908202375607356
737,0.00907051633046837
738,0.00905900890486318
739,0.009047501479258
740,0.00909827695011798
741,0.0091121955064989
742,0.00908201690816569
743,0.00905183830983249
744,0.00902165971149928
745,0.00899679147817651
746,0.00892022114057048
747,0.00892769366015016
748,0.00876144826499704
749,0.00878745503621006
750,0.00871133356861675
751,0.0086566131695695
752,0.008730285665136
753,0.00851951667400751
754,0.00818333720459501
755,0.00744853551109387
756,0.00671373381759272
757,0.00597893212409157
758,0.00497646707923685
759,0.00428989585590548
760,0.00397973792289719
761,0.00392750140481906
762,0.00415406811537834
763,0.00464868620368344
764,0.00520953861589339
765,0.00573164120816298
766,0.00636020545950023
767,0.00688974618611795
768,0.00720654746939497
769,0.00741931652593231
770,0.00757047062093183
771,0.00763884717586493
772,0.00771171409659402
773,0.00776661591620241
774,0.00770383374787924
775,0.00766389628408826
776,0.00769949711085412
777,0.00758061119647488
778,0.0076510830158185
779,0.00753315425416375
780,0.00758056536926938
