"wavelength","measurement"
380,0.0138442739200458
381,0.0132643200025395
382,0.0129408035372369
383,0.0129072613397017
384,0.012961525680154
385,0.0136702835910089
386,0.0141962589987941
387,0.0148267068646215
388,0.0156140481260719
389,0.0160804754633171
390,0.0158532695067038
391,0.0158183106820687
392,0.0158511153953438
393,0.0160450848599284
394,0.0164981861461348
395,0.017469630120468
396,0.0194253917061846
397,0.0216768549233043
398,0.023928318140424
399,0.0261797813575437
400,0.0273059801312758
401,0.0289032986029124
402,0.0299932462316538
403,0.0304247472766381
404,0.0304894866862812
405,0.0304819796906296
406,0.0309662244141439
407,0.0312435922184639
408,0.0313204882394245
409,0.0320499948972928
410,0.0333323672938173
411,0.0337156518595787
412,0.0342832594162437
413,0.034849549646997
414,0.0348140575030571
415,0.034949864072028
416,0.0346363071718778
417,0.0343188597482399
418,0.0347652147329505
419,0.0338012939714911
420,0.0347315045118076
421,0.034431603410332
422,0.0347693779913748
423,0.034980835649262
424,0.0352141257070136
425,0.0344206636517475
426,0.0340011132249785
427,0.0329880613505323
428,0.0318810415518022
429,0.0318126521019005
430,0.0320211111900954
431,0.0331512393762796
432,0.0344927796511635
433,0.0358342143127006
434,0.0374061615740722
435,0.0380027545820886
436,0.0385560629297364
437,0.0391848523857894
438,0.0398136418418423
439,0.0404424312978953
440,0.0407074607039552
441,0.041496609158655
442,0.0422370739715432
443,0.0429955656596129
444,0.043650234146478
445,0.0443049026333431
446,0.0449595711202082
447,0.0458563161338919
448,0.0461620644731536
449,0.0477449423234446
450,0.0475569567344622
451,0.0472555437673919
452,0.0471520151941053
453,0.0470484866208186
454,0.0469449580475319
455,0.0469326290099347
456,0.0470395205562347
457,0.0477058511244173
458,0.0479404914296794
459,0.0487654300379165
460,0.0489509339928342
461,0.0484510395599351
462,0.0498641255817876
463,0.0484426695552793
464,0.0477838036942997
465,0.0473165329816271
466,0.0468499732766347
467,0.0466887880431123
468,0.0462131639892611
469,0.0459674123783204
470,0.0470478915575674
471,0.0470417536765209
472,0.0472910360494401
473,0.0478492798140134
474,0.0478761061198929
475,0.0485011135230551
476,0.0475444366579588
477,0.0475235591664358
478,0.0475026816749129
479,0.04748180418339
480,0.0473397491475217
481,0.0463095539172902
482,0.0455001039705694
483,0.0453124840282487
484,0.0442447162762015
485,0.0434032049183053
486,0.043966786780318
487,0.0444320345286549
488,0.0450763690884541
489,0.0463135502860247
490,0.046884706837394
491,0.0472169705001158
492,0.048419302389795
493,0.0479601500406095
494,0.0487670417477046
495,0.04807385461936
496,0.0483132577726603
497,0.0474755857735341
498,0.0477598345426761
499,0.0468080974245375
500,0.0472075997662259
501,0.0468453826349192
502,0.0478855316612576
503,0.0483215357113861
504,0.0479956185645366
505,0.0496431963166761
506,0.0494875507009911
507,0.0497264185135927
508,0.0501730314113783
509,0.0501870776400253
510,0.049571624215827
511,0.0502897696779617
512,0.049923447097067
513,0.0486873507267015
514,0.0484428445323433
515,0.0477464355053001
516,0.0475711250395377
517,0.0477585395703324
518,0.0476391451516195
519,0.0489419572294081
520,0.0500511733006151
521,0.0507440237833259
522,0.0514368742660367
523,0.0521297247487474
524,0.0518371956732243
525,0.05207840706388
526,0.0522602321624468
527,0.052065074034878
528,0.0525541314591232
529,0.0532092564580923
530,0.0534179286761792
531,0.0536946036339052
532,0.0535991622426378
533,0.0542396880904438
534,0.0545316426924108
535,0.0542077610466901
536,0.0549050801089361
537,0.0546520307093924
538,0.0543132213952076
539,0.054111406065778
540,0.0546310064344678
541,0.0543285644204739
542,0.0542084801949648
543,0.0545305737951667
544,0.0549480224454822
545,0.054557298041876
546,0.0551057552071789
547,0.0551132242058295
548,0.0551206932044801
549,0.0551281622031307
550,0.0548741939997466
551,0.0553596409397146
552,0.055823713902332
553,0.0555714210497413
554,0.0554054182712392
555,0.0560469385726181
556,0.0552510747359856
557,0.0551302857598689
558,0.0548187358921606
559,0.0544161450623076
560,0.0550806820345345
561,0.0541238530820549
562,0.0551130528227775
563,0.0542935861624027
564,0.054491638996981
565,0.0536617934861604
566,0.0534437014468614
567,0.0527190994997064
568,0.0530226258049138
569,0.0523768367959643
570,0.0523556673851892
571,0.0523024544639508
572,0.0524046481258831
573,0.0521669692888631
574,0.0525132764918564
575,0.0516727714974774
576,0.0519738915239317
577,0.0522750115503861
578,0.0525761315768405
579,0.0528772516032949
580,0.0531783716297492
581,0.0539996486034114
582,0.0538722286964882
583,0.0543543242314691
584,0.053662044997481
585,0.0537298279390745
586,0.0522926654706762
587,0.0519233337333496
588,0.0515421302384957
589,0.0511609267436419
590,0.0507797232487881
591,0.0510008897492155
592,0.0515334352398312
593,0.0514931051040568
594,0.0521908587768905
595,0.0521556549603724
596,0.0522855079126943
597,0.0523207332194153
598,0.0521793622511368
599,0.0520796129213139
600,0.0524199361479799
601,0.0528804795599871
602,0.0530187130000496
603,0.0527948135764487
604,0.053344656719041
605,0.0532634735099497
606,0.0532443023947819
607,0.05293488064346
608,0.0523795363884803
609,0.0524660616600797
610,0.0521329229336941
611,0.0518357219223537
612,0.0515159162068969
613,0.0513351606787104
614,0.0509495620035593
615,0.0516875360414401
616,0.0510823742351344
617,0.0516259132908868
618,0.0515236202087042
619,0.0517469537780651
620,0.0515563757559728
621,0.0519750381574082
622,0.0510281281960983
623,0.0510561735794092
624,0.050553103528991
625,0.0500500334785727
626,0.0495469634281545
627,0.0495957586848925
628,0.0494168027018364
629,0.0493884786680202
630,0.0499055740260749
631,0.0495280128658058
632,0.0501301587549248
633,0.0505554298681834
634,0.0508133963306116
635,0.0512716023137668
636,0.0508302602472684
637,0.0514805606073933
638,0.0512627744575583
639,0.0515736968618077
640,0.051462736620583
641,0.0513745695242305
642,0.0510778105608665
643,0.0509111889843338
644,0.0507445674078011
645,0.0505779458312684
646,0.0509603590880021
647,0.0509988049593614
648,0.0502155607359946
649,0.0510540577689997
650,0.0505289961726826
651,0.0510281319531082
652,0.0503858079903027
653,0.0494856953965521
654,0.0486996578197979
655,0.0491481240954165
656,0.0485212862869251
657,0.0490245551991403
658,0.0496416465716915
659,0.050907229601266
660,0.0513712446652619
661,0.0514492445087034
662,0.0515601010283296
663,0.0512526520453958
664,0.0509390944595293
665,0.0511520175848381
666,0.051280201088327
667,0.0514217789982842
668,0.0514225907028778
669,0.0505391616090057
670,0.0508353158210765
671,0.0506718031824568
672,0.0505664764153288
673,0.0508305694468118
674,0.0508920505300618
675,0.0509218740079828
676,0.0509594161903483
677,0.0514951143814446
678,0.0509851421849112
679,0.0510665438482259
680,0.0521423205694129
681,0.051475115567525
682,0.0501773541873145
683,0.0490077427060997
684,0.046877593224411
685,0.0451473715754768
686,0.0437573281119437
687,0.0426832952967768
688,0.0429725497426128
689,0.0440236612264354
690,0.0457781476600043
691,0.0478785134619932
692,0.0493304367984459
693,0.0506501173998193
694,0.0522174403106437
695,0.0527531043025787
696,0.0541060537671184
697,0.0549925047318523
698,0.0547942780002951
699,0.0554999600312521
700,0.0569411096527127
701,0.056974022446836
702,0.0584426757830138
703,0.0588925056181028
704,0.0602556896017606
705,0.0604622422742822
706,0.0618536605477439
707,0.0628559194918787
708,0.0631933530403152
709,0.064161656832834
710,0.0639591905748637
711,0.064409738755583
712,0.0649082687586178
713,0.063298582350212
714,0.0627262916067251
715,0.0605803286648545
716,0.05879626874202
717,0.0576048568311326
718,0.0574325945765629
719,0.0581227426014747
720,0.0590988095280125
721,0.0588034270408883
722,0.0605643154442289
723,0.0606208905062678
724,0.0608968104308035
725,0.0612565233553198
726,0.0613816591225959
727,0.062462221423915
728,0.0633430099533562
729,0.0647173201624226
730,0.065888992216135
731,0.067399239898878
732,0.069131559292294
733,0.0706913705175153
734,0.0717502708299809
735,0.0720720747111013
736,0.0728877879207033
737,0.0731910376257873
738,0.0734942873308712
739,0.0737975370359551
740,0.0748762710346625
741,0.0750963296097604
742,0.0755028114478764
743,0.0759092932859925
744,0.0763157751241086
745,0.0766697422130547
746,0.0763874612521797
747,0.0768431251454044
748,0.0757542195322283
749,0.0764388991100985
750,0.0762258816033747
751,0.0759516442949156
752,0.0769511490714765
753,0.0765791964830125
754,0.0752119050288524
755,0.0692831030997059
756,0.0633543011705593
757,0.0574254992414128
758,0.0481053730046591
759,0.0395437119729435
760,0.0334925086424733
761,0.0321950959581685
762,0.0341024241362118
763,0.0385687049092194
764,0.0445394845908865
765,0.0507793725557503
766,0.0576343249212538
767,0.0642971746786025
768,0.0680734252855333
769,0.0709062674730472
770,0.0731069436453101
771,0.0739716208075567
772,0.075099663498126
773,0.0760423615487812
774,0.0756955167367963
775,0.0759297333690213
776,0.0762556552629037
777,0.0753466309583682
778,0.0764965674883347
779,0.0757111475540922
780,0.0769833542227807
