"wavelength","measurement"
380,0.02266630689397
381,0.0220225642448965
382,0.0217749339507076
383,0.0217128364881502
384,0.0219696488593827
385,0.0231919539011374
386,0.0243624271470066
387,0.0254842073482172
388,0.0268133340493001
389,0.0276325827451078
390,0.0273559434722227
391,0.0274336486175028
392,0.0277356674780078
393,0.0280398308293545
394,0.0291915798385878
395,0.0314120633253848
396,0.0348607260418912
397,0.0388715896409851
398,0.0428824532400789
399,0.0468933168391727
400,0.0486570492859492
401,0.0515907801523892
402,0.0536579718294572
403,0.0541955185043074
404,0.0546204071786072
405,0.0546179720306946
406,0.055956950954618
407,0.0561812625221088
408,0.0568198508020244
409,0.0580869750257541
410,0.0606487382258718
411,0.0607962022551609
412,0.0622311231198991
413,0.0632759510412214
414,0.063145701475785
415,0.0636082192626005
416,0.0627515121305645
417,0.0623076144919475
418,0.0631147673896701
419,0.0622253584353627
420,0.0634478887848945
421,0.0634484734003056
422,0.0638213559208449
423,0.0642375058043679
424,0.0643957981998338
425,0.0631999177843778
426,0.0625881804947133
427,0.060800634485311
428,0.0590986241674648
429,0.0592152881360652
430,0.0596729700838237
431,0.0622132236432385
432,0.0646379126452445
433,0.0668800437416537
434,0.0697322094249416
435,0.071113024878646
436,0.0721173426174104
437,0.0733092644956524
438,0.0745011863738944
439,0.0756931082521363
440,0.0763657884295872
441,0.0778428278072122
442,0.0794814218011848
443,0.0805025925726729
444,0.0821030711175115
445,0.0837035496623502
446,0.0853040282071888
447,0.0867070736978225
448,0.0871227368149877
449,0.0903537070128878
450,0.0899557920577919
451,0.08953077497394
452,0.0894990713268895
453,0.0894673676798391
454,0.0894356640327886
455,0.0896570102935552
456,0.0902525152130534
457,0.0913030595804135
458,0.0920868263972245
459,0.0938738201495908
460,0.0942034921085195
461,0.0931662737813015
462,0.0956858709908963
463,0.0931200165908896
464,0.0921416454039089
465,0.0915905583554397
466,0.0906644065130701
467,0.0906352421072819
468,0.0898760539593769
469,0.089470211125752
470,0.0918029725856829
471,0.0919781445820357
472,0.0926173823762385
473,0.0937943184171484
474,0.0939330683397062
475,0.0953054326129894
476,0.0934112731830832
477,0.0934449735808024
478,0.0934786739785217
479,0.0935123743762409
480,0.0932646897465002
481,0.0909530204031988
482,0.0895103964211367
483,0.0890958300030219
484,0.08751416957715
485,0.0862104795889401
486,0.0873934325684893
487,0.0885489121602044
488,0.0898321340620351
489,0.0920989106345395
490,0.0929062756090418
491,0.0938151490139088
492,0.0958627909970282
493,0.0949195745174157
494,0.0964750418682519
495,0.0948228239202882
496,0.0954274942803204
497,0.0936191978754019
498,0.0943654893164474
499,0.092311105377934
500,0.0931670754855963
501,0.0925544507880719
502,0.0945108718698742
503,0.0951470301494889
504,0.0941940091004909
505,0.09722938449636
506,0.0967660802278434
507,0.0971529202673628
508,0.0977042073286388
509,0.0975645787193155
510,0.0958910835424288
511,0.0970095138083179
512,0.0960197171817006
513,0.0931342117322705
514,0.0927208434199766
515,0.0912812579267383
516,0.0907458610024746
517,0.0909760132631076
518,0.0907098890042349
519,0.0926113270516077
520,0.0942810298709969
521,0.09512314494213
522,0.0959652600132631
523,0.0968073750843962
524,0.0961933000460506
525,0.096239418735424
526,0.0964633015145439
527,0.0959942004648744
528,0.0965240597674612
529,0.0974262913913129
530,0.0972694941213766
531,0.0973853450418723
532,0.0971026928132439
533,0.0981804048547825
534,0.0984994450089862
535,0.097286555197594
536,0.0984173607809076
537,0.0977608638193941
538,0.0970961158303447
539,0.0966688072982883
540,0.0973021482896897
541,0.0967555782935021
542,0.0962458735060546
543,0.0966163572090282
544,0.0969660096519685
545,0.0963603070278539
546,0.0970294376281444
547,0.0969024627766774
548,0.0967754879252104
549,0.0966485130737434
550,0.0964020019550412
551,0.0971270539603947
552,0.0978907094490694
553,0.0970127042191651
554,0.0966601595515645
555,0.0976772713473889
556,0.0963350795923419
557,0.0962015494258902
558,0.0956119621719053
559,0.0950003737680699
560,0.0961417302749123
561,0.0944416993715644
562,0.0961106763102086
563,0.0945110119059828
564,0.0949428426528188
565,0.0936948090149488
566,0.0931020889901439
567,0.0922404235526919
568,0.0929088035440226
569,0.0920475267560403
570,0.0918685645048089
571,0.0920403469404714
572,0.0921365249859737
573,0.0918710905648621
574,0.0925293585518849
575,0.0913454145085557
576,0.0918395111811777
577,0.0923336078537997
578,0.0928277045264217
579,0.0933218011990437
580,0.0938158978716657
581,0.0952495679750521
582,0.0947595302991211
583,0.0956597491629815
584,0.0942487510133236
585,0.0941811873948219
586,0.0921592602052413
587,0.0916423915561079
588,0.0910622528714177
589,0.0904821141867276
590,0.0899019755020375
591,0.0902506009058115
592,0.0909854764340417
593,0.0908932675373926
594,0.091919033264823
595,0.0916843433016152
596,0.0920507909649942
597,0.0922887291932441
598,0.091848715176959
599,0.0917932484945741
600,0.0922562088693704
601,0.0928947679274669
602,0.0931391742797773
603,0.0926732574469861
604,0.0932872698446592
605,0.0930179281925639
606,0.0932183595546489
607,0.0925411952928676
608,0.0917876999690746
609,0.0916474629829835
610,0.0913449302561624
611,0.0908024511245645
612,0.0902510532741052
613,0.0900011347696334
614,0.0892414361319496
615,0.0907114621999274
616,0.0896223591175783
617,0.0905203655922781
618,0.0903939953780996
619,0.0907132157719936
620,0.0904229587410037
621,0.0909871163571531
622,0.0892031487375808
623,0.0891031588010588
624,0.0883679153386152
625,0.0876326718761716
626,0.086897428413728
627,0.0867221735191802
628,0.0866269619851574
629,0.0864376517751977
630,0.0873877889546857
631,0.0864398158347873
632,0.0873694685901837
633,0.0879612979666849
634,0.0884451816799242
635,0.0890359358191047
636,0.0883307076698694
637,0.0894299959222656
638,0.0891255715011076
639,0.089663950393621
640,0.0894262793086032
641,0.0892967542719789
642,0.0891118120840711
643,0.0888917513416561
644,0.088671690599241
645,0.0884516298568259
646,0.0892162101833538
647,0.0893655242065319
648,0.0879408102862392
649,0.0893534739460295
650,0.0884138490573794
651,0.0888439777629185
652,0.0877921668120758
653,0.0864372594673837
654,0.0850416721360385
655,0.0860483998526883
656,0.0851956400748392
657,0.0864015776769206
658,0.0869988941760048
659,0.0889617174497087
660,0.0895453992890716
661,0.0898469106564479
662,0.0902062072798891
663,0.0898858925373839
664,0.0893548729406854
665,0.0894911715210124
666,0.0898486315645992
667,0.0899088453779702
668,0.0902361238647501
669,0.0886514537216845
670,0.0891289147342876
671,0.0890855430814427
672,0.0888881465709817
673,0.0891154617413386
674,0.0894309809165861
675,0.0893387468949501
676,0.0892592135470689
677,0.0897835253680885
678,0.0888910266696878
679,0.0888316682858663
680,0.0907982717934538
681,0.0888150405188151
682,0.0860283965776404
683,0.0839048309195779
684,0.0799858119828802
685,0.0769990538602231
686,0.0744047021340344
687,0.0730812894119457
688,0.0730639355959591
689,0.0741180392794538
690,0.0761640818479532
691,0.0788083991105697
692,0.0800918053960714
693,0.0813122930672128
694,0.0828528661678954
695,0.0828764439806493
696,0.0838843101333506
697,0.0842391207567655
698,0.0832563657865503
699,0.0835264741423124
700,0.0847318670652608
701,0.0840823871232179
702,0.0851539220691843
703,0.0850603437091128
704,0.0862501045044611
705,0.0857223968878946
706,0.0867827504181692
707,0.0874592105135005
708,0.0869351600705011
709,0.0877381846187691
710,0.0867189222250001
711,0.0865940574070708
712,0.0865276889261255
713,0.0834753681473872
714,0.0821630710404324
715,0.0789116008348442
716,0.0765420625449799
717,0.0749418051996497
718,0.0742084631118709
719,0.0745931990486353
720,0.0750870576025374
721,0.0741694904620689
722,0.0757314808184557
723,0.0756381127399031
724,0.0753105947202198
725,0.0756257037946479
726,0.0753078759108729
727,0.0762618917301873
728,0.0769679879041556
729,0.0781643956594194
730,0.0792155916668371
731,0.080540898934716
732,0.0817986779642232
733,0.0835497503148829
734,0.0840489172937064
735,0.0842246384224042
736,0.0848524067760951
737,0.0849217015223028
738,0.0849909962685106
739,0.0850602910147184
740,0.0858112926560029
741,0.0858890811468296
742,0.0860882873391931
743,0.0862874935315566
744,0.0864866997239202
745,0.0864122058354811
746,0.0860633565128584
747,0.0864837738917355
748,0.0851006733511007
749,0.0855059592199544
750,0.085282993496158
751,0.0851696999568987
752,0.0861255495276617
753,0.0849548503687437
754,0.0822687409173132
755,0.0753452204993975
756,0.0684217000814818
757,0.0614981796635661
758,0.0512896888317555
759,0.0430356441968335
760,0.038728711243547
761,0.0379885266083161
762,0.0397968304854821
763,0.0447823002873168
764,0.0509953810297102
765,0.0570832675306224
766,0.0639347629449824
767,0.070523583499054
768,0.0743196393495775
769,0.0770623845022064
770,0.0792823612187689
771,0.0802419230704084
772,0.0812132307420713
773,0.082399533145064
774,0.0817672764815056
775,0.0819413283609977
776,0.0822104670638944
777,0.0812993834447435
778,0.082271107844455
779,0.0813902891273111
780,0.082575299975205
