"wavelength","measurement"
380,0.00934040040795923
381,0.00908175662237223
382,0.00913965048093383
383,0.00923027760823261
384,0.00941386038713545
385,0.010007048492406
386,0.0105527948936025
387,0.0110791688583776
388,0.0115718418631226
389,0.0118649358532182
390,0.0118163784291147
391,0.0118398315368602
392,0.0120196000617511
393,0.0121639529109158
394,0.0126725531217464
395,0.0136809030431047
396,0.0151298925662966
397,0.016749323493209
398,0.0183687544201213
399,0.0199881853470337
400,0.020521654706336
401,0.0215676823176528
402,0.0222357206772766
403,0.0224027741156242
404,0.0224036604901619
405,0.0223684136322749
406,0.0227627841482963
407,0.0228263158269225
408,0.0230280322914942
409,0.0235084217537385
410,0.0245479111525138
411,0.0245873321618164
412,0.0251244690217456
413,0.0254386923081505
414,0.0253703746497959
415,0.0255160807631884
416,0.0252633531724709
417,0.0251293316106688
418,0.0255273802902539
419,0.0251132567165107
420,0.0257688793277728
421,0.025808532119686
422,0.0260654843012192
423,0.0262021356612078
424,0.0263672650330337
425,0.0256981480214756
426,0.0254556709759995
427,0.0247804325912841
428,0.0242775961958382
429,0.0244819404209252
430,0.0247348434983318
431,0.0259487297146269
432,0.027091493521085
433,0.027989629912373
434,0.0291536388307795
435,0.0297356276846274
436,0.0301428262021885
437,0.0307217749694738
438,0.031300723736759
439,0.0318796725040443
440,0.0322539107021815
441,0.0328674025071902
442,0.0337331020774954
443,0.0342577516384492
444,0.0350747511678642
445,0.0358917506972791
446,0.0367087502266941
447,0.0374130261200368
448,0.0376625825133004
449,0.0390500726941377
450,0.0389458054147931
451,0.0388420908745023
452,0.0388817964219338
453,0.0389215019693653
454,0.0389612075167968
455,0.0391406840040518
456,0.0392883586056255
457,0.0398823834810415
458,0.0402727741789528
459,0.0409387376614596
460,0.0410439937115322
461,0.0406286287605582
462,0.0416643689905188
463,0.0405256845481421
464,0.0401810163792979
465,0.0399327680196307
466,0.0396412278734073
467,0.0396787263914834
468,0.0395443490464537
469,0.0394331610987984
470,0.0403728361297177
471,0.0404746911106935
472,0.0407915703324569
473,0.0413072560792402
474,0.0413921045567002
475,0.0420063594729513
476,0.0411922308729164
477,0.0412047609384529
478,0.0412172910039895
479,0.041229821069526
480,0.0411942960173787
481,0.0400927766504666
482,0.0394500697045975
483,0.0394429909209403
484,0.0388701190416202
485,0.0384166885421457
486,0.0391299490234111
487,0.0396877384346754
488,0.0402114413644842
489,0.0412442900109959
490,0.0414681701760576
491,0.0418083010448949
492,0.0428069949479334
493,0.0422822058331613
494,0.0429252993042694
495,0.0422772252133109
496,0.0425360007345253
497,0.0417836132297436
498,0.0421108771765568
499,0.0413118399965262
500,0.041736871722078
501,0.0415477654691413
502,0.0424364307112686
503,0.0427316910645442
504,0.042286808204576
505,0.0435765045851112
506,0.0433271820267413
507,0.0434795330102325
508,0.0436820437477732
509,0.0435593822587515
510,0.0428020425276557
511,0.0432864509667237
512,0.0428433873884447
513,0.0415722045055155
514,0.0414711337516477
515,0.0409010734948269
516,0.0408243423762116
517,0.0409670766481881
518,0.040895065764302
519,0.0417471190237601
520,0.0423390558715369
521,0.0426215295963944
522,0.042904003321252
523,0.0431864770461096
524,0.0429195608299557
525,0.042949442284632
526,0.0430023247652851
527,0.0428220861127994
528,0.0430458030717513
529,0.0434554867530177
530,0.0433999099287102
531,0.043416779288016
532,0.0433124997356304
533,0.0436938076864672
534,0.0439025131866947
535,0.0433948456560772
536,0.0438026992841342
537,0.0435662460102432
538,0.0432904613327406
539,0.0431175333796156
540,0.0434485528235551
541,0.0431949956348825
542,0.0429498267994165
543,0.0431933529433852
544,0.0433344057082969
545,0.0430789184501153
546,0.0433870338525913
547,0.043373498783595
548,0.0433599637145986
549,0.0433464286456022
550,0.0432455403129225
551,0.0434734038996642
552,0.0439437084376718
553,0.0435082125671177
554,0.0433580242066954
555,0.0438428022192184
556,0.0432156015400452
557,0.0432834090396212
558,0.0430321050254881
559,0.0428111759597081
560,0.0432676298082619
561,0.0424830823746426
562,0.0432356051304971
563,0.0425743612470232
564,0.0428447694637431
565,0.0422326973241883
566,0.042130693379428
567,0.0416895982838525
568,0.0421551457499965
569,0.0417346938588215
570,0.0417406587059507
571,0.0418536173782215
572,0.0419008491272258
573,0.0418563636303717
574,0.0420859228220003
575,0.0416034861350933
576,0.0418333512443045
577,0.0420632163535157
578,0.0422930814627269
579,0.0425229465719381
580,0.0427528116811493
581,0.0432782939633213
582,0.0430599322335578
583,0.0433907014512661
584,0.042761346227962
585,0.0426972684616974
586,0.041899217592725
587,0.0416892564780872
588,0.0415130083207866
589,0.0413367601634859
590,0.0411605120061853
591,0.0413811458962357
592,0.0416793693032856
593,0.0416604850251101
594,0.0420950853168387
595,0.0420164330071004
596,0.0421504212806839
597,0.0422423221013353
598,0.0420898744244657
599,0.0421025831446071
600,0.0423007280674126
601,0.0425426491924276
602,0.042690508316849
603,0.0423937715556452
604,0.0427997648188764
605,0.0425012835534339
606,0.0425517167054411
607,0.0423008485888355
608,0.0419177675989653
609,0.041928600287023
610,0.041699721769021
611,0.0414830633542242
612,0.0412110640712131
613,0.0411341951345167
614,0.0408437819432364
615,0.0415145104271262
616,0.0409823759001823
617,0.0413822446557334
618,0.04123133382511
619,0.0413678345361042
620,0.0411735548956895
621,0.0413952706913338
622,0.0405907277014466
623,0.0405547930977899
624,0.040231528051933
625,0.0399082630060761
626,0.0395849979602192
627,0.039445794141654
628,0.0394571941440183
629,0.0393419528685187
630,0.0397767646665948
631,0.03932509355643
632,0.0396716766324688
633,0.0398874116412261
634,0.0400820114254607
635,0.0402498154923155
636,0.0398860917033959
637,0.0403359333912196
638,0.040114925812031
639,0.0403685185837956
640,0.0402366471400886
641,0.0401799497143546
642,0.0400622283001055
643,0.0399168162792698
644,0.0397714042584341
645,0.0396259922375984
646,0.0399608931255256
647,0.0400192116226495
648,0.0394261687323143
649,0.0400290683758703
650,0.0395112175309171
651,0.0395432543035748
652,0.0391300587371307
653,0.0384750793724564
654,0.0378223917903281
655,0.0382661765931395
656,0.0381315077141105
657,0.0385197371205019
658,0.0387684631892324
659,0.0395027824555898
660,0.039700733608959
661,0.0397158649603355
662,0.0398125262065031
663,0.0396608048989755
664,0.0393653311278408
665,0.0394958532626994
666,0.0394990306404513
667,0.0396189847565223
668,0.039729520916386
669,0.0389394441871452
670,0.0392282610628148
671,0.0391388286831612
672,0.0389717188950806
673,0.0390342465578825
674,0.0391740733750419
675,0.0390906671125988
676,0.0389983946539409
677,0.0392314262593495
678,0.0388108811270049
679,0.0387249248850937
680,0.0395143049736632
681,0.0386174360188244
682,0.0371329240540825
683,0.0362080949624094
684,0.0344602577506668
685,0.0331687169015706
686,0.0322030097405419
687,0.0319133694490369
688,0.0319167338863734
689,0.032432566104273
690,0.0332107314285854
691,0.0342765788132446
692,0.0347079865857426
693,0.0350982669295621
694,0.035623119840766
695,0.0355199868543999
696,0.0359130163536677
697,0.0359237333337845
698,0.0354375362693029
699,0.0354356821486047
700,0.0359569520045525
701,0.0356399924295107
702,0.0360248063820299
703,0.035916627859746
704,0.0363213473797495
705,0.0360312934349631
706,0.0363792884531981
707,0.0366286627911949
708,0.0363134169206408
709,0.0365761575323782
710,0.0360182068597512
711,0.0358014093801153
712,0.0356585020894273
713,0.0342757429820047
714,0.033705174816862
715,0.0323316638275539
716,0.0313864825648955
717,0.0308153704460336
718,0.0305256483611406
719,0.0307342021203246
720,0.0309387964242315
721,0.0303290807547156
722,0.030919203094387
723,0.0307941770672657
724,0.0306989307028353
725,0.0307242176725521
726,0.0305218689336953
727,0.030905072967441
728,0.0310940215096899
729,0.0316823207990885
730,0.0318956687346328
731,0.0323717945833644
732,0.0328173438304986
733,0.033331225106447
734,0.03354666455226
735,0.0334894721596245
736,0.0337059302106179
737,0.033652338997304
738,0.0335987477839901
739,0.0335451565706762
740,0.0338247825975889
741,0.0338018971038951
742,0.0338168130129511
743,0.0338317289220071
744,0.0338466448310632
745,0.0337770195912445
746,0.0335990795906088
747,0.033641374707207
748,0.0331963685455476
749,0.0333247038554731
750,0.0331272971325497
751,0.0330081533723981
752,0.0333193000156209
753,0.0327318412231872
754,0.0313315239606308
755,0.0284776524480305
756,0.0256237809354302
757,0.0227699094228299
758,0.0189006740096037
759,0.0161036657852425
760,0.0150053099111192
761,0.0149934064454059
762,0.0160325759290862
763,0.0181243726068464
764,0.0204916595946677
765,0.02281994380237
766,0.0252528764763344
767,0.0275017138861274
768,0.028789686483386
769,0.0297012245446878
770,0.0303979337450434
771,0.0306607370675737
772,0.0309710534548717
773,0.0312968092971123
774,0.0311416387326471
775,0.0312185083727861
776,0.0312114312338818
777,0.0308470882353734
778,0.0312309502090035
779,0.0308179278040532
780,0.0312750487477585
