"wavelength","measurement"
380,0.0110861649734396
381,0.0106130273566666
382,0.0105682069458571
383,0.010356827593461
384,0.0104410596507827
385,0.0110610193256036
386,0.0115754355742465
387,0.0120613274600469
388,0.012582451136981
389,0.0128556762804925
390,0.0127357111666057
391,0.0127466866487625
392,0.0128950696627692
393,0.0129382215951835
394,0.0133988986512602
395,0.0144585528152376
396,0.0162095233989554
397,0.0180625951226116
398,0.0199156668462677
399,0.0217687385699239
400,0.0226422619059587
401,0.0240588744086005
402,0.0249668212431069
403,0.025334708369145
404,0.0254873549154858
405,0.0255375172947285
406,0.0261036391754401
407,0.0262937341793201
408,0.0266107356052661
409,0.0270831354275066
410,0.0283841418411716
411,0.0283502539232614
412,0.0291392791971063
413,0.0295744826031336
414,0.0294010096714525
415,0.0295644305362393
416,0.0292544428542853
417,0.0288367461378874
418,0.0291687158580142
419,0.0286671091551078
420,0.0292743426504218
421,0.0292257353699478
422,0.0293827290937856
423,0.0295870996661208
424,0.0295581840459217
425,0.0288313451029049
426,0.0285244670771772
427,0.0275775087806772
428,0.0268775609116513
429,0.0268737588327449
430,0.0270100849152761
431,0.0280247012951593
432,0.029265756245862
433,0.0302576953032404
434,0.0315098268846935
435,0.0321189704231419
436,0.032411817238838
437,0.0329185213246007
438,0.0334252254103634
439,0.0339319294961261
440,0.0341643291393471
441,0.0348831639908829
442,0.0355160828593407
443,0.0359029470758263
444,0.036530730047695
445,0.0371585130195637
446,0.0377862959914324
447,0.0384213776189078
448,0.0385823266783212
449,0.0399227482966571
450,0.0397371755234878
451,0.0393601844789661
452,0.0392699120140964
453,0.0391796395492267
454,0.039089367084357
455,0.0390880421720578
456,0.0392426179230678
457,0.0397208962923405
458,0.0399732769056941
459,0.0406918683845902
460,0.0406609796059284
461,0.040266225778535
462,0.0412637816574634
463,0.0401449127370205
464,0.0395932963372441
465,0.0392152298091601
466,0.0387619346422004
467,0.0386816541233214
468,0.0384606257669583
469,0.0382153303990545
470,0.0390077060005733
471,0.0390508475660421
472,0.0392944094513135
473,0.0397415561839664
474,0.0397584761489135
475,0.0402940854230693
476,0.0393849594754129
477,0.0393468856840474
478,0.0393088118926818
479,0.0392707381013163
480,0.0392221969674124
481,0.0381935660322616
482,0.0374720850581375
483,0.0373588574616739
484,0.0365700857758462
485,0.0359571578946669
486,0.036483258550559
487,0.0369174692006035
488,0.0374442343865435
489,0.0384554185535631
490,0.038783592868164
491,0.0390984013571026
492,0.0399842227556163
493,0.0395256859947715
494,0.0401712915392219
495,0.0395527215110056
496,0.039760596521564
497,0.0390113392521246
498,0.0392515938576443
499,0.0383605695104522
500,0.0387394233658772
501,0.0385282851631019
502,0.0392429901502853
503,0.0395467497902811
504,0.0392143215356939
505,0.0404704572289111
506,0.0402598742048909
507,0.0404550970875102
508,0.0407463472523759
509,0.0406574207091424
510,0.039983504778735
511,0.040537237629771
512,0.0400096023223515
513,0.0388976460523125
514,0.0386492465340409
515,0.0381061594710501
516,0.0378837712821947
517,0.0379805926589984
518,0.0378764578293956
519,0.0386971174354292
520,0.039434798043562
521,0.0398241055417549
522,0.0402134130399477
523,0.0406027205381406
524,0.0403262573728182
525,0.0403924593422208
526,0.0403563319958389
527,0.0402454874631548
528,0.0404810498910938
529,0.0409171445878393
530,0.0408981173897615
531,0.0410213846606812
532,0.0408234423662378
533,0.0413452032890571
534,0.0414366981235636
535,0.0409939474115695
536,0.0414732022502
537,0.0412145161329635
538,0.0409786151140987
539,0.0407836893103999
540,0.0410938665431372
541,0.04074378584295
542,0.0406381502089055
543,0.0408369647731459
544,0.0409978211419453
545,0.0407744852743489
546,0.0411276705393025
547,0.0410651888164202
548,0.0410027070935378
549,0.0409402253706555
550,0.0408226872148608
551,0.0412494818982345
552,0.0415467325780895
553,0.0411981158076868
554,0.0410433498513414
555,0.0415048969813809
556,0.0409896599543019
557,0.0409252374688271
558,0.0406648106805573
559,0.0404487924898281
560,0.0409930306577743
561,0.0402075578500511
562,0.0409573056398402
563,0.0403163337307105
564,0.0405367303720282
565,0.0399296854760584
566,0.0397484227648445
567,0.0393425147025888
568,0.0396327914673468
569,0.0392346881802852
570,0.0391989203689229
571,0.0392587161955657
572,0.0393228008521555
573,0.0392056515343958
574,0.0394722850551126
575,0.0390236220949473
576,0.0392725507846357
577,0.0395214794743241
578,0.0397704081640125
579,0.0400193368537009
580,0.0402682655433893
581,0.0408994354235971
582,0.0408231442292005
583,0.0411323675944504
584,0.040570020628108
585,0.0405856400237369
586,0.0396796902034414
587,0.0393950105429234
588,0.0391902350563083
589,0.0389854595696931
590,0.038780684083078
591,0.0390257449352933
592,0.0393836957960728
593,0.0394107602978737
594,0.0398754451330844
595,0.03984725898572
596,0.0400034798165805
597,0.0401141850033165
598,0.0399809960334779
599,0.0399841106671787
600,0.0402582232939196
601,0.0405144162974493
602,0.0407693426392238
603,0.0404956726417948
604,0.0409254195465648
605,0.0407269774232277
606,0.0408194771058714
607,0.0407085935891338
608,0.0402725917089386
609,0.0403455410392491
610,0.0401540979101221
611,0.0399649474061401
612,0.0397133948785992
613,0.0395851127092266
614,0.0392959227934742
615,0.0399318890276168
616,0.0394846644309432
617,0.0399540060172282
618,0.0398807567286509
619,0.0400676893088746
620,0.0399399339986982
621,0.040253102208484
622,0.0394205451873533
623,0.03943222899584
624,0.0391300356795529
625,0.0388278423632659
626,0.0385256490469788
627,0.0384507915151286
628,0.0383952235097865
629,0.0384066243475997
630,0.0388914956574305
631,0.0385077014409763
632,0.0389464014227746
633,0.0392485210199334
634,0.0395110079437896
635,0.0397854950345527
636,0.0395065371687319
637,0.0398978014499249
638,0.0397965127514288
639,0.040038857709097
640,0.0399329473620368
641,0.0399034298005531
642,0.0397901317116551
643,0.0396968706072828
644,0.0396036095029104
645,0.0395103483985381
646,0.039825366583842
647,0.0398878784549734
648,0.0392542452879423
649,0.0399817268092
650,0.0395397388412794
651,0.0398317645657107
652,0.0393260680799195
653,0.0387185358971233
654,0.0381398274583279
655,0.0385446237236319
656,0.038193200406264
657,0.0386609077624844
658,0.0390952186709394
659,0.0400101108785136
660,0.0402449605294212
661,0.0403249789383157
662,0.0404592514686461
663,0.0402630170743917
664,0.0399956648987671
665,0.0401271892144762
666,0.04028766725363
667,0.040402122472068
668,0.0405199245501799
669,0.0397266004099479
670,0.0400403928523672
671,0.0399755343820305
672,0.0398311834973607
673,0.0399911385403955
674,0.0402196981707983
675,0.0401849477622127
676,0.0401977088887006
677,0.0405505372072514
678,0.040187309517539
679,0.0401166710010951
680,0.0411176719943705
681,0.040392311675365
682,0.0391435549825411
683,0.0382455856771443
684,0.0365343437252093
685,0.0352907942016475
686,0.0342275757206916
687,0.0336612188294738
688,0.0338412286401502
689,0.0346371013357839
690,0.0357423602953509
691,0.0372731122681466
692,0.0381299844053588
693,0.0389725390269088
694,0.0399269737387953
695,0.040191707815612
696,0.0410555830432722
697,0.0414508861130914
698,0.0411077641224061
699,0.0415423821127491
700,0.0424353808983221
701,0.0423895650086878
702,0.043123341039848
703,0.0433480207245863
704,0.0441985672692666
705,0.0442263501769027
706,0.0449390261281894
707,0.0454307772801588
708,0.0455270425856135
709,0.0461288873461595
710,0.0458225599721446
711,0.0458299522895825
712,0.0460941224669723
713,0.0446308746685918
714,0.0441092625453125
715,0.0425764545315168
716,0.0413430664843142
717,0.0406054576305722
718,0.0404234660310507
719,0.0408460803044826
720,0.0412608884764418
721,0.0409152624012274
722,0.0419860836599566
723,0.0420226285123487
724,0.042024705052344
725,0.0422616902051686
726,0.0422412274829554
727,0.0429792736465445
728,0.0433755886174779
729,0.0443054584440767
730,0.0449691546094218
731,0.0459161277120809
732,0.0468367024534675
733,0.0478560041944931
734,0.0483612337934556
735,0.0484620774928204
736,0.0489973571595106
737,0.0491572647462294
738,0.0493171723329483
739,0.0494770799196672
740,0.0500341738911198
741,0.0500728434619133
742,0.0503174790313802
743,0.050562114600847
744,0.0508067501703139
745,0.0508804313852293
746,0.05075939743498
747,0.0509640705010414
748,0.0503273666380548
749,0.0507709908804407
750,0.0506887451394764
751,0.0505074108275931
752,0.0511957247360429
753,0.0506571533657849
754,0.0493273354397266
755,0.0452475239063182
756,0.0411677123729099
757,0.0370879008395015
758,0.0309600465989609
759,0.0257500073920854
760,0.0228393487561526
761,0.0223876554131411
762,0.0235872600000378
763,0.0265999050164586
764,0.0304774247902155
765,0.0343801842500599
766,0.0387129241288456
767,0.0428436287316994
768,0.0452326627100369
769,0.0469824048039134
770,0.0483414899010189
771,0.04903288868275
772,0.0496677816275106
773,0.0503991640731554
774,0.050019070153692
775,0.0502959610755241
776,0.0504301271891515
777,0.0499721823487496
778,0.0505847208466584
779,0.05006677789613
780,0.0507677947877441
