"wavelength","measurement"
380,0.108606469685856
381,0.106224372745136
382,0.103100731111639
383,0.103233876766605
384,0.104610858927654
385,0.109329847008731
386,0.114540845042645
387,0.120453413828168
388,0.124855092667126
389,0.127423096738462
390,0.126821095723631
391,0.124936246137251
392,0.125814389537887
393,0.126363921321779
394,0.128969665168819
395,0.138541621852091
396,0.152783641359827
397,0.168295449779599
398,0.183807258199371
399,0.199319066619144
400,0.205798940712812
401,0.215494567252445
402,0.221573243479315
403,0.222517455472388
404,0.222850767454353
405,0.2216741490621
406,0.224580015157663
407,0.225437642830344
408,0.226160655231374
409,0.230158453534143
410,0.238828181273779
411,0.240083957605928
412,0.244368077526325
413,0.247445685933526
414,0.247143415037209
415,0.248362447533621
416,0.245654956785385
417,0.242902511727657
418,0.248214684114504
419,0.243853087867111
420,0.248841469626448
421,0.248712370527657
422,0.251069357558583
423,0.251553539603717
424,0.252368981460798
425,0.247612734334372
426,0.24522263324806
427,0.237797239400343
428,0.232651127182102
429,0.232854031317243
430,0.234619006326869
431,0.245459912627979
432,0.254427644042105
433,0.262729505768649
434,0.274195573621118
435,0.280717942745989
436,0.284428853894059
437,0.289213004259228
438,0.293997154624396
439,0.298781304989565
440,0.301324724912349
441,0.307566233727528
442,0.314353949087942
443,0.317916455667845
444,0.324216624719298
445,0.330516793770752
446,0.336816962822206
447,0.34316624382597
448,0.344280911726202
449,0.356250973748062
450,0.355267178998307
451,0.35350060061383
452,0.353329426379485
453,0.35315825214514
454,0.352987077910796
455,0.354263126027607
456,0.355801010665539
457,0.361120128433759
458,0.36399505157764
459,0.370995397456098
460,0.372350691189894
461,0.369345674029262
462,0.378065372006894
463,0.368839301458864
464,0.364892431228204
465,0.362125944880217
466,0.358798276930293
467,0.359571976908867
468,0.357178825747395
469,0.354836694489217
470,0.364020995091434
471,0.364460524716898
472,0.367985210561416
473,0.371950858313844
474,0.373387409360425
475,0.378719393479338
476,0.371271437488416
477,0.371358946602657
478,0.371446455716898
479,0.37153396483114
480,0.371115965252162
481,0.361472036735408
482,0.355824878058932
483,0.355684188012668
484,0.348475781625235
485,0.343176896127373
486,0.349015691829583
487,0.351806219585562
488,0.358428204590075
489,0.367237578343243
490,0.371119408343415
491,0.373976986338065
492,0.383327399615959
493,0.378792484072174
494,0.38516736122177
495,0.379071033472796
496,0.380482479585311
497,0.37438746425121
498,0.37591567681037
499,0.369064464134051
500,0.371679627840976
501,0.369849857855042
502,0.377322679828618
503,0.380433084730801
504,0.376123516617454
505,0.388807924261705
506,0.386440094820056
507,0.388385540539204
508,0.390865007943699
509,0.389857176758361
510,0.383178416251329
511,0.38767026913057
512,0.383618599212448
513,0.3719657138916
514,0.369420522318827
515,0.363456904605735
516,0.361784941266267
517,0.362333005059962
518,0.361301857760685
519,0.369229982752933
520,0.375764811274525
521,0.379055040485687
522,0.382345269696848
523,0.38563549890801
524,0.382290611741365
525,0.383539180717022
526,0.382685044151548
527,0.38072272257351
528,0.383190371621317
529,0.387366420477539
530,0.386466781015848
531,0.387757875066922
532,0.385648032281421
533,0.39010331034607
534,0.390684261299496
535,0.386150483766318
536,0.390540270668731
537,0.387812407830273
538,0.38536953208617
539,0.382991699997504
540,0.385520362162142
541,0.383356652016674
542,0.381116143716423
543,0.383189326681178
544,0.385088171188517
545,0.382365594054038
546,0.384337078898161
547,0.384046511336582
548,0.383755943775002
549,0.383465376213422
550,0.382510359645135
551,0.384904268337606
552,0.388579260740276
553,0.384417793066772
554,0.383799995686807
555,0.388413632294636
556,0.38235624154028
557,0.38249472751746
558,0.380811214187562
559,0.377489652176495
560,0.382088702702678
561,0.374995611002261
562,0.381701785577213
563,0.376971211213465
564,0.378546925921001
565,0.373129794617193
566,0.371038747562327
567,0.367283521896095
568,0.371501060783888
569,0.366820995602173
570,0.367059737286516
571,0.367634258546284
572,0.368172715569135
573,0.367457712892973
574,0.369111290467907
575,0.365420009119983
576,0.367637882660788
577,0.369855756201592
578,0.372073629742397
579,0.374291503283201
580,0.376509376824006
581,0.382634832639607
582,0.38161667711424
583,0.384807180848199
584,0.378621423891989
585,0.378441882478088
586,0.370172380723233
587,0.367237801215699
588,0.365560455955682
589,0.363883110695664
590,0.362205765435646
591,0.363739233339533
592,0.366128665889171
593,0.366146610131765
594,0.370687955852918
595,0.37027389125728
596,0.371590836796302
597,0.372494651400654
598,0.371304766177304
599,0.371132490828615
600,0.37334705672458
601,0.375626771432285
602,0.378241885910504
603,0.375347203545069
604,0.378878286141268
605,0.377475298492178
606,0.378929044380808
607,0.376449721485014
608,0.373582573817195
609,0.373194287646179
610,0.371476933385505
611,0.369609884396139
612,0.367191403606234
613,0.366526382471758
614,0.363802817419743
615,0.37046539295718
616,0.366235045153596
617,0.369971910542658
618,0.369401524168203
619,0.370233507082769
620,0.370101442927671
621,0.372127703129775
622,0.365270127893282
623,0.365380753322569
624,0.36227075306045
625,0.359160752798331
626,0.356050752536212
627,0.355636609312597
628,0.354529288301422
629,0.355231177500066
630,0.35866602730237
631,0.355408234892352
632,0.358841018193219
633,0.362114978038814
634,0.364288448015219
635,0.36676404441219
636,0.364021774709682
637,0.368507551480859
638,0.36731703982046
639,0.369523545497654
640,0.369008115213637
641,0.368920835105967
642,0.368055642303184
643,0.367317888485171
644,0.366580134667158
645,0.365842380849145
646,0.369114268136168
647,0.369960351685479
648,0.364137058881138
649,0.370972669207314
650,0.366500083003645
651,0.368551329870345
652,0.364667057939559
653,0.358432877015336
654,0.352716536506604
655,0.35751207193207
656,0.354567230058178
657,0.359735050440441
658,0.36231914200595
659,0.370240316254969
660,0.373298850140907
661,0.374347532635649
662,0.375711665396221
663,0.37455634464404
664,0.372893936092903
665,0.373785317462326
666,0.374691610612836
667,0.375880380396313
668,0.37787535936939
669,0.370881902629465
670,0.373647582910741
671,0.373056654245177
672,0.371703601690216
673,0.373488099190215
674,0.37440938508057
675,0.374549381475284
676,0.37430921132626
677,0.377761195325399
678,0.372807237329598
679,0.372397003445358
680,0.381469423227181
681,0.373837761333242
682,0.359885570132123
683,0.351968737229517
684,0.334873832503453
685,0.322509505958719
686,0.312083977637662
687,0.30712262514954
688,0.30795267352349
689,0.311334017016516
690,0.320792152985038
691,0.331810755914801
692,0.336876099817654
693,0.34318795319198
694,0.348204875667068
695,0.348579801180872
696,0.353847961805567
697,0.354687681622913
698,0.349996732270753
699,0.350291347094251
700,0.355895307046555
701,0.353244182919445
702,0.357609348321646
703,0.35697144654413
704,0.361733254982337
705,0.358949159206405
706,0.363008683355746
707,0.366038777100345
708,0.365536878015186
709,0.367220771921022
710,0.362980793549504
711,0.361697181434091
712,0.360939075027478
713,0.347429951053034
714,0.341659274361242
715,0.327817177624878
716,0.317464698618142
717,0.310307023973213
718,0.307877085354481
719,0.309701091588272
720,0.311893292865628
721,0.306172796666749
722,0.313279580159982
723,0.311316071345872
724,0.310651887588447
725,0.312050848243223
726,0.309841297390826
727,0.314456517549898
728,0.316678993393974
729,0.322516117415577
730,0.325716855158012
731,0.330883955518712
732,0.337450633506293
733,0.343065875432914
734,0.344989883248396
735,0.346250353615632
736,0.348428203823024
737,0.348389536127541
738,0.348350868432058
739,0.348312200736575
740,0.352867882270965
741,0.352635562556432
742,0.353158051719089
743,0.353680540881746
744,0.354203030044403
745,0.354594892683732
746,0.353315268881247
747,0.353169648091878
748,0.349175544843864
749,0.351816550298428
750,0.349480459516813
751,0.34915417123252
752,0.353820575727815
753,0.348995776615597
754,0.337014383885752
755,0.308402216896315
756,0.279790049906877
757,0.25117788291744
758,0.209910208952209
759,0.17585362697755
760,0.159543762546581
761,0.157515316045946
762,0.16455251009973
763,0.187223920226079
764,0.210942758519855
765,0.237658150455363
766,0.263920405608515
767,0.29120432090688
768,0.307146725189002
769,0.317947693784048
770,0.328315772458648
771,0.331749322387793
772,0.336931991134143
773,0.340372541433813
774,0.338606920661566
775,0.339899592152121
776,0.33976085003831
777,0.336321562510276
778,0.341299322311536
779,0.337222868656558
780,0.342478776026971
