"wavelength","measurement"
380,0.013477216646513
381,0.0130337028076953
382,0.0129166606049273
383,0.012638467044187
384,0.0128309041350214
385,0.0133737404112489
386,0.0139260119588765
387,0.0144595714021958
388,0.0150782435289537
389,0.0154608863477301
390,0.0152213978323538
391,0.0151850871588408
392,0.0152255672162713
393,0.0152786225249898
394,0.0156532775838877
395,0.0167844261426425
396,0.0185669217006599
397,0.0204998903215451
398,0.0224328589424303
399,0.0243658275633155
400,0.0253269082861048
401,0.0265605410264353
402,0.0273848597194299
403,0.0274929143717258
404,0.0276041464128026
405,0.0273421341454193
406,0.0278044259055674
407,0.0278873861598171
408,0.028015061088744
409,0.0284706289039147
410,0.0295434708603249
411,0.0295215947471947
412,0.0301820364388791
413,0.0305461408626763
414,0.0302860415310791
415,0.0303876405788682
416,0.0299293233790477
417,0.0296355275839503
418,0.0299579197276825
419,0.0293238303280494
420,0.0298761431434195
421,0.0297911881728836
422,0.0298747204411997
423,0.03004852726525
424,0.0300217108644964
425,0.0292673608724149
426,0.0288816235155128
427,0.0279890293117878
428,0.0271957965378075
429,0.0271599505107424
430,0.027170102011388
431,0.0282898433298225
432,0.0293434905768043
433,0.0303301292587671
434,0.0314252481128074
435,0.0320902246468961
436,0.0323268945189051
437,0.0327753313934087
438,0.0332237682679123
439,0.0336722051424159
440,0.0339516076637604
441,0.0344022392377068
442,0.0350976102228173
443,0.0354757085205244
444,0.0360326552634848
445,0.0365896020064451
446,0.0371465487494054
447,0.0377159171952122
448,0.0378721297040008
449,0.0391500198715796
450,0.0388317746194624
451,0.0385807855442617
452,0.0384600576994971
453,0.0383393298547326
454,0.0382186020099681
455,0.038277058298497
456,0.0383665685649991
457,0.0387672604108581
458,0.0389984371693371
459,0.0395119492507524
460,0.0395991205394592
461,0.0390521506948622
462,0.0400378413138975
463,0.0388799321325716
464,0.0384335110041647
465,0.0380651442040598
466,0.0375732251291985
467,0.0374666740141027
468,0.0372212321033044
469,0.0369035378528567
470,0.0377152170724576
471,0.0376833543327398
472,0.0378432865549248
473,0.038260967143076
474,0.0382212756190405
475,0.0386586421537235
476,0.0378946601456932
477,0.0378448227268455
478,0.0377949853079978
479,0.0377451478891501
480,0.0376597585937758
481,0.0366269483493471
482,0.0359302603615577
483,0.0359122002105917
484,0.0351209407977537
485,0.0344461752761018
486,0.034942921063899
487,0.0352812147806717
488,0.035673179104904
489,0.0366455570237001
490,0.0369266054602201
491,0.0371941711628843
492,0.0379558084453018
493,0.0375146793990167
494,0.0381085902956649
495,0.0374864568458376
496,0.0376451257548993
497,0.0369168300115562
498,0.0371067543760021
499,0.0363108853699418
500,0.0366400376289838
501,0.0364008293357512
502,0.0370665413198819
503,0.0373280973247093
504,0.0369291802318041
505,0.038112453674849
506,0.03798692120182
507,0.0381233699378372
508,0.0383755249261562
509,0.0383324401867759
510,0.037739624941571
511,0.0382438619601114
512,0.0378906637846037
513,0.0367674371487628
514,0.0366412142202024
515,0.0360885875060664
516,0.0359952789801544
517,0.0360865001899263
518,0.0360420081032184
519,0.0369334099910659
520,0.0376224856215343
521,0.038044927566157
522,0.0384673695107797
523,0.0388898114554024
524,0.038697383758406
525,0.0388259139091625
526,0.038971052453418
527,0.0388276882098404
528,0.0391136734183278
529,0.0396002951589951
530,0.0395772786839093
531,0.0397100753751727
532,0.0396639473793739
533,0.0401143414930813
534,0.0403003109699904
535,0.0398561524957716
536,0.0402502457155947
537,0.039987779515962
538,0.039758720302376
539,0.0396089807716073
540,0.0398540893623414
541,0.0395893124645069
542,0.0393592855290245
543,0.0396330064630247
544,0.0398507146178616
545,0.0395583062554029
546,0.0399238996899157
547,0.0398723936914062
548,0.0398208876928966
549,0.039769381694387
550,0.0396786983473033
551,0.0399254306868143
552,0.0403056151273968
553,0.0399296668792858
554,0.0397536730982611
555,0.0401838155222945
556,0.03957448912212
557,0.0395267293376467
558,0.039254831985606
559,0.0389322240457282
560,0.039392901442342
561,0.0386328189464601
562,0.0392110147830375
563,0.0385275118367047
564,0.0386634290509679
565,0.0380436660463082
566,0.0377698270540323
567,0.0372881840346534
568,0.0375710556322899
569,0.0370517431906267
570,0.0369169061729006
571,0.0368828572004413
572,0.0368181772724098
573,0.0366697706671689
574,0.0368450091442949
575,0.0362945351705286
576,0.0364570109567
577,0.0366194867428715
578,0.0367819625290429
579,0.0369444383152143
580,0.0371069141013857
581,0.0376041860937177
582,0.0374435443286919
583,0.0377144909267784
584,0.0370904181626416
585,0.036969471609529
586,0.0361131646366742
587,0.0357022314040414
588,0.0354169910324312
589,0.0351317506608211
590,0.0348465102892109
591,0.0350209615618313
592,0.0352912324878867
593,0.0352286262921525
594,0.0356778015531073
595,0.035570210117862
596,0.0357452046932414
597,0.0358513122006208
598,0.0357650615111665
599,0.0357677782384588
600,0.0359745213169269
601,0.036171711165185
602,0.036274392673406
603,0.036090079043659
604,0.0363774827539032
605,0.0361333810781368
606,0.0361649780710657
607,0.0359743599131478
608,0.0355521060983086
609,0.035491762666802
610,0.0352572006432498
611,0.0350202296938312
612,0.0347492799125325
613,0.0345975420795099
614,0.0342826147055909
615,0.0347586208079839
616,0.0343334191900063
617,0.0346698013243509
618,0.0345861440299641
619,0.0346663868817082
620,0.0344587458006468
621,0.0346824383877606
622,0.0339618763922386
623,0.0338875620698794
624,0.0335799879429751
625,0.0332724138160708
626,0.0329648396891665
627,0.0328683118151338
628,0.032795124772599
629,0.032719377405194
630,0.0331080860128673
631,0.032773726974562
632,0.0330965973497443
633,0.0333085037401632
634,0.0335319040527387
635,0.0337526525995448
636,0.0334347337376782
637,0.0338565728607281
638,0.0336607962267539
639,0.0338355395166439
640,0.0336778884722307
641,0.0336424296968362
642,0.0334858937824755
643,0.0333160458835171
644,0.0331461979845587
645,0.0329763500856003
646,0.0331312114404542
647,0.0331620717289472
648,0.0326620370381926
649,0.0332092552238622
650,0.0327896813546169
651,0.0329058205612264
652,0.032560074554723
653,0.0320597407436437
654,0.0315039055125309
655,0.0318519462019161
656,0.0315982829888894
657,0.0319986962608121
658,0.0322885697968675
659,0.0329870023730785
660,0.0331696234669978
661,0.0332510009049076
662,0.0333584132217077
663,0.0331396178800454
664,0.0329437786602944
665,0.0330083834301236
666,0.0330698802007976
667,0.0331031409940755
668,0.0331614399528196
669,0.0325588983111554
670,0.0327525478760547
671,0.0326848427760119
672,0.0326133379234237
673,0.0326648930531023
674,0.0327628811079812
675,0.0327815354518515
676,0.0326997001755182
677,0.033013110617599
678,0.0326776246894293
679,0.0326398853379418
680,0.0333914066075887
681,0.032739533918595
682,0.0318273280473914
683,0.0310046238853974
684,0.0296776116185155
685,0.0286018775406797
686,0.0278183570071416
687,0.0274377701337563
688,0.0275953672320552
689,0.0281739030923105
690,0.0291809198901625
691,0.0304357703819891
692,0.0311274786283097
693,0.0319605988648759
694,0.0328717081707082
695,0.0332198291264343
696,0.0340351172435118
697,0.0345330003541657
698,0.0344415582270858
699,0.0349179752512767
700,0.0359407750450306
701,0.0360159999048165
702,0.0369754100613857
703,0.0372319347529489
704,0.0382175009585272
705,0.0384311874353368
706,0.0392438431350799
707,0.0399913426438723
708,0.0401972020188585
709,0.0409512665116637
710,0.0407892922192275
711,0.0410253507879644
712,0.041337511778937
713,0.0401443197938501
714,0.0397332409980379
715,0.038393808088359
716,0.0374628490566077
717,0.0369078214146377
718,0.0369064775354042
719,0.0375218802028775
720,0.0381197911447428
721,0.0379243424778013
722,0.0390470515402539
723,0.0393079287934404
724,0.0394560502766768
725,0.0399329799894089
726,0.0400552037380172
727,0.0409605866877182
728,0.0416350907616177
729,0.0427308235240427
730,0.0436752168290069
731,0.044888486354366
732,0.0459864735321032
733,0.0472380743004123
734,0.0479721374252654
735,0.0483304083306664
736,0.04902325095216
737,0.0493319814626191
738,0.0496407119730782
739,0.0499494424835373
740,0.050801563945747
741,0.0510656315954834
742,0.0513518635458101
743,0.0516380954961368
744,0.0519243274464635
745,0.0521006572252538
746,0.0520580374705421
747,0.0523091301267893
748,0.0517351689286493
749,0.0522069470744891
750,0.0521179481289172
751,0.0518899834900266
752,0.0526835099632966
753,0.0521433166251469
754,0.0506425883117483
755,0.0463910255483204
756,0.0421394627848925
757,0.0378879000214646
758,0.0316221186094281
759,0.0264924511367389
760,0.0238326697786576
761,0.0233986365750668
762,0.0246264846880642
763,0.0277462356107004
764,0.031626723588048
765,0.0355814146689491
766,0.039953075537614
767,0.0441157507410729
768,0.0464899444016235
769,0.0483492154855829
770,0.0498508525845622
771,0.0504800249451598
772,0.0511626008710009
773,0.0518804757233919
774,0.0515503828043876
775,0.0517777912370315
776,0.0519572431084
777,0.0514708232587992
778,0.0521416112260349
779,0.0516284274675914
780,0.0522652991282186
