"wavelength","measurement"
380,0.0231833609520849
381,0.0234530543378834
382,0.02405237844711
383,0.0239459948902133
384,0.0244759415930869
385,0.0257057740583039
386,0.0275556928976573
387,0.0291476311441039
388,0.0306999948003909
389,0.0316310853678912
390,0.0320951981662236
391,0.0325606421505023
392,0.034384316077412
393,0.0347356894005773
394,0.0376447568676374
395,0.0414646213434757
396,0.0469695253856504
397,0.0535625635102387
398,0.0601556016348269
399,0.0667486397594152
400,0.0704906076154079
401,0.0748644836172434
402,0.0797542408090583
403,0.0813950801257969
404,0.0841062879462086
405,0.0853582774444999
406,0.0880688433045832
407,0.0910941350877393
408,0.0932419068268301
409,0.0973188287717616
410,0.102807362144681
411,0.104069476841945
412,0.107983837764439
413,0.110348484602151
414,0.111343611003536
415,0.112764422217123
416,0.11222490696726
417,0.112115333800594
418,0.114576003438379
419,0.112540228629323
420,0.116292884547741
421,0.115899674127182
422,0.117755553128226
423,0.118138048352448
424,0.11838743512212
425,0.116641230585143
426,0.115216582039633
427,0.112068596328051
428,0.109496047628036
429,0.110173298938103
430,0.110754654485898
431,0.116620155241146
432,0.121429737128562
433,0.125918112804455
434,0.130463751372086
435,0.133522959120288
436,0.13540976904294
437,0.137769745709902
438,0.140129722376865
439,0.142489699043827
440,0.144038493774039
441,0.146869073628184
442,0.150027501176786
443,0.15200619717459
444,0.155115070080365
445,0.158223942986139
446,0.161332815891913
447,0.163601838112955
448,0.164385135487986
449,0.170253065567279
450,0.168816950747639
451,0.16763131125174
452,0.16760441531407
453,0.1675775193764
454,0.167550623438729
455,0.168562036128069
456,0.169201337459369
457,0.171740719641333
458,0.172856021797385
459,0.175810584847333
460,0.176957855080344
461,0.174726252598215
462,0.17955399102715
463,0.175385191256514
464,0.173810239027187
465,0.172917645364286
466,0.171846372837707
467,0.172331360309697
468,0.172113057641086
469,0.171962616072759
470,0.176669568442109
471,0.17773359681954
472,0.179772836149174
473,0.182825390185578
474,0.183600364904464
475,0.186853214239131
476,0.183688471175126
477,0.184618743626541
478,0.185549016077955
479,0.186479288529369
480,0.18617118690815
481,0.181800862644239
482,0.179258448627639
483,0.178689318358637
484,0.175941734685899
485,0.173164893487133
486,0.176531525459418
487,0.178991455223767
488,0.181666236671387
489,0.186595427270422
490,0.187443796638793
491,0.189530919296231
492,0.193727910118153
493,0.1913695535804
494,0.194285114570871
495,0.191131554662088
496,0.191962259024366
497,0.187763648847366
498,0.189580981635302
499,0.185312525193081
500,0.187037924923584
501,0.186057214510519
502,0.189664560326614
503,0.191578986602014
504,0.18880766303741
505,0.194713620205326
506,0.193349614082388
507,0.194119884335921
508,0.195221171443144
509,0.19457869552832
510,0.190714042137686
511,0.192723100377766
512,0.190336506751317
513,0.184123802802252
514,0.182864287868123
515,0.179812511717135
516,0.178755043454991
517,0.178760406438499
518,0.178058972194555
519,0.18153878962607
520,0.184293455713088
521,0.185567795591307
522,0.186842135469525
523,0.188116475347743
524,0.186400911323483
525,0.186174355451585
526,0.186221181943488
527,0.185205561697675
528,0.18576779350358
529,0.187486892095653
530,0.187207665197391
531,0.186942734066229
532,0.186110737624271
533,0.187727474071013
534,0.188746867485485
535,0.185960422832344
536,0.187564190122527
537,0.186065296375497
538,0.185221014746072
539,0.183930207343544
540,0.185119071033421
541,0.184105283367437
542,0.182820263078916
543,0.183479524530533
544,0.184135835238617
545,0.182612197660289
546,0.184534357534849
547,0.18429175009054
548,0.184049142646232
549,0.183806535201924
550,0.183268842791613
551,0.184469783965554
552,0.185579045795514
553,0.184050234454517
554,0.182958983607504
555,0.184639923919335
556,0.18191387432521
557,0.181398874999838
558,0.180300582126464
559,0.178230591918416
560,0.180616563204674
561,0.17712980595903
562,0.179790403728887
563,0.17742742829079
564,0.177917489383083
565,0.175300884199426
566,0.174224129065567
567,0.172406913834617
568,0.173512826506312
569,0.17187759065183
570,0.171776031711321
571,0.172610017850879
572,0.172427085539053
573,0.1723267839591
574,0.173784820177792
575,0.171783280596754
576,0.173177808452201
577,0.174572336307649
578,0.175966864163096
579,0.177361392018543
580,0.178755919873991
581,0.181581988644727
582,0.181182369660497
583,0.183108459153697
584,0.180252792416087
585,0.180549548120136
586,0.176540243674803
587,0.175337414426958
588,0.174454273352203
589,0.173571132277449
590,0.172687991202694
591,0.174502070682595
592,0.175411576316728
593,0.17591656616131
594,0.178437435618675
595,0.178178709775383
596,0.179449525460395
597,0.179957791641031
598,0.180353788848299
599,0.180269394295852
600,0.181969101835691
601,0.18310305561578
602,0.183932347623136
603,0.183026657662586
604,0.184892734681314
605,0.183676362200109
606,0.183986052100791
607,0.183737803473132
608,0.181515449401954
609,0.181668638616331
610,0.180698694973419
611,0.179744649873975
612,0.178829812131852
613,0.178612081642438
614,0.177292216195124
615,0.180447611650923
616,0.178376207338265
617,0.180163489249399
618,0.180032696281199
619,0.18084485487106
620,0.180117703057328
621,0.181459948325433
622,0.17771253387966
623,0.177756121965679
624,0.176331142912971
625,0.174906163860263
626,0.173481184807555
627,0.172932408179192
628,0.173158092028266
629,0.172981179218009
630,0.175098889558423
631,0.173395008352183
632,0.175579456290781
633,0.176911169115532
634,0.177775003745634
635,0.178790357648537
636,0.177730607601548
637,0.180148111938511
638,0.179318181499022
639,0.180686160536828
640,0.180231124058568
641,0.18010027276779
642,0.179872227766266
643,0.179414974694286
644,0.178957721622305
645,0.178500468550325
646,0.180080545902461
647,0.180088501087279
648,0.17773577160648
649,0.181047660598746
650,0.178962472317938
651,0.179544909290393
652,0.177540884536992
653,0.175062554108259
654,0.172675055537732
655,0.174990354174033
656,0.174133507425662
657,0.177359519720097
658,0.178115730750393
659,0.182479583505632
660,0.183477636123759
661,0.184643340190758
662,0.185131671159196
663,0.184628647998081
664,0.183489628722187
665,0.184022520853957
666,0.184605079543506
667,0.184897185521341
668,0.185881623131731
669,0.182736546582616
670,0.183806088804995
671,0.183825398414657
672,0.183094906794641
673,0.183593599009649
674,0.184364100514689
675,0.183936384720058
676,0.184182310405409
677,0.185677182305299
678,0.183663439067225
679,0.183180777863919
680,0.187070404147342
681,0.183116192612557
682,0.17621242943682
683,0.171645947880146
684,0.164071912161226
685,0.157548727922977
686,0.152829907484981
687,0.15053430985781
688,0.151133827591111
689,0.153683776176475
690,0.157761498176023
691,0.163338120927464
692,0.165728440789548
693,0.16846180575142
694,0.171500937535377
695,0.171435875015979
696,0.174044291166149
697,0.174514671118876
698,0.172627527065589
699,0.173462443448492
700,0.176265462366919
701,0.17510906950394
702,0.177924084987448
703,0.178043070557391
704,0.180447185345035
705,0.180213166064919
706,0.182852307116401
707,0.184526837165556
708,0.183578085409434
709,0.185715655954879
710,0.183729549499782
711,0.183245919016073
712,0.183241833815456
713,0.17596110888388
714,0.172967572859704
715,0.165827954649097
716,0.160696948815168
717,0.157851304476491
718,0.156643242662629
719,0.158617604619604
720,0.160490350776265
721,0.158249513303199
722,0.161362993107749
723,0.161432906832956
724,0.161051374661311
725,0.162110749732141
726,0.161825165989184
727,0.164800032143778
728,0.166779095262094
729,0.170166603171768
730,0.173402888625671
731,0.177109335406819
732,0.18097598535289
733,0.184285859001143
734,0.186235573631494
735,0.186816482981931
736,0.189201547736478
737,0.190091102883027
738,0.190980658029576
739,0.191870213176124
740,0.19428367652614
741,0.195190187854359
742,0.196208850948947
743,0.197227514043535
744,0.198246177138123
745,0.199085801443025
746,0.198644581334641
747,0.199801604319411
748,0.197137942564856
749,0.199264561221824
750,0.198894248173741
751,0.199027847703877
752,0.201246204586608
753,0.19954049662356
754,0.191647354853321
755,0.174727058983921
756,0.157806763114521
757,0.140886467245121
758,0.116559866682385
759,0.0985117686370822
760,0.0910799128177427
761,0.0906868920869474
762,0.0972212778308767
763,0.110174687740846
764,0.12668361281051
765,0.141585055421528
766,0.158255455782104
767,0.17324642778793
768,0.18196318684431
769,0.188481397049891
770,0.193965277980392
771,0.195507983900422
772,0.197583859170891
773,0.20094569080946
774,0.199366070581955
775,0.200461598610665
776,0.201067022407628
777,0.198592679465451
778,0.20139085182441
779,0.199458001184777
780,0.202164528386543
