"wavelength","measurement"
380,0.00130769225977512
381,0.00132005531516517
382,0.00133744592426302
383,0.00131783233365497
384,0.0013487755691511
385,0.00144000974895507
386,0.00152230843689673
387,0.00171612276698233
388,0.00179897293130792
389,0.00184726260697641
390,0.0018797236902563
391,0.00189017813701679
392,0.0019676175391483
393,0.00203496766012351
394,0.00208920723529206
395,0.00222647473063847
396,0.00248119516570136
397,0.00277455131268343
398,0.00306790745966551
399,0.00336126360664759
400,0.0035777436372156
401,0.00385538598860542
402,0.00409389701445204
403,0.00419657846298628
404,0.00423965925298779
405,0.00431605490252679
406,0.00440880780434328
407,0.00453724607403887
408,0.00462425989681051
409,0.00478744930880971
410,0.00501248461159656
411,0.00510770919481362
412,0.0052613199694282
413,0.00548068080870617
414,0.00555121998661021
415,0.00561715278485778
416,0.00568845571866087
417,0.00563932561320613
418,0.00582161654915757
419,0.00577852600686919
420,0.00597152477531591
421,0.00595480701940048
422,0.00604420953982731
423,0.00612945434366833
424,0.00621815391051314
425,0.00613696388633875
426,0.00613141550025188
427,0.00597928986114683
428,0.005843366813559
429,0.00584208753310218
430,0.00590997826236663
431,0.00611419747084288
432,0.00642904684635893
433,0.00668543852136266
434,0.0069765405110774
435,0.00717732780743391
436,0.00728747790185341
437,0.00744681676245851
438,0.00760615562306361
439,0.00776549448366872
440,0.00783464701995864
441,0.00801690233737901
442,0.00824431877812472
443,0.00839866741075377
444,0.00858085532300537
445,0.00876304323525698
446,0.00894523114750859
447,0.00916244319844961
448,0.00925874560041505
449,0.00965037252077883
450,0.00958245658656822
451,0.00956710036227207
452,0.00959548671193202
453,0.00962387306159197
454,0.00965225941125192
455,0.00967171044062427
456,0.00969469406041784
457,0.00990573070703579
458,0.00996804421854826
459,0.0101177015699875
460,0.0102216507332382
461,0.0101828185904638
462,0.0105507915927318
463,0.010224899720854
464,0.010164037921992
465,0.0100974635972363
466,0.00998045215621369
467,0.0100218205325893
468,0.00995251604084447
469,0.00991007653069858
470,0.0101260564640649
471,0.0101568224311
472,0.0102670967042779
473,0.0103984341118308
474,0.0104623822165825
475,0.0106632309848625
476,0.0104474359787694
477,0.0104785791502386
478,0.0105097223217079
479,0.0105408654931772
480,0.0105037387258904
481,0.0103085021481531
482,0.0101375180690243
483,0.0101595271641386
484,0.00994992958444217
485,0.00978740893068359
486,0.00991098575922988
487,0.0100200360524602
488,0.0101472697070662
489,0.0104679214535443
490,0.0105710595002215
491,0.0106652458080185
492,0.0109863292118717
493,0.0109036339297531
494,0.011063979317137
495,0.0109377609968372
496,0.0110303618104206
497,0.0108608034592592
498,0.0109716131360549
499,0.0107172162101254
500,0.0108402447692293
501,0.0107524529718346
502,0.0110029700968117
503,0.0110547309641541
504,0.0109976287744258
505,0.0113881133810474
506,0.0113655870675886
507,0.0114317398690582
508,0.0115343841338912
509,0.011516632958917
510,0.0113678850976807
511,0.0115813251559117
512,0.0114431889728856
513,0.011132238949773
514,0.0110934995564399
515,0.0109329614506607
516,0.0108852123315526
517,0.0108722024641753
518,0.010855639917928
519,0.011059697438004
520,0.0112904807326029
521,0.0114189947522676
522,0.0115475087719322
523,0.0116760227915969
524,0.0116441968483348
525,0.0116798392694287
526,0.0116830222504059
527,0.0116015126847735
528,0.0117060191586551
529,0.0118529455018955
530,0.0118791797222005
531,0.0118997198766754
532,0.0118569931986406
533,0.0119789531384551
534,0.0120290766887485
535,0.0118673560817264
536,0.0120314277864497
537,0.0119675687145004
538,0.0119052391673725
539,0.0118653082251929
540,0.0119172093994507
541,0.0118858214792952
542,0.0118193909685884
543,0.0118725503671822
544,0.01192499489578
545,0.0118469785034631
546,0.0119692280819508
547,0.0119459034227109
548,0.0119225787634709
549,0.011899254104231
550,0.0118383781224116
551,0.0119285462679721
552,0.0120161824530387
553,0.011894523507818
554,0.0118669401719131
555,0.0120000780140109
556,0.0118272726511467
557,0.011823015161926
558,0.0117545763340954
559,0.0116485921302152
560,0.0117827141366307
561,0.0116103063423121
562,0.0117833444704463
563,0.0116062435874702
564,0.0116530910369079
565,0.0114944181095513
566,0.0114538143050256
567,0.0113109008255122
568,0.0113740238231172
569,0.0112432601716704
570,0.011228300936834
571,0.0112350581495761
572,0.0112354337138447
573,0.011215107007945
574,0.0112842099905824
575,0.0111313386196091
576,0.0111937121497765
577,0.0112560856799438
578,0.0113184592101111
579,0.0113808327402784
580,0.0114432062704457
581,0.0115678611090168
582,0.0115436419808351
583,0.0116279792739639
584,0.0114833199213714
585,0.0114817692364808
586,0.0112479578808431
587,0.0110714566048503
588,0.0109731994735278
589,0.0108749423422052
590,0.0107766852108826
591,0.0108007251936583
592,0.0108894389592999
593,0.0108905192621174
594,0.0110304009185387
595,0.010968298054381
596,0.0110304777890618
597,0.0110396423620936
598,0.0110156765838264
599,0.0109886243363022
600,0.0110649781425475
601,0.0111073447594618
602,0.011126296205046
603,0.0110595798882646
604,0.0111463737235312
605,0.0110878736142084
606,0.0111079783039302
607,0.0110743683143287
608,0.0109315116262346
609,0.010922960447544
610,0.0108452497974619
611,0.010767467672942
612,0.0106921573994401
613,0.0106641693699012
614,0.0105175143385434
615,0.0106071397701543
616,0.0104857668914844
617,0.0106098433854678
618,0.0105633385675995
619,0.0105935682506683
620,0.0105170947341511
621,0.0106010127864792
622,0.0103611224782365
623,0.0103509193751214
624,0.0102340847311004
625,0.0101172500870795
626,0.0100004154430585
627,0.00997086629056371
628,0.00991228586131868
629,0.0098927773537247
630,0.0100184844549497
631,0.00985037796289536
632,0.009930489077521
633,0.0100139598055747
634,0.010004250683493
635,0.0100825442174305
636,0.0100321068862278
637,0.0101237203295031
638,0.0100014785554709
639,0.0100907928197144
640,0.0100263310541637
641,0.0100128866113284
642,0.00995767642551132
643,0.00990296285767408
644,0.00984824928983685
645,0.00979353572199961
646,0.00981241097078354
647,0.00983584029006019
648,0.00963846801837361
649,0.00979355588929484
650,0.00967136283113562
651,0.00973550906078276
652,0.00960842658538541
653,0.00946056122281675
654,0.00925929741765008
655,0.00931586381819187
656,0.00921242290154878
657,0.00928309053152831
658,0.00940400500114077
659,0.009604751816464
660,0.00967003757178787
661,0.00968048031152263
662,0.00972762145532372
663,0.00961901963537988
664,0.00959477860470601
665,0.00957659936310555
666,0.00958042698404569
667,0.00958191188999791
668,0.00959198094919707
669,0.0094202818440813
670,0.00946790024951524
671,0.00934413257584177
672,0.0093750644207653
673,0.00939116061996638
674,0.00940828190643197
675,0.00937177600494261
676,0.00932217554142751
677,0.00941550455594568
678,0.00925685747286266
679,0.00925096836508958
680,0.00942174543386223
681,0.00921248579571527
682,0.0089934604979216
683,0.00876140017953307
684,0.00836764817995286
685,0.00798124189747473
686,0.00769741445182642
687,0.00746010191313456
688,0.00742129410751239
689,0.00747249681227302
690,0.0077075123999091
691,0.00796483262190481
692,0.00812190299100936
693,0.00820553617987113
694,0.00837054688014995
695,0.00837680883951088
696,0.00851537680130914
697,0.00853160418128513
698,0.0084196521328637
699,0.00843124954708674
700,0.00854078062027791
701,0.0084687695788518
702,0.00852058439099902
703,0.00854601699560634
704,0.00870490336461272
705,0.00860058602612366
706,0.00869956226614076
707,0.00878860831893019
708,0.0087364616859227
709,0.00879132783681187
710,0.0086672768706299
711,0.00867248094190797
712,0.00868521855733276
713,0.00837107233458327
714,0.00821694213458665
715,0.00786294136638666
716,0.00757927693584737
717,0.00730903087981853
718,0.00723212161649159
719,0.0072091433495328
720,0.00722342553572122
721,0.00714711271091195
722,0.00730177724678307
723,0.00726525007925494
724,0.00722440538037651
725,0.00721774944378725
726,0.0071569010238389
727,0.00722435537995432
728,0.00725240585464918
729,0.00733725213673795
730,0.00749639748137462
731,0.00760825466394905
732,0.00774566169766677
733,0.00787794555698865
734,0.00796061133744982
735,0.0079735875968977
736,0.00799906216665243
737,0.00800446727049496
738,0.00800987237433749
739,0.00801527747818002
740,0.00805164664968925
741,0.00806344454121917
742,0.00805670408109552
743,0.00804996362097186
744,0.00804322316084821
745,0.00802397991756494
746,0.00796216451256759
747,0.00798422449238021
748,0.00782866544460737
749,0.00789220393781251
750,0.00779430373042947
751,0.00777621126632631
752,0.00782411716134294
753,0.00763477384297681
754,0.00754938079487729
755,0.00696533083277969
756,0.00638128087068209
757,0.00579723090858449
758,0.00489320549589432
759,0.00401642198844087
760,0.00343906112971672
761,0.00326615024861801
762,0.00338085835793711
763,0.00370244328087508
764,0.00426565446116692
765,0.00483622398335561
766,0.00546380591292111
767,0.00603379434220753
768,0.00636986391603487
769,0.00672953780257321
770,0.00685650835945009
771,0.00692868059888435
772,0.00695840284773437
773,0.00703223219130665
774,0.00698406480077402
775,0.00696392411345287
776,0.00694967682642995
777,0.00690619091768843
778,0.00693946191783477
779,0.0068355094599977
780,0.00693772656216792
