"wavelength","measurement"
380,0.0012681209284567
381,0.00129363141550363
382,0.00129682394944694
383,0.00128532672451478
384,0.00133561290908258
385,0.00143878371774023
386,0.00153519449096622
387,0.00165261933049397
388,0.00176851800996839
389,0.00184682192914952
390,0.0018554185262162
391,0.00187476019951755
392,0.00192155746714359
393,0.00197352136816088
394,0.00211747779515367
395,0.00222108800308743
396,0.00249347383271957
397,0.00281525018695721
398,0.00313702654119485
399,0.0034588028954325
400,0.00362615664419833
401,0.00391233734192801
402,0.00410908392733746
403,0.00425223036557338
404,0.00434157563237223
405,0.00438312369765249
406,0.00449809367257097
407,0.00466687031165689
408,0.00475420882292438
409,0.00490369691166764
410,0.00522248674309306
411,0.00528437126027427
412,0.00551149649936543
413,0.00572772244341774
414,0.00579268491970065
415,0.00588726732116325
416,0.00592372544353027
417,0.00598298345513469
418,0.00609535476267302
419,0.00604561876067575
420,0.00627502485853917
421,0.00629511819628708
422,0.00641295772670254
423,0.00655651803323356
424,0.00655588067229438
425,0.00654475979722815
426,0.00651479283711632
427,0.00640454837813913
428,0.0062135325592989
429,0.0062441515828506
430,0.00632731950267932
431,0.00660466193071445
432,0.00690218938811566
433,0.00713425640134301
434,0.0075077840000045
435,0.00771394120910017
436,0.00784253849194575
437,0.00800874476207725
438,0.00817495103220874
439,0.00834115730234024
440,0.00844118440136789
441,0.00866943500691813
442,0.00892931849611886
443,0.00904479868647531
444,0.00925405133893355
445,0.00946330399139179
446,0.00967255664385003
447,0.00987651630939059
448,0.0100132905856534
449,0.0104011753863318
450,0.0104311321684053
451,0.0103901213188885
452,0.0104117578731273
453,0.010433394427366
454,0.0104550309816047
455,0.0104976466358175
456,0.0105170100243577
457,0.0107600203641509
458,0.0108435208613971
459,0.0110457351755516
460,0.0111315601536586
461,0.011026350111431
462,0.0114311925668558
463,0.0111236786170619
464,0.0110632036714928
465,0.0110132539762802
466,0.010911890253229
467,0.0109446248928427
468,0.0108458325575369
469,0.0108201571540252
470,0.0111048911622563
471,0.0111469994534244
472,0.0112165308186477
473,0.01141947785013
474,0.0114832246363968
475,0.0116560349447874
476,0.0114269338885375
477,0.011470048194678
478,0.0115131625008184
479,0.0115562768069588
480,0.0115690365612452
481,0.0113097950174108
482,0.0111636072582257
483,0.0111558687517901
484,0.010937483984435
485,0.010767788002797
486,0.0109126147504586
487,0.0110148198160523
488,0.011175483533478
489,0.0115147059490251
490,0.0116486449441508
491,0.0117740251893714
492,0.0120994686291864
493,0.0120046628603005
494,0.0122228433918196
495,0.0120838648791637
496,0.0121729452722963
497,0.0119971938025389
498,0.0120774605653392
499,0.0118407359605327
500,0.0119739246699641
501,0.0118938638789454
502,0.0121508266089099
503,0.0122389978605301
504,0.0121666453081596
505,0.0125986525453801
506,0.012554093915607
507,0.0126666432379127
508,0.0127383767967099
509,0.0127647194858703
510,0.0125828195218194
511,0.0127898455253308
512,0.0126832835400438
513,0.0123480938132045
514,0.0122875864904701
515,0.0120895969378221
516,0.0120339171059682
517,0.0120326083184193
518,0.0120139260402465
519,0.0122520686738314
520,0.0125181346611952
521,0.0126697344055458
522,0.0128213341498964
523,0.012972933894247
524,0.0128778764416639
525,0.0129472244597623
526,0.0129760337266711
527,0.0128824452735269
528,0.0129830087687994
529,0.0131434132609016
530,0.0131635686902167
531,0.0131771980197804
532,0.0131620290922372
533,0.0133140456004222
534,0.0133641153576808
535,0.0131675926023797
536,0.0133896682710195
537,0.0133181104606606
538,0.0132537531814527
539,0.0131911426501264
540,0.0132586148639092
541,0.0131796647757981
542,0.0131117552916951
543,0.0131730644887534
544,0.0132782837164507
545,0.0131871520957507
546,0.0132938136010065
547,0.0132727415396534
548,0.0132516694783004
549,0.0132305974169473
550,0.0131697558048877
551,0.0132735114543198
552,0.0133685733591331
553,0.0132376367852771
554,0.0132163931619031
555,0.0133374008554367
556,0.0131972754715448
557,0.0131691287887669
558,0.0131099185016184
559,0.012978854900011
560,0.0131619546847635
561,0.0129099490182588
562,0.0131675379812924
563,0.0129613901712574
564,0.0130204572667746
565,0.0128125570747018
566,0.0127743190423145
567,0.0126375265207492
568,0.0127206583851229
569,0.0125650341690199
570,0.0125338004935184
571,0.0125793927700697
572,0.012563488380089
573,0.0125054562367392
574,0.012612490568859
575,0.0124469553995511
576,0.012513111188713
577,0.0125792669778748
578,0.0126454227670366
579,0.0127115785561985
580,0.0127777343453603
581,0.0129617879159503
582,0.0129335231014125
583,0.0130076806351232
584,0.0128306401873202
585,0.0128581220006414
586,0.0125773415519927
587,0.0124001301036147
588,0.0122897919930291
589,0.0121794538824436
590,0.012069115771858
591,0.012151938751755
592,0.0122215509840368
593,0.0122067532318038
594,0.0123713703231281
595,0.0123160530863049
596,0.0123975321625019
597,0.0123999010450675
598,0.012360920015509
599,0.0123612195980421
600,0.0124231398266558
601,0.0124943736926268
602,0.0125361721096925
603,0.0124461048963657
604,0.0125843245583529
605,0.0124935777875615
606,0.0125028981533332
607,0.0124345990095025
608,0.0122994106527687
609,0.0122948600863997
610,0.0122361717976167
611,0.0121306361166173
612,0.0120637327363488
613,0.0120017250298547
614,0.0118523216041503
615,0.0119509467250632
616,0.0118220840773772
617,0.0119471643755987
618,0.0119198852143412
619,0.0119504468395409
620,0.0118844447245087
621,0.0119543176701894
622,0.0116998805906304
623,0.0116788890923135
624,0.0115550140041887
625,0.0114311389160639
626,0.0113072638279391
627,0.011265123773623
628,0.0111801122681877
629,0.0111685944466335
630,0.0112900781487018
631,0.0111472185969394
632,0.0112269789599111
633,0.0113361181062547
634,0.0113405281072568
635,0.0114108238610617
636,0.0113237847654511
637,0.0114453351141977
638,0.0113430642014439
639,0.0114393738214615
640,0.0113529113382086
641,0.0113391290986527
642,0.0112940585603553
643,0.0112303051276466
644,0.011166551694938
645,0.0111027982622293
646,0.0111350355147918
647,0.0111503340187052
648,0.0109371012318826
649,0.0111261244945102
650,0.0109870284117942
651,0.0110787107953754
652,0.0109254382609646
653,0.0107393860384764
654,0.0105150462320742
655,0.0105942973873514
656,0.0104817527319253
657,0.0105729866038642
658,0.0106815627055938
659,0.0109284906002282
660,0.011000185762244
661,0.0110434203889611
662,0.0110798624513568
663,0.0109894094544897
664,0.0109115730494436
665,0.0109251854452497
666,0.0109597087834657
667,0.0109527542538852
668,0.0109853819449875
669,0.0107471695988667
670,0.0108100969595278
671,0.0107372646652164
672,0.010717492961583
673,0.0107512395474879
674,0.0107749041276251
675,0.0107496613742893
676,0.0106965637916293
677,0.0107772770400638
678,0.0106290528886607
679,0.0105824120951445
680,0.0108170471001784
681,0.0106125690830727
682,0.0103260178563754
683,0.0100462597157429
684,0.00957375393586037
685,0.00918098469374019
686,0.00884397573954336
687,0.00858030254970074
688,0.00850771749440942
689,0.00862168141896635
690,0.00885539545063574
691,0.00916335803624344
692,0.00934396324546779
693,0.00942188084352744
694,0.0096388091235205
695,0.00962517979725754
696,0.00981201253872739
697,0.00982949198847724
698,0.00966462109345975
699,0.00969842688374706
700,0.00981528070622827
701,0.009711880884935
702,0.00982383425207389
703,0.0098234068809525
704,0.00998903966485649
705,0.0098689532766867
706,0.0100062736931412
707,0.0100699161822373
708,0.0100192779217194
709,0.0101029767054945
710,0.00993688467946304
711,0.00994192937179648
712,0.00992888682231177
713,0.00958345919416541
714,0.00939944238926337
715,0.00898300396792222
716,0.00857983343480011
717,0.00835556065880704
718,0.00823035838903594
719,0.00825086330234875
720,0.00825579904719076
721,0.00813196599790823
722,0.00835047417653346
723,0.00830593578671304
724,0.00823922497188359
725,0.00819860533528446
726,0.00815403560940196
727,0.00824938349551528
728,0.00825915101483965
729,0.00835099012747845
730,0.00849663548343192
731,0.00869772312978143
732,0.0088048496931056
733,0.00894734000619518
734,0.0090384033593733
735,0.00906048000045723
736,0.00911001820544423
737,0.00909350743266747
738,0.00907699665989071
739,0.00906048588711395
740,0.00916064697674001
741,0.00912549124361121
742,0.00913515247362649
743,0.00914481370364177
744,0.00915447493365705
745,0.00912170665483565
746,0.00908330128492076
747,0.00907271306532956
748,0.00890034847028032
749,0.00894223837575545
750,0.00889263649641744
751,0.0087890053767121
752,0.00893372526648549
753,0.00869628717628372
754,0.00860516178532885
755,0.00792300552544211
756,0.00724084926555537
757,0.00655869300566863
758,0.00551206188909634
759,0.00452755278305796
760,0.00386133891150983
761,0.00366866120778925
762,0.00381640158075977
763,0.00420319913361221
764,0.00484954344643512
765,0.00546256097923868
766,0.00619820017586969
767,0.00684727811170407
768,0.00726195820876892
769,0.00751236048802895
770,0.0077272966141795
771,0.00784038360195464
772,0.00790598323848827
773,0.00801745545443177
774,0.00794140426559029
775,0.00791297606331482
776,0.00792860238963161
777,0.0078077883203308
778,0.00787863050356109
779,0.00776416431991165
780,0.00785038250525982
