"wavelength","measurement"
380,0.0218142694134881
381,0.0209598012507255
382,0.0214126240381869
383,0.0209525419354827
384,0.0210801197325091
385,0.0222902951237301
386,0.0238328712533127
387,0.0247699870110593
388,0.0261263053921124
389,0.0265731922344114
390,0.0266515623402329
391,0.0266949236892538
392,0.0280859162356624
393,0.0285423113088252
394,0.0299399723366698
395,0.0325467555729072
396,0.0368310734496661
397,0.0413845537964032
398,0.0459380341431402
399,0.0504915144898772
400,0.0532437286650682
401,0.0570069452540199
402,0.060069037515062
403,0.0612275428539066
404,0.0619868897205038
405,0.0632219275033136
406,0.0655684162475134
407,0.0668255679379492
408,0.0682933080084862
409,0.0710592140787351
410,0.0747575364521539
411,0.0748717821515966
412,0.0783258467158752
413,0.0799113327648279
414,0.0799789714127007
415,0.0809775136227403
416,0.0803356245824852
417,0.0807291432266014
418,0.081713102187546
419,0.0802482916378806
420,0.0822706827048529
421,0.0830779763293106
422,0.083453506063492
423,0.0844414088305041
424,0.0846230886245673
425,0.082594368747742
426,0.0816424731426366
427,0.0789079541092205
428,0.0774411978596257
429,0.0777284075892763
430,0.0787117235988052
431,0.0820212993764724
432,0.0850050299350071
433,0.0881662521900566
434,0.0914536332594896
435,0.0930895639214398
436,0.094001827962653
437,0.0956606677995326
438,0.0973195076364121
439,0.0989783474732916
440,0.100020924559144
441,0.101243612179525
442,0.103687945001947
443,0.104845224474327
444,0.106812639367736
445,0.108780054261146
446,0.110747469154555
447,0.112545501453483
448,0.112867621710505
449,0.116782277690314
450,0.115365881177356
451,0.115234239486354
452,0.114991672068295
453,0.114749104650236
454,0.114506537232178
455,0.114491871694783
456,0.115645389670789
457,0.116537870525178
458,0.117547379113096
459,0.119013632657056
460,0.119484245225761
461,0.118166607525371
462,0.121233521701334
463,0.118131569093593
464,0.117160347873162
465,0.116495576246877
466,0.115384301432238
467,0.115918366423509
468,0.11535268784193
469,0.11494137562053
470,0.117871176239935
471,0.118334686983586
472,0.119153121297663
473,0.120621495333708
474,0.12127416951516
475,0.123358404284529
476,0.121468721228433
477,0.121674475274547
478,0.121880229320661
479,0.122085983366776
480,0.12205532479001
481,0.119305040171172
482,0.117416623279071
483,0.117049550511281
484,0.114985131467701
485,0.113508631047453
486,0.114987534619277
487,0.116678887289407
488,0.118315582835785
489,0.121454891223305
490,0.122005640129101
491,0.122661948803692
492,0.125529952702915
493,0.12438543491408
494,0.125806736409585
495,0.124178171600105
496,0.124193671036601
497,0.122075175979597
498,0.122696980171103
499,0.119904526017762
500,0.121046417645519
501,0.120379803372166
502,0.122744714497581
503,0.123593794443952
504,0.12226209465216
505,0.125767026260119
506,0.125044547240649
507,0.125317673199911
508,0.125710939113926
509,0.12578979870964
510,0.123176475651929
511,0.124218153589517
512,0.122992921381735
513,0.119310356167245
514,0.118316165603606
515,0.116284149779199
516,0.115976934449734
517,0.115945249675475
518,0.115662703625181
519,0.118066894750281
520,0.119859299624805
521,0.120741657027927
522,0.121624014431049
523,0.12250637183417
524,0.121700924736815
525,0.121477102961596
526,0.12132767421471
527,0.120855321977023
528,0.1215246730912
529,0.122435212897787
530,0.122188733792812
531,0.122332028901948
532,0.121850244245061
533,0.123155900499635
534,0.123366835215089
535,0.122282593915733
536,0.122780620141957
537,0.122215609331669
538,0.121199980907584
539,0.120946215656908
540,0.121262418063656
541,0.120760356149558
542,0.119924696554723
543,0.12034113910597
544,0.121282713710644
545,0.120395696418105
546,0.121243185483467
547,0.12102095506202
548,0.120798724640573
549,0.120576494219126
550,0.120454496561159
551,0.120760361908275
552,0.12206325377808
553,0.120627945800854
554,0.12015402566912
555,0.121482523157819
556,0.119444139944535
557,0.119197571018467
558,0.11855181562092
559,0.117236066739215
560,0.118814073185474
561,0.116835156348174
562,0.11824089632761
563,0.116171131402982
564,0.116856645235528
565,0.115247846114208
566,0.114295321305315
567,0.113007394416223
568,0.113907193746927
569,0.112506863387183
570,0.112462130468712
571,0.112893453446849
572,0.112809297458484
573,0.112462220874672
574,0.113455097465777
575,0.112277854364563
576,0.113092638069568
577,0.113907421774573
578,0.114722205479579
579,0.115536989184584
580,0.11635177288959
581,0.117806762875113
582,0.117836779212584
583,0.118798658746801
584,0.117103251686132
585,0.117213205704569
586,0.114467393338473
587,0.113622098605593
588,0.113043929653569
589,0.112465760701545
590,0.11188759174952
591,0.112775450416183
592,0.11377267025098
593,0.113875469194323
594,0.115522536507899
595,0.115526918160245
596,0.115821940409777
597,0.116674206145504
598,0.116308174914436
599,0.116632261352631
600,0.117424387210025
601,0.118199446454615
602,0.11897104996585
603,0.118081572869252
604,0.119247305377599
605,0.118423237453387
606,0.119098612320822
607,0.118509112654982
608,0.11700483170977
609,0.117312468963246
610,0.116489051042509
611,0.116157097408255
612,0.115502840818491
613,0.115167115697594
614,0.114459725509282
615,0.116085734780834
616,0.114736332479812
617,0.116220184361452
618,0.115792422940961
619,0.116332791864815
620,0.116085136756772
621,0.1165135010778
622,0.114078243651509
623,0.114512901193429
624,0.113589680217657
625,0.112666459241885
626,0.111743238266113
627,0.111607324524875
628,0.111450163128014
629,0.11125098597209
630,0.113045136970592
631,0.111630427707881
632,0.113102927472584
633,0.113945290897968
634,0.114414371208665
635,0.115329532022165
636,0.114552042038555
637,0.116171869516177
638,0.115452372958826
639,0.116473370249189
640,0.115798012346259
641,0.115964763076483
642,0.115542344734298
643,0.11512303236408
644,0.114703719993863
645,0.114284407623645
646,0.115772415040533
647,0.115662298879077
648,0.114027755502263
649,0.116161403957768
650,0.114963322471267
651,0.114789454543296
652,0.114327793867877
653,0.112688035333713
654,0.110929128000068
655,0.112307983470219
656,0.111722079354368
657,0.113537785848183
658,0.114458938191585
659,0.116883978166902
660,0.117370479771045
661,0.118108947635277
662,0.118682990000597
663,0.118099800183713
664,0.117652973105914
665,0.118314668672279
666,0.118489069353172
667,0.118364143133013
668,0.11867359846022
669,0.117000617789501
670,0.117845387849009
671,0.117729199953577
672,0.117473491177539
673,0.117873238481626
674,0.118245895903208
675,0.118249550746741
676,0.118143364429042
677,0.119409164296228
678,0.118108956395304
679,0.117329314928088
680,0.120483520963246
681,0.117866823352223
682,0.113598760252442
683,0.111096362521117
684,0.105841684859383
685,0.101866486263952
686,0.0989419130112523
687,0.0976883137137586
688,0.0981647846832793
689,0.100168000181727
690,0.102848255449063
691,0.106928196882516
692,0.108377770331976
693,0.110787906308028
694,0.112568478434542
695,0.112921613862108
696,0.115141511780563
697,0.115657487406198
698,0.114562305603495
699,0.115561568053348
700,0.117842684790714
701,0.11771587597163
702,0.119883348229786
703,0.120640659813638
704,0.122697498022014
705,0.122386278196588
706,0.124772003371727
707,0.125632933655935
708,0.12536685349333
709,0.127241747802033
710,0.126389824186058
711,0.126169950147246
712,0.126214681040946
713,0.122112840981893
714,0.120069116879596
715,0.115431828297168
716,0.111928674991673
717,0.110375327691255
718,0.109782469944162
719,0.110978303734782
720,0.112783970636398
721,0.111052018557523
722,0.113832029333699
723,0.114093918962611
724,0.114344290857985
725,0.11528855539601
726,0.114885265724205
727,0.117200818617931
728,0.118393435464903
729,0.121615715618517
730,0.123326287028808
731,0.125741659466798
732,0.129221752580537
733,0.131818699325168
734,0.133532733703588
735,0.134562115573978
736,0.135751184511856
737,0.1364010212433
738,0.137050857974744
739,0.137700694706189
740,0.13939041564562
741,0.140571225955476
742,0.141347542002082
743,0.142123858048688
744,0.142900174095294
745,0.143108873015211
746,0.143235840013477
747,0.143220876393383
748,0.142236008000326
749,0.143823880582276
750,0.143433010708184
751,0.142879356747431
752,0.14544244170066
753,0.143327419236159
754,0.138456842093157
755,0.12639185570279
756,0.114326869312422
757,0.102261882922054
758,0.085328817262573
759,0.0717438868657257
760,0.0666489622504375
761,0.0661185858251878
762,0.070395355397734
763,0.0795489607159698
764,0.0907328733315554
765,0.101363015376071
766,0.113900441913015
767,0.124536826549948
768,0.130424289107585
769,0.135986788036918
770,0.139452487770464
771,0.14166892960479
772,0.143156057278525
773,0.145141616530076
774,0.144123737018562
775,0.145220112182633
776,0.1454208951481
777,0.144212238078246
778,0.145963889379709
779,0.14441677707391
780,0.146790253371586
