"wavelength","measurement"
380,0.0221179161662712
381,0.0222337231605684
382,0.0217024692558992
383,0.0213277786824439
384,0.0218847998562191
385,0.0227356441942125
386,0.0240430990313537
387,0.0247290911866633
388,0.0261101707102231
389,0.0264771002559941
390,0.0265899565831226
391,0.0266171613606049
392,0.0275203424526593
393,0.0275387881477331
394,0.0284995684037273
395,0.0311828106475889
396,0.0346626516299444
397,0.0387809656734792
398,0.0428992797170141
399,0.047017593760549
400,0.0490272054680427
401,0.0521155728720458
402,0.0543409082746108
403,0.0550040148185045
404,0.0559436771261851
405,0.0566104346342283
406,0.0582525752410749
407,0.0590034827776209
408,0.0600574889687862
409,0.0615166252508349
410,0.0647212330045122
411,0.0651527376500742
412,0.0672767698491054
413,0.0685842046960904
414,0.0685193267809343
415,0.0692686259850882
416,0.069019393165972
417,0.0683999635802569
418,0.0696557571572222
419,0.0684181619319045
420,0.0701681434670695
421,0.0701052331997183
422,0.0706802502704853
423,0.0707578680185313
424,0.0711334869291987
425,0.0695645623251404
426,0.068577655893455
427,0.0669212794739792
428,0.065317430263173
429,0.0653705855310346
430,0.06595911861402
431,0.0689702182132201
432,0.0713878100004269
433,0.0738460357434826
434,0.0767366689082662
435,0.0781973459216686
436,0.0789162610618703
437,0.0801764520997648
438,0.0814366431376592
439,0.0826968341755536
440,0.0833521946760448
441,0.0846117010837466
442,0.0866989953613908
443,0.08771604642426
444,0.0893211166321212
445,0.0909261868399825
446,0.0925312570478437
447,0.093885713081589
448,0.0944360266666144
449,0.0976930114328369
450,0.0967036051877211
451,0.0961186220983876
452,0.0959681145339592
453,0.0958176069695308
454,0.0956670994051025
455,0.0957599289172488
456,0.0964604304823464
457,0.0973415112699984
458,0.09851824308459
459,0.0998483047542214
460,0.0997747879529346
461,0.0990136614780328
462,0.101468856242105
463,0.0985296867577392
464,0.0974841505889961
465,0.0968618155337528
466,0.0962167629319724
467,0.0962082186397959
468,0.0954236947856366
469,0.0954223484574471
470,0.0978202855887861
471,0.097801329027096
472,0.0987189500982043
473,0.0999544683566902
474,0.100533544878645
475,0.101626567469795
476,0.0999844445312316
477,0.100190685831474
478,0.100396927131716
479,0.100603168431959
480,0.100296399417042
481,0.0978495157952752
482,0.0962340897517668
483,0.0962634771495665
484,0.0943338895170892
485,0.0930349052344677
486,0.0944578996605283
487,0.0955413648130562
488,0.0969490842207903
489,0.0994890654253888
490,0.0998262372204206
491,0.101014363572199
492,0.103123949626119
493,0.101772052485231
494,0.10335124812406
495,0.101790916879471
496,0.102247401336846
497,0.100271821692328
498,0.100927815547196
499,0.0989281402587203
500,0.0996355398653617
501,0.0990720139806341
502,0.101141217391633
503,0.102092711355137
504,0.100555249371452
505,0.103836746574772
506,0.103336039260351
507,0.10378049439263
508,0.104307040252375
509,0.104004899617786
510,0.10215249699013
511,0.103495581878202
512,0.102050508692749
513,0.0991423065353311
514,0.0986187045859746
515,0.0972258184997997
516,0.09666302328121
517,0.0969117520336932
518,0.0966930972220247
519,0.0988224373103486
520,0.100517373940529
521,0.10143394985024
522,0.102350525759951
523,0.103267101669663
524,0.10242893959517
525,0.102630563552594
526,0.102744074263711
527,0.102570358591015
528,0.103043194898925
529,0.104024556115976
530,0.10390178879236
531,0.104050556191885
532,0.103877994312877
533,0.10490502323365
534,0.104994542677137
535,0.103994117595815
536,0.104861269668078
537,0.104527906436002
538,0.10369886612784
539,0.10310891411564
540,0.103803938411571
541,0.103214302904395
542,0.102661041319809
543,0.103443857175913
544,0.103960805906476
545,0.103097223448427
546,0.104072520964306
547,0.103923279355864
548,0.103774037747423
549,0.103624796138981
550,0.103291511049799
551,0.104136022137657
552,0.104986794692278
553,0.103852148183509
554,0.103359475814733
555,0.104551911658328
556,0.103055762396025
557,0.102894364539471
558,0.102310579382883
559,0.101549622453086
560,0.102612237352172
561,0.100513934406306
562,0.102166633652378
563,0.100494601836787
564,0.100857951432434
565,0.0994432917869073
566,0.098898153835744
567,0.0976324922869233
568,0.098469136944814
569,0.0973422606225539
570,0.0971291389541031
571,0.0973481433516456
572,0.0972923074982088
573,0.0970570372220408
574,0.0977350743282009
575,0.0965483914926321
576,0.0971950791658286
577,0.097841766839025
578,0.0984884545122215
579,0.099135142185418
580,0.0997818298586144
581,0.101136787675231
582,0.100816250243544
583,0.101789311074646
584,0.100293584167449
585,0.100094217420934
586,0.0978576431898745
587,0.0969854693441933
588,0.0964585484348357
589,0.0959316275254782
590,0.0954047066161206
591,0.0961493762819022
592,0.0969577703882062
593,0.0969503076879583
594,0.0982011347087749
595,0.0984018661281202
596,0.0987809245458605
597,0.099041018376477
598,0.0989643265392775
599,0.0991114376839675
600,0.0999230746126754
601,0.10058240788593
602,0.101008917432246
603,0.100357798138398
604,0.101421736427753
605,0.100784679562037
606,0.101187817609717
607,0.10052908413778
608,0.0996063932322508
609,0.0995861336375898
610,0.0989268121858653
611,0.0985181184556896
612,0.0980011294695945
613,0.0976828964282618
614,0.0968383896707296
615,0.0985951637984708
616,0.0971161839491183
617,0.0983728534814607
618,0.0983618309264519
619,0.0984733286728678
620,0.0981451401835539
621,0.0987299486159557
622,0.0967661665189943
623,0.0966536976593902
624,0.0958325087491911
625,0.0950113198389919
626,0.0941901309287927
627,0.094233831629999
628,0.0941971931399693
629,0.0941116358577279
630,0.0954074910727655
631,0.0942740155766718
632,0.0954352098794944
633,0.0960950666254897
634,0.0969583677149733
635,0.0971498255737607
636,0.0966573476974119
637,0.0979223305990799
638,0.0974965175027959
639,0.0980841778122935
640,0.097828459078838
641,0.0978043404207455
642,0.0973584060329014
643,0.0970394347649659
644,0.0967204634970304
645,0.0964014922290949
646,0.0972382464146679
647,0.0972941460538915
648,0.0958411207648235
649,0.0975541318172206
650,0.0965579965934094
651,0.0968773256664459
652,0.0957365427770203
653,0.0945381347766942
654,0.0928872866575941
655,0.0943365178842595
656,0.0937816919899447
657,0.0950998428413134
658,0.0959097698923748
659,0.0978485630502665
660,0.098636955520675
661,0.0990647870329145
662,0.0991738740165258
663,0.0989363880170536
664,0.0982372264578353
665,0.0987245633206427
666,0.0988258273836787
667,0.099095567599135
668,0.0995748801813694
669,0.0976166751927441
670,0.0982229364802546
671,0.0980162027638052
672,0.097980313670421
673,0.0982361618779538
674,0.0987144469515911
675,0.0986483384046847
676,0.098464936689936
677,0.099253050740629
678,0.098322500493478
679,0.098576139255614
680,0.100590735454552
681,0.0984448223952484
682,0.0951353823550923
683,0.0927510955191382
684,0.0886003387455732
685,0.0853260821238118
686,0.0830555328243795
687,0.0821107117377849
688,0.0825140086263855
689,0.0840467358310136
690,0.086887381175391
691,0.0898700218050145
692,0.0916295013201597
693,0.0937504669321221
694,0.0956220483079595
695,0.0961683779471629
696,0.0985706118611115
697,0.0990818162529501
698,0.0986339449226181
699,0.0995974780568283
700,0.101691161151539
701,0.101838622646868
702,0.103878820323842
703,0.104282536295426
704,0.106359884113123
705,0.106557790507273
706,0.10857101748512
707,0.11001858074374
708,0.110535179961929
709,0.111607083888727
710,0.111053322844348
711,0.111255123330508
712,0.111434096380235
713,0.107558980924017
714,0.106247249451647
715,0.102216509521529
716,0.0995322901330255
717,0.0978988824417058
718,0.0975237075218374
719,0.0987862071228058
720,0.100212761205941
721,0.0990974515839164
722,0.101647486556465
723,0.101805657322242
724,0.101995423894016
725,0.102722611050823
726,0.102872882305509
727,0.104851680853442
728,0.10628959244689
729,0.108814317298681
730,0.110645598574164
731,0.113433554449568
732,0.115951858547264
733,0.118616128414144
734,0.1201843066243
735,0.120675472713644
736,0.122235821204395
737,0.122844796957058
738,0.12345377270972
739,0.124062748462383
740,0.125690911422529
741,0.126124966280679
742,0.126707983157198
743,0.127291000033718
744,0.127874016910238
745,0.128641078279846
746,0.128505787124858
747,0.128990536563371
748,0.12759195231121
749,0.128503120451658
750,0.128262737935267
751,0.127971447198909
752,0.1301466544911
753,0.128228917084018
754,0.123933627442082
755,0.113061915905326
756,0.102190204368571
757,0.0913184928318163
758,0.0758607402488883
759,0.0639736468164553
760,0.0587020754568661
761,0.0584164638314469
762,0.0619034580383188
763,0.0702413243538686
764,0.0800639610563756
765,0.0900737230829169
766,0.100431317978624
767,0.110452694103866
768,0.115829038723877
769,0.120366224125878
770,0.123756659913334
771,0.125475503904606
772,0.127020259092013
773,0.128553945354241
774,0.128178761006444
775,0.12852521065369
776,0.128797396769997
777,0.127654111826888
778,0.129316733812076
779,0.128120225488009
780,0.129794685354612
