"wavelength","measurement"
380,0.0203783781003013
381,0.0195670984160423
382,0.0195815125100673
383,0.0193156441711011
384,0.0196817384229739
385,0.020746004827779
386,0.0217645890813609
387,0.022829751134588
388,0.0237306305450784
389,0.0243244657966366
390,0.0243083223593149
391,0.0245293961922876
392,0.0249500666038235
393,0.0253171547371882
394,0.0264229908366732
395,0.0288668394314818
396,0.0319172273875367
397,0.0359301731684753
398,0.0399431189494138
399,0.0439560647303524
400,0.0456144095027699
401,0.0484249007008008
402,0.0506735704807898
403,0.0515401867235814
404,0.0525020986783014
405,0.0528916232938414
406,0.0548133710392099
407,0.0556666916013156
408,0.0565526230573254
409,0.0580472243156709
410,0.0612933099689944
411,0.0615095996941735
412,0.0638339925852237
413,0.0650791590390594
414,0.0649606717817042
415,0.0658199011021135
416,0.0654733467025829
417,0.0649428714446783
418,0.0661541762146821
419,0.0647855924802533
420,0.0667643472644009
421,0.0668421191786021
422,0.0671790813719066
423,0.0677359091828658
424,0.0677702309782439
425,0.0663625627484134
426,0.0655010876162142
427,0.0636732777204565
428,0.0623002744741864
429,0.0622265849981914
430,0.0628516408094879
431,0.0653705367666657
432,0.0682420218794422
433,0.0705448134614445
434,0.0733549362292035
435,0.0745492055059613
436,0.0755305198743846
437,0.0767728243473506
438,0.0780151288203166
439,0.0792574332932826
440,0.0798947805342896
441,0.0814919919427153
442,0.0830669408715391
443,0.0842889268688866
444,0.0857506955597682
445,0.0872124642506498
446,0.0886742329415313
447,0.090237154296646
448,0.0904427039064226
449,0.09355139357675
450,0.0927291780341744
451,0.0921683249418617
452,0.0921009089027043
453,0.092033492863547
454,0.0919660768243896
455,0.0922153818548283
456,0.0926586395842638
457,0.0936252309750214
458,0.0945152733980387
459,0.0958331520168105
460,0.0957985384517044
461,0.0950587270491421
462,0.0976548367643359
463,0.0947726305567701
464,0.09404768395346
465,0.0936010889575244
466,0.0925633845538276
467,0.0925840963563182
468,0.0923964830087838
469,0.0919516316763492
470,0.0942154053180889
471,0.0944812459329397
472,0.095160670368352
473,0.0965877424680915
474,0.0970294042596269
475,0.0983921698684385
476,0.0965275139739995
477,0.096704790591214
478,0.0968820672084284
479,0.0970593438256429
480,0.096989352214053
481,0.0948384772351353
482,0.092979641210001
483,0.0931811944053913
484,0.0912083653485236
485,0.090033807093318
486,0.0914633583601851
487,0.0924914192868307
488,0.0936622345402283
489,0.0962745306026755
490,0.0969355438201598
491,0.0976758452088651
492,0.0999562795154056
493,0.0986354921269242
494,0.10028371018236
495,0.0986492269729987
496,0.099124458330874
497,0.0973659719369332
498,0.0978494925941053
499,0.0958340248827134
500,0.0968180260420106
501,0.0961487256530619
502,0.09811472267456
503,0.0987598316771049
504,0.0978691075352279
505,0.100917753434217
506,0.100399355461361
507,0.100844679586486
508,0.10133428427117
509,0.10130130433935
510,0.0992432400911919
511,0.10079497349401
512,0.0994391516823064
513,0.0964430498915677
514,0.0960412183143652
515,0.0945646015254513
516,0.0940863351955225
517,0.0943784982513957
518,0.0943673696940805
519,0.0960225646208336
520,0.0979165544840459
521,0.0988079122780157
522,0.0996992700719855
523,0.100590627865955
524,0.099898727244385
525,0.100181310211485
526,0.100237367392508
527,0.100026420912241
528,0.10063450852825
529,0.101469408829159
530,0.101632794218838
531,0.101699087667
532,0.101346618815464
533,0.102533933469801
534,0.102949762323985
535,0.101803146473739
536,0.102797166263192
537,0.102002898420328
538,0.101346205381186
539,0.101038734514457
540,0.101497501451132
541,0.101046766002042
542,0.100434373294127
543,0.101085248129192
544,0.101655894208306
545,0.100908179607785
546,0.101685041037769
547,0.101630996003664
548,0.10157695096956
549,0.101522905935455
550,0.101373401385039
551,0.101944184098773
552,0.102881293790216
553,0.101864968550445
554,0.101347254683668
555,0.102491428191947
556,0.101046736942139
557,0.100887561463842
558,0.100246452769777
559,0.0995201635463251
560,0.100514358642446
561,0.0984934270117439
562,0.100235315601465
563,0.0986098342194481
564,0.0988640348872394
565,0.0975209646214252
566,0.0967746466757687
567,0.0956359433356042
568,0.0965030307882633
569,0.0952931370558133
570,0.095260053580414
571,0.0953348099828426
572,0.0953442694746831
573,0.0951658933610374
574,0.0959224263187785
575,0.0946776617265226
576,0.0953140432821774
577,0.0959504248378322
578,0.0965868063934871
579,0.0972231879491419
580,0.0978595695047967
581,0.0993471105200885
582,0.0988656968912363
583,0.0998844428344217
584,0.0981247494586748
585,0.0982430514528642
586,0.0960554050998695
587,0.0951307345954237
588,0.0946349628446014
589,0.0941391910937791
590,0.0936434193429569
591,0.0944938885579377
592,0.0953021415535
593,0.0950532279106713
594,0.0965571420396106
595,0.0965016200700593
596,0.0969738385671889
597,0.0973424921982869
598,0.0972362049881343
599,0.0974589359386197
600,0.0981190608953393
601,0.0986545963567092
602,0.0993932553531867
603,0.098758043878281
604,0.0996443182076009
605,0.0991226628469154
606,0.0991944958639228
607,0.0987497087755351
608,0.0977960663759701
609,0.0978679781454339
610,0.0973100896461646
611,0.0968125011346559
612,0.0961885171128987
613,0.0958793443366724
614,0.0953054973154295
615,0.0965076160491834
616,0.0955756977290928
617,0.0966112869335299
618,0.0963716028043747
619,0.0967276656930148
620,0.0963496054464925
621,0.0969943529787123
622,0.0951144232420431
623,0.0950158796652609
624,0.0942482075176357
625,0.0934805353700105
626,0.0927128632223853
627,0.0926875362781388
628,0.0924459321030497
629,0.0925090117123426
630,0.0938200947857576
631,0.0927991982944759
632,0.0937437160752876
633,0.0945106832169574
634,0.0949104420979063
635,0.0956336809944969
636,0.0948582637335084
637,0.0963265325725166
638,0.0957228995575049
639,0.0964946717812578
640,0.0959889812425668
641,0.095940044630418
642,0.0957610907679382
643,0.0953943600571841
644,0.0950276293464301
645,0.094660898635676
646,0.0952774117003111
647,0.0956120012544452
648,0.09428028748996
649,0.0957661319659874
650,0.0946725408547515
651,0.0951549114489842
652,0.094222492897656
653,0.092635957620279
654,0.0914557689173534
655,0.0924018129635311
656,0.0922089210649482
657,0.093376540410501
658,0.0942623372102598
659,0.0962237904663068
660,0.0969236614913036
661,0.0971778425058127
662,0.0974461484655994
663,0.0972924539045862
664,0.0965239417753567
665,0.0969143633347107
666,0.0971506614055522
667,0.0971694722166756
668,0.0977340488426357
669,0.0957387858733189
670,0.096681170548653
671,0.0964291551184922
672,0.0961288358688774
673,0.0965334690629087
674,0.0969235959534161
675,0.0966235949725783
676,0.0968262249859951
677,0.0975932499705215
678,0.0964271326580343
679,0.0965982748556497
680,0.0987776709533635
681,0.0968092784358306
682,0.0934368718070744
683,0.0911055919400889
684,0.0871796057442173
685,0.0838872247708983
686,0.0814955971236658
687,0.0806359851933617
688,0.0810343429851414
689,0.0826857305405116
690,0.085143363339321
691,0.0885175612145205
692,0.0900932787047855
693,0.0919040460545572
694,0.0944202794521532
695,0.0946432436747228
696,0.0966539659359214
697,0.0977612246753533
698,0.0970168107207831
699,0.098057957682239
700,0.100258815282924
701,0.100304303336045
702,0.102408619181082
703,0.103093772352603
704,0.104983349805303
705,0.10535609821406
706,0.10736441815054
707,0.108726142739326
708,0.108954359677128
709,0.110195940502068
710,0.10995561039328
711,0.10972116859099
712,0.110275639533208
713,0.106515933149781
714,0.105081033174683
715,0.100892847536626
716,0.0983073030455058
717,0.0970313342888439
718,0.0966228791109098
719,0.097989144156094
720,0.099337784399257
721,0.0978897044566661
722,0.100332011937447
723,0.10070277490045
724,0.101101329376838
725,0.101733027520648
726,0.101974622314983
727,0.103944092753025
728,0.105135311677538
729,0.107904895071064
730,0.109848905112278
731,0.112315076608627
732,0.115005397594352
733,0.117463660065044
734,0.118550002163459
735,0.119522414398623
736,0.12087175436984
737,0.121497802914804
738,0.122123851459769
739,0.122749900004733
740,0.12426054479327
741,0.124893810200015
742,0.125569068234651
743,0.126244326269287
744,0.126919584303923
745,0.127170883914012
746,0.126840037064775
747,0.127596994887499
748,0.126046194716062
749,0.127356250643192
750,0.127056414890403
751,0.126575326139482
752,0.128204997402878
753,0.127058231643915
754,0.122431588540559
755,0.111683953788504
756,0.100936319036449
757,0.0901886842843944
758,0.0749834537488907
759,0.0634452017100355
760,0.0579635696447122
761,0.0574364015828473
762,0.0611426735530511
763,0.069230654075945
764,0.0793426229397554
765,0.088813096003504
766,0.099158252546034
767,0.1086195435086
768,0.114607846885779
769,0.119086013895017
770,0.122062217663124
771,0.123623849455546
772,0.125480039267605
773,0.127087280355036
774,0.126410980127638
775,0.126858920479382
776,0.127047568623221
777,0.125859536582577
778,0.127636691363611
779,0.126511718042322
780,0.12778305049587
