"wavelength","measurement"
380,0.00713295295530126
381,0.00690943536753819
382,0.0067308552198622
383,0.00671585994361756
384,0.00676977375155833
385,0.00707699777506601
386,0.00740150851311952
387,0.00772703696839553
388,0.00809555857959385
389,0.00821735995369009
390,0.00817808704187668
391,0.00815875484084474
392,0.00827369501037087
393,0.00828851095276523
394,0.00844949651115526
395,0.00913177816808276
396,0.0100903940703282
397,0.0111508574242609
398,0.0122113207781935
399,0.0132717841321261
400,0.0138570864248209
401,0.0145656971885873
402,0.0151261832585526
403,0.0152286746648813
404,0.0152599551577515
405,0.0151761941269513
406,0.0154910742759408
407,0.0154505328165597
408,0.0154903290922671
409,0.0157295421543991
410,0.0164252865324567
411,0.0163227056032216
412,0.0167306563876945
413,0.0168709526428933
414,0.0168213031996276
415,0.016837536837577
416,0.0166146542185123
417,0.016427371828696
418,0.0164918191503102
419,0.0161210831617594
420,0.0165388936128447
421,0.0163934408516123
422,0.0165204630234838
423,0.0164943466592659
424,0.0165167658041489
425,0.016189172743487
426,0.0159269450369975
427,0.015418117390915
428,0.0150233902496557
429,0.0149946891725162
430,0.0150018639270965
431,0.0155189832766515
432,0.0160943733613897
433,0.0166971768957476
434,0.0172649332460746
435,0.0176255766439322
436,0.0177522778242194
437,0.0179872765470576
438,0.0182222752698959
439,0.0184572739927341
440,0.0186137589304541
441,0.0188361577694544
442,0.0192115246680476
443,0.0194462573619545
444,0.0197442796840179
445,0.0200423020060813
446,0.0203403243281447
447,0.0206271977527638
448,0.0206479085262287
449,0.0212719348383947
450,0.0211047420306726
451,0.020967918582544
452,0.0208618468031504
453,0.0207557750237568
454,0.0206497032443632
455,0.0206844504855291
456,0.0207156305174619
457,0.0208715744125629
458,0.0209840926113535
459,0.0212153690315109
460,0.0212836372047921
461,0.0209910727058437
462,0.0214820323234847
463,0.0208112369563164
464,0.0205615066213787
465,0.0203495165131147
466,0.0200351860773131
467,0.0199969110801251
468,0.0198102897375362
469,0.0196288925914753
470,0.0200281198373061
471,0.0199683196913843
472,0.0200457231075031
473,0.0201815488664307
474,0.0201742469646591
475,0.0204483675882608
476,0.0199579111817955
477,0.0199180846138928
478,0.0198782580459902
479,0.0198384314780875
480,0.0197555103860715
481,0.0192090434922457
482,0.0188594396732686
483,0.0187873017137098
484,0.0183242657109184
485,0.0180032631689362
486,0.0181781404928015
487,0.0183553506535698
488,0.0185522544026385
489,0.0190557268447369
490,0.0191084352225912
491,0.0192438640023012
492,0.0196628367508091
493,0.0194184094247208
494,0.0196734234567825
495,0.019350577205032
496,0.0194286751469417
497,0.0190323858203175
498,0.019077602073502
499,0.01871248483513
500,0.0188339351517171
501,0.0186580747203396
502,0.0189895906788714
503,0.0191396098407546
504,0.0188874163919787
505,0.0194867805373106
506,0.0193396224109783
507,0.0194088783917387
508,0.0194840676263902
509,0.0194419571925563
510,0.0191015637070597
511,0.0192887419632331
512,0.0191046389584444
513,0.0185417641339777
514,0.0183588043848708
515,0.0180417114797887
516,0.0179646044364682
517,0.0179236472431599
518,0.0178954333296722
519,0.0182270098154274
520,0.0185474649539116
521,0.0187172652868427
522,0.0188870656197738
523,0.0190568659527049
524,0.0189253805507167
525,0.0189318313781627
526,0.0189465645004711
527,0.0188365530116164
528,0.0189266669882559
529,0.0191204389816879
530,0.019110215653258
531,0.0191412727209234
532,0.019052435759322
533,0.019207468310423
534,0.019221341553798
535,0.0190674583777926
536,0.0192461182032907
537,0.0191041550198792
538,0.0189581781824959
539,0.0188500188185484
540,0.0189628977731109
541,0.0188340930060468
542,0.0186576092747775
543,0.0187389760144077
544,0.0188416004855103
545,0.0187250654363911
546,0.018832891261333
547,0.0187958263705959
548,0.0187587614798588
549,0.0187216965891218
550,0.0186571536973896
551,0.0187989723310159
552,0.0189181394282
553,0.0187149051158543
554,0.0186447863665071
555,0.0188399397357087
556,0.0185650608074111
557,0.0185340899430249
558,0.0184045198554688
559,0.0182430069533988
560,0.0184849628196946
561,0.0181212541176464
562,0.0184021326327225
563,0.0181094816812561
564,0.0181896761175789
565,0.0178961747808987
566,0.0178033995515503
567,0.0175968049269365
568,0.0176976036180871
569,0.0174731622779808
570,0.0174593062453103
571,0.0174371115630188
572,0.0174265480557523
573,0.0173922745342153
574,0.0174965023487803
575,0.0172230430789705
576,0.0173170854335588
577,0.0174111277881471
578,0.0175051701427354
579,0.0175992124973236
580,0.0176932548519119
581,0.0179240009557248
582,0.0178636936130259
583,0.0179673222273379
584,0.0176719824189417
585,0.0176810266809014
586,0.0172395448155667
587,0.0170495912576383
588,0.0169080388106207
589,0.0167664863636032
590,0.0166249339165856
591,0.0167226144616989
592,0.0168323708536137
593,0.0168455106222865
594,0.0170228392785156
595,0.0169646492241476
596,0.0170816133748426
597,0.0170484594481456
598,0.0170303810912467
599,0.017029635483267
600,0.0171226531385996
601,0.0171944518491851
602,0.0172940736832956
603,0.0171921117785025
604,0.0173556250825505
605,0.0172059125099527
606,0.0172272509869632
607,0.0171065354664957
608,0.0169310490921539
609,0.0169339712856043
610,0.0168451249957933
611,0.0167052304563116
612,0.0165856364425399
613,0.0164751436695999
614,0.0163536640751399
615,0.0165978137384875
616,0.0163659984734746
617,0.0165340076573572
618,0.0165155468512955
619,0.0165215688099508
620,0.0164522761763535
621,0.0165744799117342
622,0.0162206217168008
623,0.0161947785249693
624,0.0160380196671674
625,0.0158812608093655
626,0.0157245019515636
627,0.0156917049837466
628,0.0156680879572251
629,0.0156286367729088
630,0.01581522494695
631,0.0156237316397808
632,0.0157925189504869
633,0.0159480407234422
634,0.0160131216985832
635,0.0160978988323851
636,0.015956378484569
637,0.0161689336243745
638,0.0160668355792797
639,0.0161842903580228
640,0.0161032026779466
641,0.0160989961141101
642,0.016049321736263
643,0.015970870816561
644,0.015892419896859
645,0.0158139689771571
646,0.01592978470738
647,0.0159624891059031
648,0.0156900563351882
649,0.0159905655672149
650,0.0158020057569649
651,0.0158646216252707
652,0.0157276717075497
653,0.0154806563380266
654,0.0152158073727813
655,0.015354997153688
656,0.0152721481358152
657,0.0154362428894156
658,0.0155659187412753
659,0.0159005765163055
660,0.0160200530263522
661,0.016079049705258
662,0.0161398213372155
663,0.0160391183890436
664,0.015940391951132
665,0.0160186771721567
666,0.0159969738066708
667,0.0160555770423569
668,0.0160651826441829
669,0.0157733273367889
670,0.0158942920271493
671,0.0158497624927673
672,0.0158266302599937
673,0.0158767763121873
674,0.0159023995186264
675,0.0159240893926591
676,0.0159157631880563
677,0.0160456908319047
678,0.0158839358726041
679,0.0158262305881447
680,0.016288286233353
681,0.0159409862149477
682,0.0154558133770478
683,0.0150576092195395
684,0.0144120579086559
685,0.0138845058200153
686,0.0134691455266045
687,0.013249096938741
688,0.0132461149566033
689,0.013493324067207
690,0.0138587151503551
691,0.01438889151184
692,0.014668068161516
693,0.0149487669569153
694,0.0152357117511983
695,0.0153010365500986
696,0.0156017248478736
697,0.0156908498483421
698,0.0155572719312952
699,0.0156798282215432
700,0.0159705435342796
701,0.0159102440370176
702,0.0162149703635471
703,0.0162485085357104
704,0.0165094822184803
705,0.0165300133834285
706,0.016786759614994
707,0.0169641784842501
708,0.0169734052293696
709,0.0171607765955711
710,0.0169687484509752
711,0.0170270850363974
712,0.0170961203950531
713,0.0165100569673339
714,0.0162410337274975
715,0.0156607724391801
716,0.0152116898183439
717,0.0148433448435193
718,0.0148227316096175
719,0.0149145803715305
720,0.0150930611065826
721,0.0149435665535687
722,0.0153217577303891
723,0.0153130569624079
724,0.0152998772240213
725,0.0153990419268555
726,0.0153594998292454
727,0.0156700373480748
728,0.0158440205029116
729,0.0161737899381495
730,0.0164700056591652
731,0.0168407445623558
732,0.0171634729432325
733,0.0176024090534909
734,0.0178208134702866
735,0.0178387949899227
736,0.0180914155492991
737,0.0181750800518712
738,0.0182587445544432
739,0.0183424090570152
740,0.0185752249468526
741,0.0186705566378299
742,0.0187605990544413
743,0.0188506414710527
744,0.0189406838876641
745,0.0190116941965189
746,0.0189652739013466
747,0.0190802731437612
748,0.0188378821853769
749,0.0189722890689133
750,0.0189803379659854
751,0.0189347985645227
752,0.0192454225670113
753,0.0190126102219782
754,0.0185458097367314
755,0.0170477622719911
756,0.0155497148072508
757,0.0140516673425105
758,0.0118132091180463
759,0.00992854035585573
760,0.00900284255642901
761,0.00881952658528057
762,0.00921040171435252
763,0.0103116550113617
764,0.0117390617287789
765,0.0131925268257709
766,0.0147758765129814
767,0.0162631664385827
768,0.0172094240043947
769,0.0178131473833163
770,0.0184130478838199
771,0.0186450014619133
772,0.0189345354206086
773,0.0192225721284548
774,0.0191192078742241
775,0.0192192540963198
776,0.0192410411255992
777,0.0190729231331709
778,0.0193834671635314
779,0.0191302506472866
780,0.0195236439921961
