"wavelength","measurement"
380,0.0146222414006874
381,0.0139156432858524
382,0.0137057879505537
383,0.0135175521181727
384,0.0133888834304164
385,0.0140727182726373
386,0.014723020086688
387,0.0152996521194851
388,0.0158614098744202
389,0.016339972085895
390,0.0161494824056709
391,0.0159928094389312
392,0.0159700431220578
393,0.0160555816478343
394,0.016128795426007
395,0.0170155389801659
396,0.0187250706776299
397,0.0206516838230674
398,0.0225782969685049
399,0.0245049101139424
400,0.0255853867390801
401,0.0270247609720381
402,0.0279767227651702
403,0.0281566512511567
404,0.0282451241418647
405,0.0279949881486053
406,0.0285058006099459
407,0.0285782518942719
408,0.0286472603127564
409,0.0290550415611366
410,0.0302892693711382
411,0.0303552219908813
412,0.0312042143401903
413,0.0319150851155839
414,0.0318890477104554
415,0.0323674975035859
416,0.0321469437297544
417,0.0320133359636077
418,0.0324721257594718
419,0.0318633258674898
420,0.0325985519410449
421,0.032432549501679
422,0.0328485860717022
423,0.0330261971038063
424,0.033221355416475
425,0.0326119090945465
426,0.0323886448851998
427,0.0316634188278737
428,0.0306571988337884
429,0.030594832012113
430,0.0305508334950726
431,0.0315680078842974
432,0.0324939058047184
433,0.0336655896621172
434,0.0351399636903954
435,0.0358549660299621
436,0.0362429790328911
437,0.0368117428543349
438,0.0373805066757787
439,0.0379492704972224
440,0.038126950662688
441,0.0387626006469554
442,0.0397227112168829
443,0.039991677492807
444,0.0405598510929788
445,0.0411280246931505
446,0.0416961982933222
447,0.0423194841470497
448,0.042294149214366
449,0.0439600016817226
450,0.0434847898219272
451,0.0432133475583094
452,0.0429613796249093
453,0.0427094116915091
454,0.0424574437581089
455,0.0423012200200802
456,0.0422574233688706
457,0.0425713628302811
458,0.042730183099246
459,0.0432959606501128
460,0.0431035880873681
461,0.0427367614419781
462,0.0438594840013505
463,0.0426870110159175
464,0.0422134353492071
465,0.041806111518022
466,0.0411650336369238
467,0.0410445270405197
468,0.0405786565822395
469,0.0401851124073927
470,0.0409842827684346
471,0.0408537748501793
472,0.0410689680223419
473,0.0415648590390557
474,0.0416429769521988
475,0.0422754653514969
476,0.0413387081866121
477,0.0412857613040732
478,0.0412328144215343
479,0.0411798675389955
480,0.0410013473429146
481,0.0399885377417455
482,0.0392752474497735
483,0.0389778366078715
484,0.0378432124929955
485,0.0369714656921941
486,0.0371590533048948
487,0.0374028663538854
488,0.0376913070376015
489,0.0386895696749389
490,0.0388450239166071
491,0.0391734564369126
492,0.0400610610486445
493,0.0396526940691005
494,0.0402369989103416
495,0.039781846716906
496,0.0400147849719258
497,0.0393607881185693
498,0.0395006773642517
499,0.0386227868017853
500,0.038820462305112
501,0.0385603389836311
502,0.0390659214956906
503,0.0393862367973775
504,0.0389965417879529
505,0.0402380632620182
506,0.0400802347898482
507,0.040305886792743
508,0.0404867557769193
509,0.0405248790025683
510,0.0398784238852694
511,0.0405195813443857
512,0.0403452900033613
513,0.039166123438724
514,0.038993496867265
515,0.0383304695284975
516,0.0380965237216898
517,0.038073233960755
518,0.0379463500234393
519,0.0387434757022168
520,0.0395382359612963
521,0.0400991497563047
522,0.0406600635513131
523,0.0412209773463215
524,0.0410600120235814
525,0.0411786268635273
526,0.0414367087648943
527,0.0413101804921085
528,0.0415966253798546
529,0.0422066780723981
530,0.0422665769165217
531,0.0423976943062834
532,0.0423521628721987
533,0.0427517856732628
534,0.0429447454117721
535,0.0423710708690582
536,0.0429152009834884
537,0.0427448505307614
538,0.0424022176148937
539,0.0421397529743629
540,0.0423003692233057
541,0.0420218461709278
542,0.0419085061786374
543,0.0420939606219149
544,0.0424026139926604
545,0.0420515145755571
546,0.042440583230419
547,0.0424074283759415
548,0.042374273521464
549,0.0423411186669864
550,0.042036284213741
551,0.0423720795938328
552,0.0428041917902491
553,0.0423866123046873
554,0.0422422470051445
555,0.0426160209720381
556,0.0421531364848926
557,0.0420825991064766
558,0.0417594014660185
559,0.041414442876125
560,0.0418460583590522
561,0.0411110684659533
562,0.0418793814032472
563,0.0412339522853154
564,0.0415343343423648
565,0.0408902484885682
566,0.0407136537546976
567,0.0401757959885977
568,0.0404646201449408
569,0.0399368871729611
570,0.0399232141571459
571,0.0400485050396279
572,0.0400353878195886
573,0.0399393050433565
574,0.0402198720098517
575,0.0396697092137788
576,0.0397330030625986
577,0.0397962969114184
578,0.0398595907602381
579,0.0399228846090579
580,0.0399861784578777
581,0.0404493010494461
582,0.0401679817090678
583,0.0403755694642378
584,0.0396585041984334
585,0.0396510115751386
586,0.0385390427269607
587,0.038043036393218
588,0.0376073807422902
589,0.0371717250913625
590,0.0367360694404347
591,0.036917394076108
592,0.037270723011551
593,0.0372979942738721
594,0.0378786165769701
595,0.0377581986865087
596,0.037986421314706
597,0.0381746009328697
598,0.0381749336061959
599,0.0381801854346787
600,0.0384763660525956
601,0.0386362385660277
602,0.0388340900494006
603,0.0386915907743149
604,0.038950880248388
605,0.0387587174686192
606,0.0388298920563664
607,0.0386266595063891
608,0.038112615278823
609,0.0380896765222439
610,0.0377479133624035
611,0.0375022187300631
612,0.0372124505650223
613,0.0370330295047697
614,0.0365903636577654
615,0.0370243786734795
616,0.0365330474755963
617,0.0368229788411136
618,0.0368381864061553
619,0.0369095215800216
620,0.0368562107303017
621,0.037035037528083
622,0.0363746708524553
623,0.036340589638757
624,0.0361272394600368
625,0.0359138892813167
626,0.0357005391025966
627,0.0357407009366776
628,0.0356385593710417
629,0.0355463709936731
630,0.0357684836171487
631,0.0352407800319535
632,0.0355001814344449
633,0.0356439231028726
634,0.0356801731829656
635,0.0357875027098926
636,0.0354717163085538
637,0.0358362562906769
638,0.0355737174956158
639,0.0356895821744634
640,0.0354732077358943
641,0.0353368438780281
642,0.0351172825039816
643,0.0348806520491081
644,0.0346440215942346
645,0.034407391139361
646,0.0344807033041195
647,0.0344333042282708
648,0.0337853935256679
649,0.0343655210282296
650,0.033950777018489
651,0.034267829309993
652,0.0338901154840832
653,0.0332790284742615
654,0.0327010841383277
655,0.0330402841825409
656,0.0325679185699396
657,0.0329104114217296
658,0.0332682222281895
659,0.034125576994136
660,0.0344038006509763
661,0.0346213407224689
662,0.0347085966972989
663,0.0345612433463393
664,0.0343344021158105
665,0.0344740923486731
666,0.0345405814765303
667,0.0346263807579183
668,0.0346750209022252
669,0.034071670242619
670,0.0342424983485169
671,0.034224045398424
672,0.0340173759902834
673,0.0340814484270248
674,0.0341969681161939
675,0.034216111346719
676,0.0341976525921913
677,0.0344440496147199
678,0.0340781677537608
679,0.0341235073578342
680,0.0348369971164024
681,0.0343497375169344
682,0.0337621870743453
683,0.0331890284021495
684,0.0323721488042638
685,0.0316531602029971
686,0.0311230860429399
687,0.0306903229609412
688,0.0304318766412152
689,0.030707283582332
690,0.0313156126218085
691,0.0318886304991458
692,0.0321933797926128
693,0.0326772355415134
694,0.0332280181565843
695,0.0334584293711213
696,0.0342248314664999
697,0.034758300386918
698,0.0345910489491909
699,0.0350288826073687
700,0.0359274895220121
701,0.0359738618268238
702,0.0369361359740203
703,0.0372966313226645
704,0.0383694393779609
705,0.0387550144103807
706,0.0398027446273604
707,0.0405827917130147
708,0.0411444153628822
709,0.0420583407276075
710,0.0420698714871115
711,0.0426205675404494
712,0.0432199379416244
713,0.0421581690125306
714,0.041858867761745
715,0.0403417087039935
716,0.0391582827605352
717,0.0384689955506229
718,0.038500723475953
719,0.0392652477604769
720,0.0401308530064741
721,0.0404315741817721
722,0.0422218581451298
723,0.0425091560377307
724,0.043008675874783
725,0.0436540411841966
726,0.044058558925621
727,0.0453954947466172
728,0.0463959862256613
729,0.0479864263345954
730,0.0495811998634619
731,0.0516548719145036
732,0.0536419303700302
733,0.0557219111832309
734,0.0574481084378614
735,0.0582383048036817
736,0.0597042035294198
737,0.0606016144683909
738,0.061499025407362
739,0.0623964363463332
740,0.064240221937363
741,0.0650588007042962
742,0.0659415125588493
743,0.0668242244134024
744,0.0677069362679555
745,0.0684002386348449
746,0.0687124487643719
747,0.0694822287481582
748,0.0689813191905598
749,0.0697437337202188
750,0.0701600352412785
751,0.0700782259645919
752,0.0712350019377128
753,0.0710238053194123
754,0.0703360659084948
755,0.0663839208373669
756,0.062431775766239
757,0.058479630695111
758,0.0520155031222841
759,0.0462102198227061
760,0.0421846590411029
761,0.0414337733094404
762,0.0428404053992032
763,0.0457715014216081
764,0.0499360685587556
765,0.0537806553384212
766,0.058783694023956
767,0.0634122337453351
768,0.0660124591855276
769,0.0679982067664059
770,0.0697521105033628
771,0.0704246019874855
772,0.0712781146302478
773,0.0721501040075221
774,0.0717019205559614
775,0.0718976548413653
776,0.0722769469377721
777,0.0715059581920023
778,0.0724804616556428
779,0.0718919773775447
780,0.0729233341269968
