"wavelength","measurement"
380,0.018614253342077
381,0.0177652993654709
382,0.0174718942658715
383,0.0176387453685869
384,0.0175634183858204
385,0.0184813043636672
386,0.0194572615804508
387,0.0205876392003797
388,0.0211745065062301
389,0.0219693264896851
390,0.0223426759819382
391,0.0221048529954548
392,0.0224042873421286
393,0.022696324117956
394,0.0232797123881421
395,0.0248991777550286
396,0.0274990915140998
397,0.0311049445837582
398,0.0347107976534166
399,0.038316650723075
400,0.040383483795228
401,0.0428707265542733
402,0.0449535609376396
403,0.0458808446379742
404,0.0466279975468547
405,0.0470581798519401
406,0.0481544573367815
407,0.049071047758601
408,0.0497758419799016
409,0.0512998296141918
410,0.0535025793745443
411,0.0542369533327884
412,0.0558615751540004
413,0.0575343691189514
414,0.0576227226942825
415,0.0583128894865476
416,0.0582909316011079
417,0.0578687145888463
418,0.0587892422417536
419,0.0576281181931381
420,0.0591298872355624
421,0.0588153535301927
422,0.0592825534543006
423,0.059696225358903
424,0.0598285266885203
425,0.058869628271924
426,0.0581229037579734
427,0.0565521708742262
428,0.0549451848707168
429,0.0542672682690709
430,0.0543431249774983
431,0.0559846043904549
432,0.0580612118214198
433,0.0599937587989838
434,0.0622010683211876
435,0.063354216193775
436,0.063963685816097
437,0.0648188410439101
438,0.0656739962717232
439,0.0665291514995363
440,0.0671383262036492
441,0.0681030183115472
442,0.0695667253863072
443,0.0698308764829513
444,0.0706883382913842
445,0.071545800099817
446,0.0724032619082498
447,0.0733867677566284
448,0.0733303724844163
449,0.0761103974957296
450,0.0753991811654706
451,0.0747768824827601
452,0.0743736199246631
453,0.0739703573665661
454,0.073567094808469
455,0.073447535289496
456,0.0732567843544577
457,0.0737644472589972
458,0.0743427586819483
459,0.0753438718102987
460,0.0750975553342273
461,0.0743712598568143
462,0.0763289341078991
463,0.0740989174573105
464,0.0732412062050298
465,0.072621865502
466,0.0718111934843429
467,0.0714337182482086
468,0.0709498165741526
469,0.0701589894158937
470,0.071640031257438
471,0.0716076434086206
472,0.0720109320611005
473,0.0731140015448713
474,0.0731502483211116
475,0.0745427135802656
476,0.0726056317597991
477,0.0727382348629852
478,0.0728708379661714
479,0.0730034410693576
480,0.0727521316539156
481,0.0710450793993716
482,0.0698270271737531
483,0.0694231829823301
484,0.0675216844637518
485,0.0656961638823239
486,0.0660739156045858
487,0.0666133544607215
488,0.0672557281329528
489,0.0688033163348623
490,0.0689680295046981
491,0.0696384575586945
492,0.0712877061622571
493,0.0702352962269262
494,0.0713893816166416
495,0.0704371836875333
496,0.0705874490477403
497,0.0691584326458502
498,0.0695870328648273
499,0.0680376283180069
500,0.0683639374646227
501,0.0675337814151632
502,0.068800231990915
503,0.0688772894628034
504,0.0682577305407076
505,0.0702974214163471
506,0.0698787577312007
507,0.0703398995209267
508,0.0705558252984893
509,0.070588378425342
510,0.0693513897848459
511,0.0704691989630932
512,0.0697384873605943
513,0.067887568377796
514,0.0674433874068736
515,0.0662400368442072
516,0.0657645387384133
517,0.0655012977375815
518,0.0653211979265262
519,0.0667918796101121
520,0.067919755598999
521,0.0687671702449036
522,0.0696145848908081
523,0.0704619995367127
524,0.0701157531434231
525,0.0702979090094434
526,0.0707151617256761
527,0.0704420065305354
528,0.0706544999363906
529,0.0718395454343472
530,0.0717275267221608
531,0.0719727638680757
532,0.0719224861702307
533,0.0724431598651151
534,0.0726067084685486
535,0.071799958836541
536,0.0724968865904632
537,0.0721468274647895
538,0.0716094949017819
539,0.0710904324515684
540,0.0713333455420348
541,0.0708387189463968
542,0.0705896220803372
543,0.070800863872366
544,0.0712694123312008
545,0.0708383253622336
546,0.0714238236242519
547,0.0714012228781151
548,0.0713786221319783
549,0.0713560213858415
550,0.07073690657315
551,0.0712450156978733
552,0.0718193791397251
553,0.070998388363758
554,0.0708343099894515
555,0.071462303698816
556,0.0704982730276631
557,0.0702725315632351
558,0.0697966251906005
559,0.0690603182496961
560,0.0697584805698159
561,0.068531901255461
562,0.0695362689888325
563,0.0686534206138756
564,0.0688578706335388
565,0.0678475317684992
566,0.0675979014317682
567,0.0666188488419185
568,0.0667879222012985
569,0.066200236227827
570,0.065971509105456
571,0.0662392542939301
572,0.0661414187534403
573,0.0661616249895121
574,0.0663395879506194
575,0.065576406018024
576,0.0656951976908779
577,0.065813989363732
578,0.0659327810365859
579,0.0660515727094399
580,0.0661703643822939
581,0.067027838028851
582,0.066652718086342
583,0.0669418739761922
584,0.0659347688602022
585,0.0655681175351005
586,0.0638255574975764
587,0.0628893753155996
588,0.0622579733608618
589,0.061626571406124
590,0.0609951694513862
591,0.0611903827296661
592,0.0617679226533715
593,0.0619961725860372
594,0.0628704144630128
595,0.0629133022944764
596,0.0633145083275883
597,0.0636788900059904
598,0.0636952764702347
599,0.0638509417007877
600,0.0644367067444341
601,0.0646568922021986
602,0.0649401554711451
603,0.0648058944965484
604,0.0654030790496089
605,0.0651263342757811
606,0.0650727113432021
607,0.0649477489485648
608,0.0639203038318179
609,0.0641119227807541
610,0.0635144621821237
611,0.0629958333616737
612,0.0625464129720699
613,0.0623810661714108
614,0.0615830502636516
615,0.0624369860024539
616,0.0616116824412711
617,0.0619073985073682
618,0.0619375372991652
619,0.0621727353195779
620,0.0619037504196168
621,0.0622943875564102
622,0.0613534892625773
623,0.0612532917839514
624,0.0609058845461987
625,0.0605584773084459
626,0.0602110700706932
627,0.0601845921958443
628,0.060107863853122
629,0.0599029667792806
630,0.0604246520297481
631,0.0594705487857673
632,0.0597770384637589
633,0.0600285268217085
634,0.0601888686685643
635,0.0604708441682809
636,0.0599997790916674
637,0.0605587079083914
638,0.0600415785438616
639,0.0604042724232882
640,0.0598853923201118
641,0.0597435948156765
642,0.059479866626613
643,0.059080396886478
644,0.058680927146343
645,0.0582814574062081
646,0.0586343490853952
647,0.0584213742536044
648,0.0573961166509514
649,0.0584026354657382
650,0.0578632671362702
651,0.0584604145594195
652,0.0576019345301187
653,0.0569810246465662
654,0.0559740906714346
655,0.0565798056487587
656,0.0558578548951702
657,0.0565971255280148
658,0.0571707898991193
659,0.0586479900159054
660,0.059196831130286
661,0.0593964401297104
662,0.0597848350203491
663,0.0596817124746289
664,0.0595744417456506
665,0.0596815849216574
666,0.0597290102035002
667,0.0600792252581324
668,0.0601430279368817
669,0.0592553006891847
670,0.0595654019297486
671,0.0595062920600049
672,0.0592284402755385
673,0.0596897784639751
674,0.0598397872940426
675,0.0600016609512314
676,0.0598476079497314
677,0.060373734841737
678,0.0598213779942119
679,0.0598840352929493
680,0.0613823207344741
681,0.0605173381909556
682,0.0593213102461458
683,0.0584358621176544
684,0.0571229103638071
685,0.0557533369326424
686,0.0549284778213963
687,0.0540862910064073
688,0.0538551998284576
689,0.0540913499266115
690,0.0552155015406595
691,0.0562850841922274
692,0.0570120830689836
693,0.0580041996303022
694,0.058845795822924
695,0.0594787750742478
696,0.0610418643273312
697,0.0618285171010776
698,0.0616180402082995
699,0.0621511947587953
700,0.0638225250574194
701,0.064011227763575
702,0.065826448058643
703,0.0665624442190687
704,0.0682911461191479
705,0.0691126077576742
706,0.0707325460765197
707,0.0721098705901518
708,0.0731790182995191
709,0.0749881489978587
710,0.0749523330458098
711,0.0760420133415727
712,0.0771658045444686
713,0.0751930224673581
714,0.0743278964128603
715,0.0715523090904591
716,0.0695261129565624
717,0.067796816092563
718,0.0679526773254027
719,0.0692459805966265
720,0.0709387931764351
721,0.0714738478645641
722,0.0742137120454063
723,0.0747350277804187
724,0.0754558430270488
725,0.0763279305127276
726,0.0770654138452705
727,0.0792536503815957
728,0.0810655690461067
729,0.0838815188604804
730,0.0863183559557955
731,0.0898151378760178
732,0.0931691317258458
733,0.0966164361510689
734,0.100029151119671
735,0.101302835638895
736,0.103253091028529
737,0.104833291236705
738,0.106413491444881
739,0.107993691653057
740,0.110630502325694
741,0.112075559953839
742,0.113476515415529
743,0.114877470877219
744,0.116278426338909
745,0.117603166567887
746,0.11776172317039
747,0.119444126337764
748,0.118537584409268
749,0.119847098624806
750,0.120339314777695
751,0.12000042441055
752,0.122204971735231
753,0.12142157950788
754,0.120701974102482
755,0.113983309304965
756,0.107264644507448
757,0.10054597970993
758,0.089470222898749
759,0.0794697682569826
760,0.0721460638578125
761,0.071029643582671
762,0.07342424852057
763,0.0784226582227165
764,0.0853223608399766
765,0.0922863088126246
766,0.100603289775293
767,0.108600822640297
768,0.113398792578082
769,0.116237182858349
770,0.119207865879239
771,0.120757557788192
772,0.122321441205069
773,0.123814912618544
774,0.123015653792294
775,0.123767982791241
776,0.123891237284474
777,0.122553883346896
778,0.124562962309527
779,0.122961518542807
780,0.124941235319133
