"wavelength","measurement"
380,0.0264702253492312
381,0.0253609319096255
382,0.0250088031321055
383,0.0242926377143709
384,0.0242861869006721
385,0.0254500549723056
386,0.0266014908992007
387,0.0275981874077363
388,0.0287362231659285
389,0.0293488719199535
390,0.0292247078748777
391,0.0288709814689751
392,0.0288151813897605
393,0.0288782570504196
394,0.0291416551837439
395,0.0304374000169336
396,0.0336235534718365
397,0.0370192668279136
398,0.0404149801839906
399,0.0438106935400677
400,0.0456087343539328
401,0.0481259306619577
402,0.0496430333092973
403,0.0498711994131674
404,0.0499802396177159
405,0.0498055072391366
406,0.0505554693608515
407,0.051086234851292
408,0.051452609074317
409,0.0524262929493435
410,0.0548985787013982
411,0.0552942233711513
412,0.0572638675252606
413,0.0588256006772198
414,0.0593931520217947
415,0.060683491101733
416,0.0606965352252827
417,0.0608744549187759
418,0.0625082959895167
419,0.0619277463342863
420,0.0639061721173053
421,0.0642445633519647
422,0.0652694271647074
423,0.066147804914921
424,0.0669085569921659
425,0.0660119577318699
426,0.0656985271146034
427,0.0644413258697926
428,0.0627547041963426
429,0.062805945535752
430,0.0629815903295985
431,0.0654159352406889
432,0.0678338882853101
433,0.0699373602577497
434,0.0731548492439137
435,0.0749481169883933
436,0.0756552621586268
437,0.0768941005220189
438,0.078132938885411
439,0.0793717772488031
440,0.0798198710444053
441,0.0809834287849734
442,0.0827107196686165
443,0.0831645142766712
444,0.0840814210271574
445,0.0849983277776437
446,0.0859152345281299
447,0.0869185010659975
448,0.0868061892619903
449,0.0899368394974079
450,0.0890320826085222
451,0.0881960345795189
452,0.0878076424599734
453,0.087419250340428
454,0.0870308582208825
455,0.0867935990827482
456,0.0868074889309639
457,0.0876203353833365
458,0.0879739519848518
459,0.0891525054505183
460,0.0891576009364266
461,0.0882389968245315
462,0.0908296380385544
463,0.0883122313274067
464,0.0872890955829748
465,0.0867881278760484
466,0.0855607518997943
467,0.0854824894812288
468,0.0846883807895506
469,0.083941616909059
470,0.0856365507112066
471,0.08547012673945
472,0.0858548298877723
473,0.0868908544240281
474,0.0871682052963469
475,0.0882951483284163
476,0.0863743631998395
477,0.0863075336907998
478,0.0862407041817602
479,0.0861738746727205
480,0.0859401762099195
481,0.0837639898469009
482,0.0823114030730347
483,0.0816984012005649
484,0.0795523993244995
485,0.0777536797440747
486,0.0782947427437563
487,0.0786787584696725
488,0.0792853402679476
489,0.0812786915213863
490,0.0818752834566188
491,0.0824871569957804
492,0.0842748896129197
493,0.0834132818308739
494,0.0846982282253177
495,0.0836981326141219
496,0.0841044198968083
497,0.082875453393648
498,0.083402703580137
499,0.0816874508502744
500,0.0822695672449958
501,0.0815616166603443
502,0.0830016069498097
503,0.0835155402228871
504,0.0826637937158553
505,0.0854738353043732
506,0.0852471989385113
507,0.0857663508207998
508,0.0863736804047432
509,0.0865657298636942
510,0.0853964567412565
511,0.0866914546137002
512,0.0864496857040544
513,0.0841575689533286
514,0.0840435696792618
515,0.0828639594838795
516,0.0825248059576619
517,0.0826043706729619
518,0.0825990421998893
519,0.084566408827718
520,0.086316106171317
521,0.0876602245794368
522,0.0890043429875566
523,0.0903484613956764
524,0.0902068235611992
525,0.0906864418286505
526,0.0914938749725038
527,0.0912142927333245
528,0.0920492208623976
529,0.0935702726781773
530,0.0938948321597285
531,0.094374738879348
532,0.0943252927193138
533,0.0953287113210596
534,0.0957553084205818
535,0.0949628569038903
536,0.096151137734679
537,0.0957112981055495
538,0.0952127224522296
539,0.0948675195134026
540,0.0954765636585449
541,0.0950354916327973
542,0.094611489344396
543,0.0953514152367799
544,0.095977029248951
545,0.0956414503647229
546,0.0964735400681888
547,0.096482328199743
548,0.0964911163312971
549,0.0964999044628513
550,0.0959936703045786
551,0.096854898960927
552,0.0977962758541239
553,0.0969779233101219
554,0.096822580964995
555,0.0977951506869749
556,0.096507008326062
557,0.0964631264315344
558,0.0959059259847176
559,0.0950928721142431
560,0.0962400875400284
561,0.0947596418920663
562,0.0963538880320631
563,0.0950379498490958
564,0.0955353443442924
565,0.0944076164596705
566,0.093938265197881
567,0.0928950758160473
568,0.0934880377723442
569,0.0924046588436185
570,0.092372061530193
571,0.0925522202866364
572,0.0925126797782551
573,0.0922993697369701
574,0.092905715633025
575,0.0915918426511567
576,0.0917457584494402
577,0.0918996742477237
578,0.0920535900460072
579,0.0922075058442907
580,0.0923614216425742
581,0.093401402974856
582,0.0927506729320328
583,0.0931751456092641
584,0.0917240117841698
585,0.0914502291822739
586,0.0889681402158145
587,0.0878697767770959
588,0.0870276079275865
589,0.0861854390780772
590,0.0853432702285678
591,0.0856939291434988
592,0.0865612988691513
593,0.0867349584923184
594,0.087980674573875
595,0.0878483188563829
596,0.0885410087746721
597,0.0887874217732456
598,0.0888436153480382
599,0.0888984117582144
600,0.0896992260193907
601,0.0899862259475386
602,0.0905017341010836
603,0.0902370867330763
604,0.0912103383956796
605,0.0906540294559621
606,0.0907685922076046
607,0.0903377717115936
608,0.0892960633234049
609,0.0893282015970873
610,0.0886771704456618
611,0.0882806072619822
612,0.0874449275759947
613,0.0872299866759564
614,0.0861526300171464
615,0.0873195366334615
616,0.0861999936626537
617,0.0868873852074851
618,0.086951952589609
619,0.0873176614419563
620,0.0871602024397885
621,0.0876802991083977
622,0.0862262347173816
623,0.0861479827475776
624,0.0858068676720399
625,0.0854657525965023
626,0.0851246375209646
627,0.0852171077912968
628,0.0850907320229461
629,0.0847561096476698
630,0.0855785294732942
631,0.0843453626912188
632,0.0849450635746987
633,0.0855511642915722
634,0.0854682371785219
635,0.0859917534310876
636,0.0851276323958311
637,0.0860945619499883
638,0.0854585300705907
639,0.0856234385701742
640,0.0851888533867857
641,0.0849811690397939
642,0.0842627296645523
643,0.0837951640454383
644,0.0833275984263244
645,0.0828600328072104
646,0.0830691888005871
647,0.0829172538874075
648,0.0813559503213419
649,0.0827268184558923
650,0.081745399245737
651,0.0826004941803883
652,0.0817261968845121
653,0.0804939936670771
654,0.0790739222179029
655,0.0797750776579632
656,0.0787808877371936
657,0.079528094887208
658,0.0803695551390817
659,0.0823625003437042
660,0.0830492373340924
661,0.0834160186535638
662,0.08373800444737
663,0.0833780802724459
664,0.0828396052445042
665,0.0831048871564583
666,0.0832394848021598
667,0.0833239308419204
668,0.0835743831507138
669,0.082165735988905
670,0.0824890433441423
671,0.0824609323255392
672,0.0819838833347063
673,0.0822726968280496
674,0.0826491242890711
675,0.0826458956001525
676,0.0826737012320895
677,0.0833732278962429
678,0.0824365808183682
679,0.0825855598378713
680,0.0845821461017406
681,0.0833866724703188
682,0.0820810114228651
683,0.0810560818568026
684,0.079033799187856
685,0.0775116745091283
686,0.0765136917994164
687,0.0754873983263965
688,0.0755135037740762
689,0.0762412650060401
690,0.0779403696432238
691,0.0801052214052228
692,0.081150997036585
693,0.0825605937887832
694,0.0845673509194582
695,0.085470237666143
696,0.0878952692032703
697,0.0897125853104557
698,0.0898148829019551
699,0.0912140906807722
700,0.0940236412119064
701,0.0946247003622206
702,0.0975532691695904
703,0.0991025546960276
704,0.102104049864375
705,0.103672452496437
706,0.106249771093306
707,0.108873225878287
708,0.110584549027156
709,0.113325470118509
710,0.1137164647239
711,0.115297729228792
712,0.117433869052969
713,0.114710795119538
714,0.114199723457488
715,0.110170834387242
716,0.107044274813839
717,0.104979320974259
718,0.105128214089918
719,0.107342866351975
720,0.109719894987474
721,0.110286867833724
722,0.11504841329244
723,0.11607530915845
724,0.116949844017082
725,0.1186436171548
726,0.11948022529159
727,0.122586960923237
728,0.125155745632171
729,0.129157268743776
730,0.132988622911954
731,0.137814526938465
732,0.14258172986083
733,0.147753746018296
734,0.151528193131685
735,0.153483965870478
736,0.156672383043124
737,0.158606803871135
738,0.160541224699146
739,0.162475645527157
740,0.166139821442641
741,0.167684174850491
742,0.169586185805018
743,0.171488196759545
744,0.173390207714073
745,0.174401195796654
746,0.17513565572609
747,0.176636352165038
748,0.175596859627007
749,0.176955209026565
750,0.177654111504623
751,0.177417061456058
752,0.179924627245438
753,0.179523824764755
754,0.178192326006924
755,0.168759488271451
756,0.159326650535977
757,0.149893812800504
758,0.133551441383294
759,0.119183915337028
760,0.108446217727317
761,0.106437200613142
762,0.110140266924547
763,0.117387647844114
764,0.127718258786213
765,0.137629968008006
766,0.149798437102602
767,0.161559928945751
768,0.167927336694067
769,0.172607459936374
770,0.177030104086681
771,0.178762283192254
772,0.180933609228907
773,0.183301388108723
774,0.182387881281486
775,0.182958993266345
776,0.183599257049643
777,0.181972440181712
778,0.184815920707694
779,0.182889012530886
780,0.185601319705002
