"wavelength","measurement"
380,0.020136580729523
381,0.0191475490280319
382,0.0186855211133874
383,0.0181009329461701
384,0.0179321695708154
385,0.0185750496347345
386,0.0193565738500067
387,0.0201168998100255
388,0.0205444096510941
389,0.0208500702516502
390,0.0205683389268319
391,0.0203321752957912
392,0.0197807649516539
393,0.0199045713162736
394,0.0202256332976318
395,0.020776214226461
396,0.0226062231887937
397,0.0246704238900833
398,0.0267346245913728
399,0.0287988252926624
400,0.0299704761205259
401,0.0312806090945823
402,0.0319454920699873
403,0.0321472457141301
404,0.0317854703052994
405,0.0314748854358191
406,0.0314139657550835
407,0.031336494878714
408,0.0311331527710883
409,0.0313379773915614
410,0.0322678612211797
411,0.0322438866153955
412,0.0327821162750706
413,0.0331311312540423
414,0.0327131739950038
415,0.0329286293964177
416,0.0323592094517508
417,0.0319866350806156
418,0.0321259372715814
419,0.0313028889377625
420,0.0320366588061501
421,0.0314038834185409
422,0.031717168821684
423,0.0316619801094722
424,0.0316167561823433
425,0.0308989183440243
426,0.0304089511439002
427,0.0295060870287482
428,0.0284859899492872
429,0.0282770098370472
430,0.0278813391374745
431,0.0291251401843519
432,0.02962572817915
433,0.030646556316403
434,0.0317106287599326
435,0.0321553343699624
436,0.0323406666498334
437,0.0327094435215396
438,0.0330782203932457
439,0.0334469972649518
440,0.033472743770313
441,0.0338457787410593
442,0.0345506338706521
443,0.0346729072169936
444,0.0350284216409862
445,0.0353839360649787
446,0.0357394504889712
447,0.0362482511541854
448,0.036062678868681
449,0.0372992940946304
450,0.0369155231799871
451,0.0366120548073079
452,0.0364162392180304
453,0.036220423628753
454,0.0360246080394755
455,0.0360331035565637
456,0.0356423849344227
457,0.0360465526659504
458,0.0359969901143496
459,0.0363917067642547
460,0.0362846052933365
461,0.03597418747408
462,0.0366848228482428
463,0.0356228140575803
464,0.0349026947512589
465,0.0346338950980594
466,0.0340370297317218
467,0.0338593974150376
468,0.0335164075640184
469,0.0330309410722402
470,0.0336158826186284
471,0.0334306443790151
472,0.0335316662773631
473,0.0338877793838172
474,0.0338831942078386
475,0.0342695925935621
476,0.0333217104763067
477,0.0332488473762038
478,0.0331759842761009
479,0.033103121175998
480,0.0329994719839263
481,0.0321272485902009
482,0.0314413498522118
483,0.0311980526940066
484,0.0302900294884072
485,0.0295154656120724
486,0.0296446279085379
487,0.029732517146752
488,0.0298670366057847
489,0.0306664826113799
490,0.030809213183326
491,0.0310281579116625
492,0.031631607293016
493,0.0312629550665177
494,0.0316600373208487
495,0.0313142733412844
496,0.0313035916068707
497,0.0307165503217885
498,0.0309944177257584
499,0.0302579748683158
500,0.0303615231284343
501,0.0300735303857881
502,0.0305613393331611
503,0.0308545613937172
504,0.030496145143311
505,0.031539554539093
506,0.031435115313671
507,0.0316250593769652
508,0.0318375487043029
509,0.0320637710419286
510,0.0316189242368294
511,0.032079850221445
512,0.0322272752896417
513,0.0313620004828544
514,0.0312997528106242
515,0.0309770491043152
516,0.0308904578134566
517,0.0309713318734179
518,0.0311206608855498
519,0.0320504911547293
520,0.0327893523589791
521,0.0334294865080678
522,0.0340696206571566
523,0.0347097548062454
524,0.0346837991244419
525,0.0350066552676373
526,0.0354091833362418
527,0.0351963062993199
528,0.0358089187918987
529,0.0364081519878813
530,0.0365464773500201
531,0.0368497451527838
532,0.0368003615087734
533,0.037154996529437
534,0.0374879050149673
535,0.0370809871410761
536,0.0375327352268188
537,0.0373598247342215
538,0.0371849550068498
539,0.0369786763509089
540,0.0371757638858292
541,0.0369818316777742
542,0.0367774175610566
543,0.0370870465022053
544,0.0372409674000533
545,0.0371071676875214
546,0.0373291643562974
547,0.0373061300177619
548,0.0372830956792264
549,0.0372600613406908
550,0.0371960207809209
551,0.0375529180379522
552,0.0376645618571732
553,0.037308375024547
554,0.0372559533495606
555,0.0374581729803588
556,0.0368926761835641
557,0.0367966499485608
558,0.0365857045010396
559,0.0360973905428775
560,0.0363997907538622
561,0.035693717577522
562,0.0361288785373932
563,0.0354413286411265
564,0.0355447904122988
565,0.0349807200899652
566,0.0345952331938986
567,0.0341185648409429
568,0.0340301094282979
569,0.0333743750618744
570,0.0333641056368318
571,0.0332928490306111
572,0.0328947778194406
573,0.0327083882527251
574,0.0328452144068586
575,0.0322430203201549
576,0.0321819831437738
577,0.0321209459673927
578,0.0320599087910117
579,0.0319988716146306
580,0.0319378344382496
581,0.0322115168803676
582,0.0318773778539903
583,0.0319085165390083
584,0.0313480263860834
585,0.0310822405628416
586,0.0300356805416402
587,0.0295343904315724
588,0.0290971910494152
589,0.028659991667258
590,0.0282227922851008
591,0.0283070440968147
592,0.0285142629009787
593,0.0285147150589374
594,0.0288815053254471
595,0.0287823450950976
596,0.0290438887512745
597,0.0291696674539782
598,0.029170113901495
599,0.0290970079019911
600,0.0293517658152895
601,0.0294464995808359
602,0.0295601730038043
603,0.0293851105737411
604,0.029603885718784
605,0.0292621244675486
606,0.029321970291339
607,0.0290908139480783
608,0.0286469435356197
609,0.0285826223670274
610,0.028342593443936
611,0.0280231268249487
612,0.0277051908940025
613,0.0275010226218965
614,0.0271376675723047
615,0.0273603374886746
616,0.0268263197983045
617,0.0270719626720527
618,0.0270313090759151
619,0.0270379117829139
620,0.0269034206619827
621,0.0269877323250284
622,0.026476995186228
623,0.0264036123641887
624,0.026181769850094
625,0.0259599273359993
626,0.0257380848219045
627,0.0257001317017441
628,0.0257290727816544
629,0.0255814883031988
630,0.0258280130530622
631,0.0254167110650951
632,0.0255229979587966
633,0.0256820111162747
634,0.0255622905025402
635,0.0255749113799839
636,0.0253307934047866
637,0.0256269240929929
638,0.0253175604588214
639,0.0254229452015992
640,0.0251586932580505
641,0.0250063922460705
642,0.0246813548037869
643,0.0243931926472889
644,0.0241050304907908
645,0.0238168683342927
646,0.0237095915811867
647,0.0236559193760173
648,0.0231745699963572
649,0.0235885762271393
650,0.0232773190641707
651,0.0234999647866099
652,0.0231179546835675
653,0.0227522204211792
654,0.0222171571669061
655,0.0223664928051374
656,0.0221691030788451
657,0.0223373823403891
658,0.0224713749617837
659,0.0229452577375995
660,0.023091926391832
661,0.0231203910992738
662,0.0231383646469029
663,0.0229221798880242
664,0.02278512018706
665,0.0227716606449521
666,0.0227022002200375
667,0.0227002287213705
668,0.0226460841604747
669,0.0221984803172941
670,0.0222666408752546
671,0.0222226063563394
672,0.0220789107542185
673,0.0220453643904996
674,0.0221679284875813
675,0.0222099652138893
676,0.0222795669176433
677,0.0223678793085479
678,0.022124849410654
679,0.0222116559630858
680,0.0226552363276174
681,0.0222968558416333
682,0.0220594127994046
683,0.0218544546164794
684,0.021367284856665
685,0.021008793125883
686,0.0208677898306359
687,0.0206346320456773
688,0.0208887882143493
689,0.0212359716882492
690,0.0218237147375145
691,0.0227285209696511
692,0.0231889488675398
693,0.0240645151148101
694,0.0249413999863187
695,0.0257004202709334
696,0.0268017753272459
697,0.027757671048352
698,0.0281654895424298
699,0.0292262993473822
700,0.0306421714384563
701,0.0312932435770771
702,0.032717355285826
703,0.0339045881956036
704,0.0355201799563828
705,0.0366000201795043
706,0.0380743572573663
707,0.0397683423732881
708,0.040834868239645
709,0.042527902872769
710,0.0431365325060831
711,0.0444899789403904
712,0.0457769913190973
713,0.045240281978382
714,0.0454547188593852
715,0.0443046838878275
716,0.0437271393721129
717,0.0433565789315013
718,0.0441971819130623
719,0.04563127909275
720,0.0474453908324003
721,0.0482484530548963
722,0.0508742483391933
723,0.0519834732221072
724,0.0527669769824049
725,0.0544398046471118
726,0.0551576282060904
727,0.0575382855941082
728,0.0593870293787641
729,0.062104006263453
730,0.0645071666603622
731,0.0676914248098987
732,0.0708532112791722
733,0.074047787695683
734,0.076586731056819
735,0.078283194244708
736,0.0806182386379851
737,0.0822429661836142
738,0.0838676937292433
739,0.0854924212748724
740,0.088028024037106
741,0.089274244876383
742,0.0908463510791215
743,0.09241845728186
744,0.0939905634845986
745,0.0948348317746114
746,0.0955045697917179
747,0.096781518300467
748,0.096411173225893
749,0.0974495394008329
750,0.0979440524572448
751,0.0980592586041195
752,0.1000421332061
753,0.0995263162962215
754,0.0987624620331897
755,0.0933418285163859
756,0.0879211949995821
757,0.0825005614827783
758,0.0730723687494422
759,0.0649945077985804
760,0.0591025362056093
761,0.0582071852514469
762,0.060056782381897
763,0.0643558568371299
764,0.0700276254223026
765,0.0756675505254199
766,0.0825025688049649
767,0.0891941865470605
768,0.0931453501934116
769,0.0958024785134994
770,0.098265613839915
771,0.099128085513096
772,0.100384245553793
773,0.101614961703041
774,0.101163824661179
775,0.101474630650373
776,0.101764229143217
777,0.100838143224307
778,0.102322486907677
779,0.101232296180536
780,0.102679701632735
