"wavelength","measurement"
380,0.00410313861509031
381,0.00399851010559393
382,0.00399567664954535
383,0.00393116029663523
384,0.00406302161555858
385,0.00436628890818917
386,0.00458213019561829
387,0.00482848102738937
388,0.00506890571773705
389,0.00531689550556339
390,0.00531241142106382
391,0.00528231138080031
392,0.0053321406828672
393,0.00538225253934204
394,0.00552389060002925
395,0.00578539582600211
396,0.00641224503175678
397,0.00710564905502387
398,0.00779905307829095
399,0.00849245710155803
400,0.00889179406554561
401,0.00947879569357685
402,0.00974847375294767
403,0.00979405998083159
404,0.00985706967565236
405,0.00983049564578484
406,0.00998978337868422
407,0.0100403692522795
408,0.0100408539130366
409,0.0101237058543856
410,0.0105151074553421
411,0.0105095455274134
412,0.0107463112897543
413,0.0109534470813468
414,0.010852258859505
415,0.0109129982262499
416,0.0107829876945852
417,0.01057095441405
418,0.0107334080408207
419,0.0104007534517944
420,0.0106750583973048
421,0.0105058481769112
422,0.0105884651341732
423,0.0105884985355616
424,0.0106266577679331
425,0.0103808813581326
426,0.0102161546395015
427,0.00989216859758516
428,0.00955413222969891
429,0.00946146210883265
430,0.00944549195867995
431,0.00977951988117265
432,0.0101380935843164
433,0.0105315405941732
434,0.0110310913888931
435,0.0113039266663294
436,0.0112666751110632
437,0.0112889766139555
438,0.0113112781168479
439,0.0113335796197403
440,0.0112574277335313
441,0.0114142221941357
442,0.011614553594422
443,0.01171077405979
444,0.0118374811761815
445,0.011964188292573
446,0.0120908954089644
447,0.0122554271673614
448,0.0122652069951234
449,0.0127093179162983
450,0.0126043726657644
451,0.0124825417631079
452,0.0124142302449113
453,0.0123459187267147
454,0.0122776072085182
455,0.012273151269907
456,0.0121406726064069
457,0.0123036002222646
458,0.0123435943506037
459,0.0124976343507794
460,0.0124061410703921
461,0.0122584079031754
462,0.0126078909360268
463,0.0122217105095872
464,0.0120114540699503
465,0.0119109874969328
466,0.0116927264405974
467,0.0116534289291126
468,0.0115096628938816
469,0.0113340366582668
470,0.0115183166647112
471,0.011492056223124
472,0.0115163632608749
473,0.0115969869813946
474,0.0116117258237855
475,0.0117642181449945
476,0.0114318853569615
477,0.0114182415101159
478,0.0114045976632703
479,0.0113909538164248
480,0.011340255935966
481,0.0110615498731292
482,0.0108628248842458
483,0.0108004938814137
484,0.0105928024375519
485,0.0103581696539967
486,0.0104197769081417
487,0.0104792488372391
488,0.0105240415875919
489,0.0107237657447703
490,0.0107413101287342
491,0.0107857695939815
492,0.0110135655793959
493,0.0108041198096372
494,0.0109221449593655
495,0.0107208107899726
496,0.0107283242181096
497,0.0105066625556767
498,0.0105273313070776
499,0.0102044611334165
500,0.0102484544278262
501,0.0100779692734539
502,0.0101947762156839
503,0.0101710054235192
504,0.0100661043719958
505,0.0103840866791464
506,0.0102819576746551
507,0.0103002547879681
508,0.0103373930514874
509,0.010337893799092
510,0.0101645527450838
511,0.0102680792713768
512,0.0102123137361551
513,0.00994030369685754
514,0.00983297563131028
515,0.00965459969704825
516,0.00959327558923562
517,0.00955802545958422
518,0.00951848063770379
519,0.00968968998561887
520,0.00984589663702402
521,0.00996417072174733
522,0.0100824448064706
523,0.0102007188911939
524,0.0101315208034972
525,0.0101460634020403
526,0.0102128514042435
527,0.0101309303556256
528,0.0102013417800365
529,0.0103655707391718
530,0.0103757298075856
531,0.0103549099372558
532,0.0103456837823861
533,0.0104286950511494
534,0.0104532346769037
535,0.0104098360073054
536,0.0105221140793467
537,0.0105377433982188
538,0.0106574253054334
539,0.0108194369975946
540,0.0111663346916349
541,0.0113947864472581
542,0.0116607765852675
543,0.0118556320840938
544,0.0119601531442071
545,0.0117404292086913
546,0.0115950663888322
547,0.0112942905788465
548,0.0109935147688607
549,0.010692738958875
550,0.010393642156658
551,0.0103823922360812
552,0.0102872845301653
553,0.0101024879944448
554,0.00997946117676214
555,0.00999054724850095
556,0.00980196879952751
557,0.00972409417172039
558,0.00959486359393544
559,0.00945935238424273
560,0.00956515708329237
561,0.00937771414428381
562,0.0094833589528222
563,0.00930775256491176
564,0.00931263614525821
565,0.00915847982730057
566,0.00902513902604839
567,0.00891828998620128
568,0.00891946881241359
569,0.00876931197344049
570,0.00871779005903378
571,0.00870026291662683
572,0.00866759040642215
573,0.0086293780732002
574,0.00868881294151564
575,0.00858593716662309
576,0.00861353782568872
577,0.00864113848475436
578,0.00866873914382
579,0.00869633980288564
580,0.00872394046195127
581,0.00880812268533495
582,0.00872804808318873
583,0.00876603732502718
584,0.00859317922217252
585,0.00856727150985459
586,0.00830169864671817
587,0.00811600066165015
588,0.00794512174116022
589,0.0077742428206703
590,0.00760336390018037
591,0.00757994799090928
592,0.00759468938375822
593,0.00754762678924013
594,0.00759066251150603
595,0.00750576910480526
596,0.00755958739199334
597,0.0075402366531859
598,0.00755671112975748
599,0.00753297308129415
600,0.00754341646250364
601,0.00753255425153622
602,0.00753100837524514
603,0.00743612731205854
604,0.00751256715925528
605,0.00746966457701602
606,0.00755001760139866
607,0.00776777846775314
608,0.00797150710115011
609,0.00829690691521752
610,0.00845388619317671
611,0.00856809536567956
612,0.00838341190244497
613,0.00808270884151683
614,0.00765690028909875
615,0.00741599389269249
616,0.00719055364353797
617,0.00709940850041026
618,0.00698349046221582
619,0.00696522998281652
620,0.00689419027578504
621,0.00688861116944062
622,0.00673172308043449
623,0.0066811435534662
624,0.00658270058571334
625,0.00648425761796048
626,0.00638581465020762
627,0.0063917705965146
628,0.00632840765528828
629,0.00630395395508787
630,0.00633388613316769
631,0.00618728556113423
632,0.00613961637772268
633,0.00607969834938357
634,0.006007753331016
635,0.00601571684309314
636,0.00593556633312827
637,0.00591963227493254
638,0.00582767806381541
639,0.00586160837041431
640,0.00578488114836874
641,0.00573620196002895
642,0.0056649136556142
643,0.005586013129622
644,0.0055071126036298
645,0.0054282120776376
646,0.00544896886376896
647,0.00541342360103919
648,0.00528277478942143
649,0.00535361280307014
650,0.00527236522654524
651,0.00529718960803674
652,0.00518522963681694
653,0.00506957695122629
654,0.00495643183250065
655,0.00499353177757791
656,0.00489882751952413
657,0.00491756046746977
658,0.00492474098542975
659,0.00503975109563657
660,0.00507367224975439
661,0.00508608764993669
662,0.00508998041784041
663,0.00501379233617202
664,0.00498106131654249
665,0.00499243625439981
666,0.004932541435276
667,0.00493189439868766
668,0.00491690993400277
669,0.00480589864631635
670,0.00480299943592553
671,0.00478251236477339
672,0.00472767332913835
673,0.00470987165482355
674,0.00469450945257443
675,0.00469851875069302
676,0.00468083383891397
677,0.00466103203307356
678,0.00461566605430848
679,0.00459254942791493
680,0.00469278797292675
681,0.00456573279935328
682,0.00448408030423777
683,0.00440730400280222
684,0.00425067374307069
685,0.00414093842966125
686,0.00406412922149715
687,0.00399668314246446
688,0.00394977772755949
689,0.00392352190554479
690,0.00403675113460208
691,0.00409474207575229
692,0.00416956983223484
693,0.00422193619959187
694,0.00428863823889347
695,0.00434990265102871
696,0.00445207595462831
697,0.00450871888764518
698,0.0044914595400918
699,0.00454255023631633
700,0.00469274804336403
701,0.00469297228064321
702,0.00486021784521804
703,0.00495595564055751
704,0.00516298726338049
705,0.00524757165339012
706,0.00539994827815042
707,0.00552251820480778
708,0.00564185262895624
709,0.00577128961838256
710,0.00575494773611604
711,0.00582544682052408
712,0.00587658820018323
713,0.0056955406765555
714,0.00559371396572012
715,0.00537481506385346
716,0.0051679839598826
717,0.00506889615462783
718,0.00506522668489835
719,0.005113465199872
720,0.00526889204006704
721,0.00523650880790516
722,0.00550687127156567
723,0.00554523161229682
724,0.00559402098872341
725,0.00565020044290186
726,0.00563849919494359
727,0.00583650973497053
728,0.00594125657853913
729,0.00608678438242126
730,0.00634272149910262
731,0.00658955617755141
732,0.00681678950755661
733,0.00706756985994984
734,0.00727141478578594
735,0.00734690181162553
736,0.00751717502228519
737,0.00759823505595416
738,0.00767929508962313
739,0.0077603551232921
740,0.00796130698764863
741,0.00803235313850037
742,0.00810329886849819
743,0.00817424459849602
744,0.00824519032849384
745,0.00826739576103978
746,0.00827961205133721
747,0.00835825747501329
748,0.00827219227591737
749,0.00828242781757792
750,0.00826745117923914
751,0.00820965924500067
752,0.00840985565933016
753,0.00817212715476877
754,0.00818241594920847
755,0.00773185857195502
756,0.00728130119470156
757,0.00683074381744811
758,0.0060559597491592
759,0.00532025111322999
760,0.00483768767318542
761,0.00474351027840765
762,0.00482603125615758
763,0.0051230884602633
764,0.00553088452941679
765,0.00590468043428286
766,0.006433760461993
767,0.00691303793833361
768,0.00723275136520875
769,0.00741711110612515
770,0.0075813357553178
771,0.00759024730396426
772,0.0077607586571343
773,0.00769756115303757
774,0.00770422041083361
775,0.00765417488127785
776,0.00766373448024486
777,0.0075774821066155
778,0.00764929524846948
779,0.00753768663974234
780,0.00759476000788831
