"wavelength","measurement"
380,0.00766740393774899
381,0.00732269775592681
382,0.00713847114050278
383,0.00694332301227711
384,0.00699965170699019
385,0.00732174371068583
386,0.00760547411112245
387,0.00787577833663679
388,0.00821017528752951
389,0.00833585437558976
390,0.00828201895501731
391,0.00817618509386063
392,0.00810773275426113
393,0.00812218065469293
394,0.00826053106082477
395,0.00859110199943706
396,0.00949631507667175
397,0.0104276666128682
398,0.0113590181490647
399,0.0122903696852611
400,0.0128617353843542
401,0.0135178356498708
402,0.0139191849404004
403,0.0140231901839502
404,0.0140180002663444
405,0.0139174134162438
406,0.0141459862542985
407,0.0141544889762471
408,0.0142653296177646
409,0.0144408475951983
410,0.0150651045440834
411,0.0151106132807668
412,0.0155006219468042
413,0.0158542008924513
414,0.0158828009510536
415,0.0160848180644982
416,0.0159437066373554
417,0.0158701265930056
418,0.0160727089094586
419,0.0157808699051234
420,0.0161750381087649
421,0.0161560510709839
422,0.0163239742288199
423,0.016427459032446
424,0.0165073512280716
425,0.0162666052625434
426,0.0161170140909231
427,0.0157631623681506
428,0.0152702091757889
429,0.0152263582421218
430,0.0152778343886998
431,0.0158523727753702
432,0.0164400306635423
433,0.0170360235725242
434,0.0178708620165448
435,0.0183228171532853
436,0.0185353500338004
437,0.0188938659253616
438,0.0192523818169228
439,0.0196108977084841
440,0.0198138074878867
441,0.0202902092908621
442,0.0208363962954936
443,0.0212659281400617
444,0.0217599650877961
445,0.0222540020355305
446,0.0227480389832649
447,0.0232424938159525
448,0.0234509566367147
449,0.0244824358341727
450,0.0244119621165544
451,0.0243713847423456
452,0.0242793667142953
453,0.024187348686245
454,0.0240953306581946
455,0.0240048607173394
456,0.0238151408413285
457,0.0238857915786087
458,0.0237731672034055
459,0.0239677514888265
460,0.0237142518391712
461,0.0233327453194918
462,0.0238351064712587
463,0.0229891110129987
464,0.0226945496689386
465,0.0224271761745988
466,0.0219977938894608
467,0.0218315408024313
468,0.0215095885422845
469,0.0212145355500353
470,0.0215718455234557
471,0.0214307818824576
472,0.0214420488859064
473,0.0215767272690378
474,0.0215364267944598
475,0.0217653712067969
476,0.0212502781730946
477,0.0211704311104603
478,0.021090584047826
479,0.0210107369851917
480,0.0209587307636027
481,0.020363892541639
482,0.0199948133179132
483,0.0198443349870917
484,0.0193494857237363
485,0.0189458852425651
486,0.0190425708933818
487,0.0191646946220887
488,0.0192834210917866
489,0.01980499368263
490,0.0199209008709326
491,0.0200135893907915
492,0.0204901093251782
493,0.0202887446398293
494,0.0206188457470032
495,0.0203193616749786
496,0.0204322736714114
497,0.0200882945035994
498,0.0202477763221943
499,0.0198294061534268
500,0.0199568154236347
501,0.0198148045279499
502,0.0201679954341005
503,0.0202818337452671
504,0.0200431839820222
505,0.0207262641695851
506,0.0206275030648494
507,0.0207461354918216
508,0.020858780461556
509,0.0208923357193452
510,0.0205993568625228
511,0.0208982019869166
512,0.0208190187724883
513,0.020212064150501
514,0.0201844141625238
515,0.0199180413988654
516,0.0198188264950244
517,0.0197834938566191
518,0.0197101789780095
519,0.0200941376747087
520,0.0204673231057762
521,0.0207288142650456
522,0.020990305424315
523,0.0212517965835844
524,0.0211837836901925
525,0.0212886491278248
526,0.0214044901528154
527,0.0212741479359986
528,0.0214091756026859
529,0.0217517023653963
530,0.0217981532843217
531,0.0218168645365056
532,0.0217841130194455
533,0.0220037310817537
534,0.0221074042885921
535,0.0218055340346837
536,0.0220521452534053
537,0.021973789687158
538,0.0218635795472041
539,0.0217493763240584
540,0.0219044767296663
541,0.0218276534346704
542,0.0217708682934627
543,0.0218458747365079
544,0.0220018161379903
545,0.0218866147521455
546,0.0220062888746885
547,0.0219671347948616
548,0.0219279807150347
549,0.0218888266352077
550,0.0217781372122635
551,0.0218879377209777
552,0.0220629291128886
553,0.0218551095097144
554,0.0217986979091567
555,0.022042340585327
556,0.0217289143114443
557,0.0217323272258769
558,0.0215959222443938
559,0.0214102403458102
560,0.0216723691172019
561,0.0213621732194679
562,0.0216987824893326
563,0.021394836983907
564,0.0215120349065133
565,0.0212586224584489
566,0.0211814669177404
567,0.0209437646176328
568,0.0210990222563718
569,0.0208802075697117
570,0.0208735402579456
571,0.0209241656134296
572,0.0209419698623007
573,0.0209105911224548
574,0.0210610470837239
575,0.0208297348604184
576,0.0208847475491709
577,0.0209397602379233
578,0.0209947729266757
579,0.0210497856154282
580,0.0211047983041806
581,0.0213528800639244
582,0.0212069437636809
583,0.0213060887202463
584,0.0209980183148526
585,0.0209849323123419
586,0.0204790506710266
587,0.0202797912543654
588,0.02010132032886
589,0.0199228494033547
590,0.0197443784778494
591,0.0198171784642763
592,0.020029296796329
593,0.0200192040239918
594,0.0203311550209153
595,0.0202571216363359
596,0.0203921400917637
597,0.0204682495641001
598,0.0205096944178267
599,0.0205516651013464
600,0.0206741698870495
601,0.0207715775464183
602,0.02088939805048
603,0.0207322805826018
604,0.0209353074403791
605,0.0208195543785864
606,0.0208277338724753
607,0.0208324517984259
608,0.0205591682183794
609,0.0206012575246847
610,0.0204550895981017
611,0.0203441281912757
612,0.0201615431755478
613,0.0200654651014987
614,0.0197510674008456
615,0.0199133774326384
616,0.0196697721258115
617,0.0197729058950535
618,0.0197373664969168
619,0.0197682618802239
620,0.0196888115805995
621,0.0197881100086978
622,0.0193837006367327
623,0.0193658021742433
624,0.0192498154300301
625,0.019133828685817
626,0.0190178419416039
627,0.0190053915481588
628,0.0189526647569303
629,0.0188571124270892
630,0.0189826037480259
631,0.0186795310000327
632,0.0187542891477253
633,0.0187970487806739
634,0.0187607587195648
635,0.0188084257427955
636,0.0186051137982051
637,0.0187759056710898
638,0.0186050985052315
639,0.0186853052802522
640,0.0185668604130647
641,0.0184578845239028
642,0.0183478585266915
643,0.0182029963670505
644,0.0180581342074094
645,0.0179132720477684
646,0.0179855473335856
647,0.0179138097958229
648,0.0175704563861607
649,0.0178654419387441
650,0.0176416400652644
651,0.0177955380063144
652,0.0175541292522346
653,0.0172994862179967
654,0.0169463441448537
655,0.0170898462909508
656,0.0169215852160298
657,0.017025027686218
658,0.0171622900236643
659,0.0175599436221267
660,0.0176534562959637
661,0.0177116151111157
662,0.0177571016987893
663,0.0176237670863169
664,0.0175582267299189
665,0.0175689634651243
666,0.0175760808404169
667,0.0176141264785847
668,0.0176123558819344
669,0.0173304092487214
670,0.0173973746936144
671,0.0173268219276814
672,0.0172652118782429
673,0.0173001638910577
674,0.0173884004859418
675,0.0173784218657446
676,0.017369220225149
677,0.0174515670640363
678,0.0173275707412754
679,0.0173064896739796
680,0.0176884009235603
681,0.0174393162373889
682,0.0171882323835791
683,0.0169769236275552
684,0.0164546511123577
685,0.016134239524715
686,0.0159168076560947
687,0.0156994751514009
688,0.0155838477725448
689,0.0156942620667492
690,0.0159644076368473
691,0.0163579827061853
692,0.0165183604180489
693,0.0166973267274022
694,0.0170615805851801
695,0.0171616427723166
696,0.017554216715638
697,0.0178461358275197
698,0.0178042320025491
699,0.0180238679024742
700,0.0185277954699373
701,0.0185667957408825
702,0.019048749589907
703,0.0193243721118826
704,0.0199087820701647
705,0.0201182589424269
706,0.0205847516929718
707,0.0210989132187865
708,0.0213515754799916
709,0.021886921484578
710,0.0219225571341049
711,0.0222306951529115
712,0.0225535137457799
713,0.0220352235745676
714,0.0218831502839009
715,0.0210958797805237
716,0.02055987502761
717,0.0202137575895662
718,0.0203381103169
719,0.0207040904198473
720,0.0212757905967662
721,0.0213275641967485
722,0.0223013749066336
723,0.0225451349982247
724,0.022796267325829
725,0.0232633453292552
726,0.0234405801043952
727,0.0242274682474235
728,0.0248266192637623
729,0.0256669078699354
730,0.0266007490490489
731,0.0277527217083825
732,0.0287516098343066
733,0.0299564360788058
734,0.0309110404978703
735,0.0315324364887803
736,0.0322151373560865
737,0.0327757995518034
738,0.0333364617475203
739,0.0338971239432372
740,0.0348625689431087
741,0.0352804838838959
742,0.0358508973973274
743,0.0364213109107588
744,0.0369917244241903
745,0.0373289192188928
746,0.0376248454461765
747,0.0380110062194916
748,0.0378854061558201
749,0.0383222066251517
750,0.0386633835853705
751,0.0387291563077132
752,0.0393710860716799
753,0.0392749702468607
754,0.0391030958350794
755,0.0369586631685263
756,0.0348142305019733
757,0.0326697978354203
758,0.0290778358181752
759,0.0259029384362472
760,0.0236843498712962
761,0.0233166439808955
762,0.024245466056546
763,0.0258829455789456
764,0.0282961654178896
765,0.0304908712688521
766,0.0333434561967044
767,0.0360473951734278
768,0.0375975606341578
769,0.0386833716351547
770,0.0397033600805945
771,0.0400598822289165
772,0.0406022703291745
773,0.041221002119429
774,0.0409521811289643
775,0.0411681199063016
776,0.041347706032612
777,0.04099823312759
778,0.0415523624894314
779,0.0411321859251652
780,0.0418203548416977
