"wavelength","measurement"
380,0.00348413610588681
381,0.00336602592025149
382,0.00336062253933856
383,0.00325098847512252
384,0.0033820469914147
385,0.00353940683685408
386,0.00381573647908796
387,0.00400586238526511
388,0.00425805842522739
389,0.004334456097832
390,0.00439055061417254
391,0.00434826729199996
392,0.0045023857580786
393,0.00454437534644415
394,0.00465947463331972
395,0.00503830372969759
396,0.00556255152320107
397,0.00623717200534259
398,0.00691179248748411
399,0.00758641296962563
400,0.00797443163275193
401,0.00854434266400154
402,0.0089634900244651
403,0.00915263882573513
404,0.00936919692373746
405,0.00950895653105777
406,0.00991881693322391
407,0.0100871178381838
408,0.010454678070117
409,0.0108208601606649
410,0.0115922256134515
411,0.0118962183174615
412,0.0123943215651797
413,0.0128853360033145
414,0.0131795899292608
415,0.013572417269358
416,0.0136627586010847
417,0.0137788781405754
418,0.0143471305790832
419,0.0141584942566253
420,0.0147132817050154
421,0.014878704809874
422,0.0152051231851221
423,0.0155176776307367
424,0.0156116095452322
425,0.0154857673317328
426,0.0154916364487205
427,0.015258599055171
428,0.0149410797837564
429,0.0151050699964056
430,0.0152418593947629
431,0.0158920983527771
432,0.0166065565829178
433,0.017245147467361
434,0.0181084447016232
435,0.018564230837185
436,0.0188881559398871
437,0.0192893345111023
438,0.0196905130823176
439,0.0200916916535328
440,0.0203066032665918
441,0.0208179309711243
442,0.0213070042602322
443,0.0216157484809609
444,0.0220673906623882
445,0.0225190328438155
446,0.0229706750252428
447,0.0234717781614344
448,0.0236363618641039
449,0.0245918688152826
450,0.0244885585384628
451,0.0243450011264554
452,0.0243188665416174
453,0.0242927319567793
454,0.0242665973719412
455,0.0242428441311854
456,0.0241916623305127
457,0.0244008702181511
458,0.0245080535252953
459,0.024872799827853
460,0.0248942314146349
461,0.0246061239218083
462,0.0252916912113378
463,0.0246157438969748
464,0.0243139985550964
465,0.0241610383617508
466,0.0238472274885438
467,0.023867621337584
468,0.0236705506653359
469,0.0235104209020803
470,0.0240592343229762
471,0.0239262375714721
472,0.024155683804114
473,0.0244342545040478
474,0.0244663782048979
475,0.0248764828247202
476,0.0243481542178355
477,0.0243389140568737
478,0.024329673895912
479,0.0243204337349502
480,0.0242562905686721
481,0.0236465554998486
482,0.0232244341944482
483,0.0231717233383146
484,0.0226765152952172
485,0.0222458834957454
486,0.0225469914552655
487,0.0227867283999297
488,0.023049014909908
489,0.0237207538170182
490,0.0239280349553034
491,0.0241593620192638
492,0.0248118029956074
493,0.024607084504413
494,0.0250122207805895
495,0.0247554569752123
496,0.0249822098547912
497,0.0245467443370435
498,0.0248144909763968
499,0.0243262570088045
500,0.0245606300174885
501,0.0244198967160178
502,0.0249268080511775
503,0.0250774128671436
504,0.0248987773548228
505,0.0257954403261196
506,0.0256782415166009
507,0.0258706885975948
508,0.0260847533152059
509,0.026091945155247
510,0.0257100625228508
511,0.026106159110449
512,0.02589713213315
513,0.0252000103064409
514,0.0251237945710949
515,0.0246592291434561
516,0.0245385406645548
517,0.0245383921632717
518,0.0244483858347
519,0.0249043855683345
520,0.0253553300815469
521,0.0256291942794203
522,0.0259030584772936
523,0.0261769226751669
524,0.0260158265021268
525,0.0260964856132906
526,0.0261553695159928
527,0.0260374102999025
528,0.0261906617556887
529,0.0265245734105138
530,0.0264645540874237
531,0.0265422440747186
532,0.0264990804935299
533,0.0267468672610426
534,0.0267886062368671
535,0.02647759830806
536,0.0267610653286276
537,0.0266064384501723
538,0.0264067544055522
539,0.026265212217793
540,0.0263925203149258
541,0.0262569293211134
542,0.02614618244651
543,0.0262421322416324
544,0.0264228282640702
545,0.0262594431739686
546,0.0264732112829626
547,0.0264346465968879
548,0.0263960819108132
549,0.0263575172247385
550,0.0261929502497354
551,0.0264264033130284
552,0.0266754074361085
553,0.0263785425513152
554,0.0263138509624884
555,0.0265718764032063
556,0.0262499548827645
557,0.0261855899948953
558,0.0260676517514209
559,0.0258744198421772
560,0.026270881119228
561,0.0258345013077085
562,0.0262481581720971
563,0.0259404421869223
564,0.0260421738392861
565,0.0257098678832251
566,0.0256288006306616
567,0.0254033650480962
568,0.0256074675121945
569,0.0253397887363193
570,0.0253934411235707
571,0.0255546617468533
572,0.0255652898938424
573,0.0256389189171477
574,0.0258263265542167
575,0.0256185611734018
576,0.0257678750702293
577,0.0259171889670568
578,0.0260665028638843
579,0.0262158167607117
580,0.0263651306575392
581,0.0267483824291752
582,0.0266476023842062
583,0.0268559600275256
584,0.0264811958901819
585,0.0264286786305418
586,0.0257458397303208
587,0.025366712622166
588,0.0251515060945882
589,0.0249362995670103
590,0.0247210930394325
591,0.0249416132054134
592,0.0252779422073602
593,0.0254310362081814
594,0.0259766838396802
595,0.0260019551823508
596,0.0263578398824183
597,0.0265750273330071
598,0.0267908265021227
599,0.0270068546939288
600,0.0273234076185028
601,0.0276239606934633
602,0.027848842782674
603,0.0278117315200116
604,0.0281315902628364
605,0.0280130293938665
606,0.0281611609889715
607,0.0280977172399046
608,0.0278342381971841
609,0.0279046767874062
610,0.027740744808391
611,0.0276557368735757
612,0.0274691148565351
613,0.0274312118668976
614,0.0270844425394228
615,0.0274165351664992
616,0.0271356295120146
617,0.0274176894916016
618,0.0273742554638322
619,0.0275080219738791
620,0.0274669904468999
621,0.0276568971954079
622,0.0270876953415229
623,0.0271330271246519
624,0.0269731855968239
625,0.0268133440689959
626,0.0266535025411679
627,0.0266270117429534
628,0.0265425577327689
629,0.026508894199514
630,0.0267686973691184
631,0.0264401875840356
632,0.0265986285476989
633,0.0267219973451865
634,0.0268021741669449
635,0.0269602190864055
636,0.0267463415183603
637,0.0270215860832871
638,0.0268705610980326
639,0.0270516692099779
640,0.0269442457429641
641,0.0268611461118573
642,0.0267504257712763
643,0.0265424608345815
644,0.0263344958978867
645,0.0261265309611919
646,0.0261761714431498
647,0.026201983763721
648,0.0257606270348859
649,0.0262700781494486
650,0.0260564781130203
651,0.0263420284365058
652,0.0260621085312102
653,0.02573716461301
654,0.0253587342441056
655,0.0257383635329968
656,0.0255723520532383
657,0.0259192055587448
658,0.0263102608656431
659,0.0270440413544591
660,0.0273888333411631
661,0.0275872656622218
662,0.0277252037736592
663,0.0276645400433825
664,0.0275906102541112
665,0.0277135648701168
666,0.0277779590173059
667,0.0279495862967572
668,0.0280436577091593
669,0.0275956938767419
670,0.0277890640857173
671,0.0277211413997402
672,0.0277299173405679
673,0.0278837345104179
674,0.0279415991012556
675,0.0279725835013578
676,0.0279689110227902
677,0.0282015447068757
678,0.0278896897646648
679,0.0279012799099808
680,0.0285928648517413
681,0.0281480979619745
682,0.0275473677948196
683,0.0270144338925646
684,0.0261815254816084
685,0.0255107409577905
686,0.0249398254905223
687,0.0244589555263071
688,0.0242197073848669
689,0.024311991597797
690,0.024597962514766
691,0.0250240124579195
692,0.0249890572944143
693,0.0252132661254699
694,0.025513242344265
695,0.0255455343740559
696,0.0260273122163908
697,0.0261783131578957
698,0.0257786845667286
699,0.0258162343663815
700,0.0263583034358631
701,0.026197931595471
702,0.0267565668013724
703,0.0269438227209406
704,0.0275022152854652
705,0.0276379781200045
706,0.0281884145081483
707,0.0285725810720422
708,0.0285936742797207
709,0.029077017174231
710,0.0288846734180324
711,0.0289514550564039
712,0.0289202894697058
713,0.027628877737176
714,0.0268390099040794
715,0.0252105510571527
716,0.0237413912992752
717,0.0228489437423281
718,0.0226279884671713
719,0.0228519646697715
720,0.0232402440682956
721,0.0232104969993118
722,0.0238743468464213
723,0.0237643472730301
724,0.0237335943244246
725,0.0238950561676905
726,0.0238403243779983
727,0.0243849775326832
728,0.0249381582167875
729,0.025749562328712
730,0.0266483019054544
731,0.0278689548427899
732,0.0290178829675487
733,0.0302281975956107
734,0.0309562623104394
735,0.0315501121886623
736,0.0322476166374238
737,0.0327804988816776
738,0.0333133811259315
739,0.0338462633701853
740,0.0347079834616721
741,0.0351228213478345
742,0.035616847181624
743,0.0361108730154136
744,0.0366048988492032
745,0.0368614095199708
746,0.0371302651707257
747,0.0375389154851276
748,0.0372713799562965
749,0.037740938339135
750,0.0378633973500458
751,0.0379823237873715
752,0.0387700571334294
753,0.0385526385699766
754,0.0382809651968831
755,0.0358518941728256
756,0.0334228231487682
757,0.0309937521247108
758,0.027019991318169
759,0.0235624310608399
760,0.0213737856795153
761,0.021197911677038
762,0.0223736909529853
763,0.0243643013685903
764,0.0272648133337436
765,0.0298719976519042
766,0.0329990809101804
767,0.0359392683651575
768,0.0376860112953618
769,0.0389245383834501
770,0.04003918080933
771,0.0405992451793943
772,0.0411497306895843
773,0.0417867061715443
774,0.041696145806317
775,0.0418582617354175
776,0.042117774216088
777,0.0417006276064465
778,0.0423786403776191
779,0.0420131414958137
780,0.0426396988187649
