"wavelength","measurement"
380,0.00200580815590252
381,0.00204271896901319
382,0.00203326315353454
383,0.00201785208907506
384,0.00209990453230673
385,0.00224773828908254
386,0.00236394638357959
387,0.00255241890548752
388,0.00272661394239921
389,0.00281467867814139
390,0.00284267944258848
391,0.00285066868784456
392,0.00289436855076126
393,0.00294785729801406
394,0.0031379896125718
395,0.00325841771628263
396,0.0036708023608661
397,0.00410339412051255
398,0.00453598588015901
399,0.00496857763980546
400,0.00523200343436238
401,0.00558238272785843
402,0.00584716023074344
403,0.00594159876960712
404,0.00603462865166735
405,0.00602108190611609
406,0.00625747754570649
407,0.00630375593206501
408,0.00639830454455743
409,0.00654485806493426
410,0.00688346161169491
411,0.00695932312269128
412,0.0071755809270798
413,0.00738010983902664
414,0.00738437638086804
415,0.007498472989145
416,0.00748607461674472
417,0.00746109409067356
418,0.00755596088344486
419,0.00744128988006127
420,0.00767270709083083
421,0.00766193059578488
422,0.00778162045161124
423,0.0078224471649375
424,0.007885616473529
425,0.00773103335268
426,0.00770772096983017
427,0.00752577681348441
428,0.00727315680419624
429,0.00728672480023684
430,0.00732807548384091
431,0.00762593840838535
432,0.00789076224963084
433,0.00821098665293814
434,0.00856826667556047
435,0.00876939890886385
436,0.00887639527124348
437,0.00902598350798607
438,0.00917557174472867
439,0.00932515998147127
440,0.00940535510175559
441,0.00960706785618436
442,0.00986358532884238
443,0.0099454315397402
444,0.0101452632033289
445,0.0103450948669176
446,0.0105449265305062
447,0.0107658557755785
448,0.0108644318568096
449,0.0113125752232148
450,0.011289797800043
451,0.0112091717269332
452,0.0112129432768646
453,0.0112167148267959
454,0.0112204863767273
455,0.0112136095291308
456,0.0112090051466471
457,0.0114096835913619
458,0.0114404385443842
459,0.0116624040728681
460,0.0116807930970136
461,0.0115742898269968
462,0.0119293627058412
463,0.0116145166525288
464,0.0114884774155741
465,0.0114205452535799
466,0.0112665524969608
467,0.011293977130098
468,0.0111892622493664
469,0.0111157586955971
470,0.0113710802748914
471,0.0113326981621203
472,0.0114127993556124
473,0.0115963362025059
474,0.0116658363821894
475,0.0118103913011222
476,0.0115824852241453
477,0.011607020770862
478,0.0116315563175787
479,0.0116560918642954
480,0.0116390039840368
481,0.0113403340209672
482,0.0111695722582768
483,0.0110918147275351
484,0.0108868875311664
485,0.0106905839101745
486,0.0107884867901238
487,0.0109134958789167
488,0.011020624883777
489,0.0113411002827005
490,0.0114354026435821
491,0.0115176274257225
492,0.0118030261169849
493,0.0116973449809828
494,0.0118959339507355
495,0.0117111699403194
496,0.0117853266870999
497,0.0116175890466359
498,0.011675253253014
499,0.0113889009351329
500,0.0114775895586618
501,0.0113408175516592
502,0.0115421560983065
503,0.0116064560158498
504,0.0114750324621308
505,0.0118736001742677
506,0.011840398444561
507,0.0118825478826568
508,0.0120174809709268
509,0.0120318453401905
510,0.0118673379103693
511,0.0120956464645236
512,0.0120151869176349
513,0.0116907960927976
514,0.0116537451781351
515,0.0114715834916409
516,0.0114103485687721
517,0.0114125649627084
518,0.0113943540593797
519,0.0116245455957391
520,0.0118570201933583
521,0.0119962331645981
522,0.0121354461358378
523,0.0122746591070776
524,0.0122106005777867
525,0.0122618038799069
526,0.0122989592079478
527,0.0122777322477752
528,0.0123421858620547
529,0.0125179130909861
530,0.0125214284492774
531,0.0125493742131322
532,0.0125089403480561
533,0.0126528385549706
534,0.0126817354457307
535,0.0125448521871496
536,0.0126745697394438
537,0.0125900041780587
538,0.0125162958370637
539,0.0124884204234848
540,0.0125789228158141
541,0.0125334234429269
542,0.0125209829313015
543,0.0125841222147184
544,0.0126671094878895
545,0.0125398074613125
546,0.0126205730862493
547,0.0125679489764004
548,0.0125153248665515
549,0.0124627007567026
550,0.0123678188304248
551,0.0124635074427132
552,0.0125490390763389
553,0.0124277098679707
554,0.0123368864684493
555,0.0124553606339101
556,0.0122827715716389
557,0.0122573011703903
558,0.012153053048206
559,0.0120565972151251
560,0.0122033154401511
561,0.0119908998475471
562,0.0121755685408662
563,0.0119953023966076
564,0.0120221337847491
565,0.0118005783891178
566,0.0117275790932751
567,0.011542370969782
568,0.0115706304087521
569,0.0114033210083797
570,0.011369419780697
571,0.0114063205587708
572,0.0113882394690224
573,0.0113867969133464
574,0.0114300099632692
575,0.0112996629870047
576,0.0113402033339888
577,0.0113807436809729
578,0.0114212840279569
579,0.011461824374941
580,0.0115023647219251
581,0.0116416690715396
582,0.0115545716803862
583,0.0116039775719499
584,0.0113392034117367
585,0.0112320035706847
586,0.0107810582783721
587,0.0105271779723012
588,0.0103238363902656
589,0.01012049480823
590,0.00991715322619435
591,0.00994466835927064
592,0.0100189893483984
593,0.0100621082684061
594,0.0102243643098451
595,0.0102471232560786
596,0.0103717689530141
597,0.0104672715355043
598,0.0105410561181687
599,0.0105992524156255
600,0.0107338084929338
601,0.0108236887427909
602,0.0109089795084571
603,0.010853921347481
604,0.0109587272742528
605,0.0108858112700711
606,0.0109181542278899
607,0.0108859711412092
608,0.0107739109159912
609,0.0107848193720933
610,0.0107272569621643
611,0.0106640086879922
612,0.010542182879999
613,0.0104349081816877
614,0.0102471821194153
615,0.010314064086656
616,0.010166189746724
617,0.0102212247861398
618,0.0101720902963331
619,0.0101763138817967
620,0.0101122892153529
621,0.0101599481182367
622,0.00991666686013433
623,0.00988655414725868
624,0.00975633766269964
625,0.00962612117814059
626,0.00949590469358155
627,0.00946200050033458
628,0.00937301964394649
629,0.00932233682794648
630,0.00940536200966325
631,0.00926029827496113
632,0.00932192213693415
633,0.00933100199346473
634,0.00933115357564003
635,0.00936700181184425
636,0.00928222777951508
637,0.00934457946368206
638,0.00924597755743975
639,0.00929069049312672
640,0.00921668309531523
641,0.00917305746852579
642,0.00905836584003494
643,0.00890577966258711
644,0.00875319348513928
645,0.00860060730769146
646,0.00857276922168034
647,0.00848979164886076
648,0.00829143292931908
649,0.00844242727528734
650,0.00833792743498354
651,0.00838231318607182
652,0.00827761966899265
653,0.00814383475208266
654,0.00799728054524972
655,0.00807542344447091
656,0.00798039409747162
657,0.00806917055875548
658,0.008192666609137
659,0.00839262666116088
660,0.00846397593729599
661,0.00850146245926258
662,0.00851888351496853
663,0.00846021380970891
664,0.00837864370176781
665,0.00839128330925638
666,0.00839831809997342
667,0.00838490766688611
668,0.00835835163668198
669,0.00819549862125552
670,0.0082046949116575
671,0.00816549365543911
672,0.00811415438401473
673,0.00810296230718081
674,0.00811798114840948
675,0.00806711609451774
676,0.00802210920066332
677,0.00807439017400903
678,0.00794737497566289
679,0.00787930597779945
680,0.00808740498527536
681,0.00787238793542814
682,0.007654156673242
683,0.00747544324289942
684,0.00717337716618216
685,0.00690588266400657
686,0.0066921226874277
687,0.00652077241503725
688,0.00641555442385299
689,0.00637495391506987
690,0.00641584653182967
691,0.0065582704987024
692,0.006498971296331
693,0.00654811775170933
694,0.00668217690554314
695,0.00669440412237846
696,0.00681954407478742
697,0.00683685659293576
698,0.00674646813683782
699,0.00676207201647288
700,0.00691158662959475
701,0.00688930593449074
702,0.00702855685555344
703,0.0070988887161546
704,0.00725006574954108
705,0.00730493152019717
706,0.00746233205833344
707,0.0076067054814033
708,0.00764337349015663
709,0.00772365881013708
710,0.00766810992300027
711,0.00768495852253126
712,0.00762766715875187
713,0.00722599530840257
714,0.00693260082570021
715,0.0064214885526683
716,0.00597208020201703
717,0.00568245388811921
718,0.00558166281464007
719,0.00557755691554556
720,0.00565861054324956
721,0.00565885132349666
722,0.00578805374986307
723,0.0057453894545266
724,0.00572590797381181
725,0.00570786436092227
726,0.00569212849147945
727,0.0057964526813699
728,0.00592507099449902
729,0.00612236897844245
730,0.00638341579977882
731,0.006682256036305
732,0.00698402564128501
733,0.00726780438023652
734,0.00749526691231077
735,0.00761354469497128
736,0.00778228874694587
737,0.00789006010136863
738,0.00799783145579139
739,0.00810560281021416
740,0.00833264832226724
741,0.00840245686703707
742,0.00848056414297825
743,0.00855867141891943
744,0.00863677869486061
745,0.00866051157850006
746,0.0086200089233238
747,0.00864513593843535
748,0.00853250857866131
749,0.00858006865744618
750,0.00857991096389816
751,0.00849542017971716
752,0.00856892895620558
753,0.00840420604496526
754,0.00829571430762805
755,0.00770018280191252
756,0.00710465129619701
757,0.00650911979048148
758,0.00556786062330456
759,0.00475445272081306
760,0.00419942632432295
761,0.0040510538569691
762,0.00418797572502984
763,0.0044997830687811
764,0.00504886689467303
765,0.00553701903973873
766,0.00614749876382326
767,0.00671610121606933
768,0.0071069168019879
769,0.00731324662942359
770,0.00749227018925359
771,0.00758162497930178
772,0.00766166317170048
773,0.00777758608971636
774,0.00768743971737104
775,0.00767164892696569
776,0.00766084110099961
777,0.00759435847496767
778,0.00762211060288067
779,0.00753606456326954
780,0.00759749338882583
