"wavelength","measurement"
380,0.000977130610227815
381,0.00100594128977932
382,0.000991167104154384
383,0.00100929618963962
384,0.00104011843038198
385,0.00109094591595768
386,0.0011338245345066
387,0.00121297870581222
388,0.00130590100453149
389,0.00136622442307037
390,0.00133989023822048
391,0.00137353632220003
392,0.00138125583073689
393,0.00142435728600294
394,0.00152901122238512
395,0.00159487220995364
396,0.00177229560247089
397,0.00197604173680535
398,0.00217978787113982
399,0.00238353400547429
400,0.00254241876679084
401,0.00273747328471255
402,0.00287948964207831
403,0.00295539902110475
404,0.002987339047146
405,0.00301114795216678
406,0.00316687796879622
407,0.00322007554687134
408,0.00325277730636209
409,0.0033111609482575
410,0.00351739710085125
411,0.00357608788007117
412,0.00371073767167918
413,0.00381246168661467
414,0.00386466770359985
415,0.00390069860773939
416,0.00390581888231741
417,0.00389783133914938
418,0.0040001153577753
419,0.00389061135597336
420,0.00401503400806593
421,0.00402956175213003
422,0.00403612010591484
423,0.00412252742324511
424,0.00411474671320914
425,0.00409213241275126
426,0.00407084817896699
427,0.00396689230819482
428,0.00382000199071473
429,0.00384713265327333
430,0.00388390040310506
431,0.00403243448353917
432,0.00416597182328206
433,0.00436844549620141
434,0.00457603772017085
435,0.00469942469651206
436,0.00475051245401713
437,0.00481974048136522
438,0.00488896850871332
439,0.00495819653606142
440,0.00497411260059547
441,0.00510596095350461
442,0.00520509996083284
443,0.00530095801755751
444,0.00540990289896803
445,0.00551884778037854
446,0.00562779266178906
447,0.0057414493412881
448,0.00580496443485553
449,0.00606941986945004
450,0.0060236728931672
451,0.00598906486186242
452,0.00599626720613493
453,0.00600346955040745
454,0.00601067189467996
455,0.00598984800161378
456,0.00590336547614186
457,0.00608539214432597
458,0.00608701208309953
459,0.00619832310657242
460,0.00620641294344074
461,0.00616912194494991
462,0.00632940007528548
463,0.00616105571652883
464,0.00613675828429269
465,0.00606702559162399
466,0.0059889561408513
467,0.00598807025499862
468,0.0059292583946094
469,0.00582990202950878
470,0.00599380687894633
471,0.005989588001635
472,0.00602738598918578
473,0.00609995936188099
474,0.00614888714614852
475,0.00627485336458476
476,0.00612362003045924
477,0.00613228782162981
478,0.00614095561280037
479,0.00614962340397094
480,0.00615032963278376
481,0.00597822068406653
482,0.00594201144426917
483,0.00594578738618113
484,0.00583444841269815
485,0.00573624179167973
486,0.00578150542887379
487,0.0058332804057858
488,0.0058797557865792
489,0.0060466167176027
490,0.00610079759508169
491,0.00612971352408857
492,0.00628776827684554
493,0.00621138439739899
494,0.00630220294835082
495,0.00622007991345411
496,0.00625091651398908
497,0.00614137309688046
498,0.00615288765202716
499,0.00599542495548552
500,0.00604790631094709
501,0.00595472861349285
502,0.00606561092482914
503,0.00604857229919468
504,0.00603058215604421
505,0.00622502040265111
506,0.00620843103829236
507,0.00624945875488094
508,0.00629144837389117
509,0.00632078075197058
510,0.00621441730781517
511,0.00636601791011068
512,0.00633698240256277
513,0.00616342653939545
514,0.00614193514883158
515,0.00604633519276295
516,0.00601672567792579
517,0.00601315361706132
518,0.00602501143684506
519,0.00610631594850062
520,0.00625484961553801
521,0.00634511151119667
522,0.00643537340685532
523,0.00652563530251398
524,0.00649142321575647
525,0.00654573950221171
526,0.00655320772306485
527,0.0065314886792542
528,0.00657335116326349
529,0.0066603264397809
530,0.00668207186855625
531,0.00670876371401945
532,0.00668200586844591
533,0.00678188490301975
534,0.00681558303748146
535,0.00674140575918643
536,0.00684172086304238
537,0.00684663968329439
538,0.00686393671475021
539,0.0069207422175459
540,0.00711071487143228
541,0.00719008646237496
542,0.00730022483976595
543,0.00741044907848348
544,0.00748313842857873
545,0.00734803566527608
546,0.00732778970709083
547,0.00719544743160106
548,0.0070631051561113
549,0.00693076288062153
550,0.00679146366831435
551,0.0068219583597704
552,0.00680917144375291
553,0.00673236483840133
554,0.00667127155932126
555,0.00670910354140615
556,0.00663055534072548
557,0.00658185119629509
558,0.0065447454018039
559,0.00646535049084605
560,0.00652926647027408
561,0.00642217494574957
562,0.00650776281705233
563,0.00643144366512818
564,0.00642459643622485
565,0.00631445821279247
566,0.0062762992283579
567,0.00618152387053352
568,0.0062201553479395
569,0.00610293218870602
570,0.00609883132775507
571,0.00608997823188968
572,0.00609205896236063
573,0.00607927395395204
574,0.00614092348473807
575,0.00606696183896339
576,0.00609452168361852
577,0.00612208152827365
578,0.00614964137292877
579,0.0061772012175839
580,0.00620476106223903
581,0.00626405052949213
582,0.00623531203764872
583,0.00625391421851513
584,0.00613250945360495
585,0.00611334001476468
586,0.00589207381948003
587,0.00574553977988283
588,0.00563359147633043
589,0.00552164317277804
590,0.00540969486922564
591,0.00540054349836984
592,0.00542677384360714
593,0.00543792834753856
594,0.00549352422046373
595,0.00550693857208088
596,0.00554931447842912
597,0.00560797389502254
598,0.00564315596871255
599,0.005665689422279
600,0.00571191629405439
601,0.00576178846644355
602,0.00578651444040756
603,0.0057561501231313
604,0.00580078610273415
605,0.00578153246429906
606,0.00582356140606801
607,0.00589844191892815
608,0.00592981244731311
609,0.00605437534630437
610,0.00609886337231612
611,0.00612054225927775
612,0.00602327114229801
613,0.00590382986891372
614,0.00569159916827063
615,0.00562539575209823
616,0.00553336046877245
617,0.00554475868673441
618,0.00550772971898163
619,0.00549623475410483
620,0.00545880304580032
621,0.00545780111345753
622,0.00532757116638501
623,0.00530925461309457
624,0.00523421294290614
625,0.00515917127271772
626,0.0050841296025293
627,0.00507104020890297
628,0.00503318208498303
629,0.00501446711041827
630,0.00506716860479593
631,0.00497071466719099
632,0.00496055534081672
633,0.0049713830473709
634,0.00492661233679894
635,0.00496488427551891
636,0.00490109304636042
637,0.00493267094535848
638,0.00487350900114844
639,0.00489503139570608
640,0.00486034110742228
641,0.00483810025492135
642,0.00475589234031632
643,0.00468947672912881
644,0.0046230611179413
645,0.00455664550675379
646,0.00451888564376483
647,0.00450537791867008
648,0.00440860429630092
649,0.00450214221394186
650,0.0044126049632475
651,0.00447163247417825
652,0.0044026055188282
653,0.00431882313956258
654,0.00422283647008214
655,0.00425742644955377
656,0.0042035848381532
657,0.00423896482431996
658,0.00428472236935126
659,0.00440557370726521
660,0.00445900079383181
661,0.00446268328601503
662,0.00448435414243212
663,0.00444468952805469
664,0.00440001686534688
665,0.00440595924013546
666,0.0043911549415855
667,0.00438798358968013
668,0.0043943925317859
669,0.00430216032260076
670,0.00429050531377994
671,0.00426686671727087
672,0.0042346786185882
673,0.00425488264921237
674,0.00424224197016287
675,0.00424344991848825
676,0.00423061180272306
677,0.00422513720797228
678,0.00417363866296542
679,0.00413411019819143
680,0.00425139350539784
681,0.00414459000836247
682,0.00405606044272244
683,0.00397325675070651
684,0.00382617178940852
685,0.00370079908359592
686,0.00358982920544218
687,0.00350950586920454
688,0.00343045396173062
689,0.00344181703196874
690,0.00348915493355101
691,0.00355580324826226
692,0.00354650597985956
693,0.00356915027535812
694,0.00365015111520325
695,0.00366425763225681
696,0.00375057896381248
697,0.00376569363822735
698,0.00370141975084539
699,0.00374435144350964
700,0.00383010207343033
701,0.00383746962580076
702,0.003917103543014
703,0.00399391844614322
704,0.00409434716959219
705,0.00413700669389641
706,0.00424030427222142
707,0.00432443481789861
708,0.00435677021194955
709,0.0044149879842348
710,0.00438288442480103
711,0.00444829697841248
712,0.00443155325132859
713,0.00423418488465581
714,0.00406872716700456
715,0.00382227571182523
716,0.00354790003343213
717,0.00339597009387989
718,0.00335824315655501
719,0.00332971993972171
720,0.00339611687919173
721,0.00338552554761175
722,0.00350762027273621
723,0.00348849597341003
724,0.00349149359746346
725,0.00348126580813682
726,0.00349186903417785
727,0.00353490512379403
728,0.00360847996754965
729,0.0036939444986678
730,0.00387766153649551
731,0.00408403414861497
732,0.00421599049530114
733,0.00440747909302428
734,0.00458403853550291
735,0.00463899743612911
736,0.00472877672015406
737,0.0047913476409215
738,0.00485391856168893
739,0.00491648948245636
740,0.00505408901073127
741,0.00510705242425653
742,0.0051503291290698
743,0.00519360583388308
744,0.00523688253869635
745,0.00527387445557663
746,0.00526782284557038
747,0.00530186309759035
748,0.00519857222463936
749,0.00523432873561588
750,0.00525538651322802
751,0.00516711411859586
752,0.00524307241715915
753,0.00507629150913392
754,0.00511427056499561
755,0.00477362318051559
756,0.00443297579603558
757,0.00409232841155557
758,0.00354080667756149
759,0.00300172070337717
760,0.0026756758472792
761,0.00253235634896592
762,0.00261359777233777
763,0.00279644437240257
764,0.0031127997565023
765,0.0034117696162694
766,0.00378951352673994
767,0.00416587252838865
768,0.00437854896765221
769,0.00453400794981203
770,0.00458660361260108
771,0.00469030493308253
772,0.00474443570739553
773,0.00477734017651332
774,0.0047533057038781
775,0.00472661237638534
776,0.00477723742266875
777,0.00471671893645838
778,0.00470932109330905
779,0.00465398278824286
780,0.00466754961813259
