"wavelength","measurement"
380,0.0350844268463804
381,0.033369678083528
382,0.0329940312169818
383,0.0323305580863426
384,0.0323063342035661
385,0.0336204918844995
386,0.0349562550819761
387,0.0363794493876294
388,0.0375872913282472
389,0.0386385841836747
390,0.0382536328125577
391,0.0376091496265494
392,0.0375489368282513
393,0.0372536545127533
394,0.0377366924889435
395,0.0396389806425018
396,0.0433895800083931
397,0.0477217569893743
398,0.0520539339703555
399,0.0563861109513367
400,0.0587995815220611
401,0.0617406354348208
402,0.0634316029242768
403,0.0640344433322784
404,0.0642105748782737
405,0.0638011940050416
406,0.0647106588166908
407,0.0650854634696269
408,0.0658180613342439
409,0.0671116357187827
410,0.0700021217068603
411,0.0711237741197045
412,0.0731173644410977
413,0.0750759952341284
414,0.0755656816947511
415,0.0769554730452658
416,0.0770430067031732
417,0.0767937768653551
418,0.0788450823192641
419,0.0780009698890331
420,0.0803726316584814
421,0.0805673343656292
422,0.0816422902227202
423,0.0823286441454897
424,0.0829398704081659
425,0.0817269838193033
426,0.0814102560292675
427,0.0795358274567953
428,0.0774259967475559
429,0.077330932188807
430,0.0777699624917189
431,0.0803015579497866
432,0.083069322856087
433,0.0857583428668937
434,0.0891236409738873
435,0.0909797828046408
436,0.0918266724087331
437,0.0930187869696332
438,0.0942109015305332
439,0.0954030160914332
440,0.0957990520286467
441,0.0969327441233304
442,0.0985284352103443
443,0.0993089344972339
444,0.100318292200676
445,0.101327649904117
446,0.102337007607559
447,0.1034588014801
448,0.103263864600735
449,0.106914000686506
450,0.105932781261819
451,0.104769250572765
452,0.104151464164769
453,0.103533677756774
454,0.102915891348778
455,0.10259616891854
456,0.102590599237053
457,0.1035919609972
458,0.104272486519785
459,0.105306918483026
460,0.105694750706062
461,0.104334365155471
462,0.10728897251882
463,0.1041733571841
464,0.102756026212676
465,0.10188208858805
466,0.100227786431544
467,0.0999598017228433
468,0.0990202593462088
469,0.0981508662776184
470,0.100225831325974
471,0.099833284922414
472,0.100173016614892
473,0.101188149225511
474,0.101253359068168
475,0.102710342128486
476,0.100523814855202
477,0.100270798482144
478,0.100017782109085
479,0.0997647657360269
480,0.099447841227923
481,0.0967673948436902
482,0.0949323643548957
483,0.0943751554626023
484,0.0917991758325444
485,0.0898547228701471
486,0.0904784793341756
487,0.0909590953669896
488,0.0918342587686981
489,0.0941970243857212
490,0.0946327122350222
491,0.0953407225842437
492,0.0976765496890148
493,0.096186968895426
494,0.0976265398103657
495,0.0961446015830444
496,0.0968644172596028
497,0.0949167894113552
498,0.0952852269366729
499,0.093059723773915
500,0.0934376050507188
501,0.09241795471964
502,0.093734955424826
503,0.0942186297296469
504,0.0930344610737494
505,0.0958772065290712
506,0.0953882736451059
507,0.0959597484598134
508,0.0965022695504002
509,0.0964786340506142
510,0.0949466573547549
511,0.0960515654923544
512,0.095528413418708
513,0.0927128681708232
514,0.0923418341680974
515,0.0905101304150364
516,0.0898779906416691
517,0.0898850077787865
518,0.0893780378630605
519,0.091397810972757
520,0.092836915663292
521,0.0938257782308961
522,0.0948146407985001
523,0.0958035033661042
524,0.0953162332127038
525,0.0954159090140857
526,0.0957257432986418
527,0.0953903719101231
528,0.0958533837651216
529,0.0971497611665636
530,0.0970173050867431
531,0.0973731185426578
532,0.0969287652832007
533,0.0977082691984594
534,0.0978772613410489
535,0.096654821812276
536,0.0978647095664629
537,0.0971187148262145
538,0.0963217942241551
539,0.0955158483895774
540,0.0960630933756749
541,0.0950212422446726
542,0.094613539388386
543,0.0950709564766276
544,0.0954873007784881
545,0.0949153204152271
546,0.0955098740979708
547,0.0955091264110101
548,0.0955083787240495
549,0.0955076310370889
550,0.0950590052085566
551,0.0955259296699904
552,0.0965803930835083
553,0.0954595989388452
554,0.0952326442029442
555,0.0963866800112036
556,0.0948419545453602
557,0.0946865611459162
558,0.0940616221138784
559,0.0933285099960687
560,0.0946223213439937
561,0.0927890357441555
562,0.0944177364869757
563,0.0929826203789174
564,0.0934404696360235
565,0.0918620502027925
566,0.091263594597636
567,0.0900277989343524
568,0.0906430115627126
569,0.0892673204604389
570,0.0893674777710193
571,0.0895481809128584
572,0.0894032996024986
573,0.0894611259138058
574,0.0899535337414513
575,0.0887957521702386
576,0.0891320112768682
577,0.0894682703834979
578,0.0898045294901275
579,0.0901407885967571
580,0.0904770477033867
581,0.091651590312595
582,0.0908882413150933
583,0.0914570525652841
584,0.0895547767881718
585,0.0888113777120172
586,0.0856837270944785
587,0.0835428513010202
588,0.0821360257332719
589,0.0807292001655236
590,0.0793223745977753
591,0.0795829285995143
592,0.0803650993201518
593,0.0808571397565643
594,0.0826430325506679
595,0.0824127660733203
596,0.0835752321677591
597,0.0844364114022781
598,0.0850038669754755
599,0.0855455482096987
600,0.0865811767873263
601,0.0875306697814798
602,0.0881703174819966
603,0.0879074596181147
604,0.0892105821428296
605,0.0885118146415249
606,0.0885538454481319
607,0.0880449161011891
608,0.0870619284844606
609,0.0871063303185304
610,0.086446384698391
611,0.0858445723893116
612,0.0849565891338659
613,0.0847561852078234
614,0.0837564992146453
615,0.0851715415562224
616,0.0838882300915091
617,0.0846183491730302
618,0.0843832626142541
619,0.0846916411495658
620,0.0845159110182512
621,0.0849741417784168
622,0.0832200806014679
623,0.0832597211348666
624,0.0824464225019625
625,0.0816331238690583
626,0.0808198252361542
627,0.0806921647871277
628,0.0804204679872121
629,0.0801495028512198
630,0.0808697205846985
631,0.079911650563524
632,0.0805942836589707
633,0.0809224819403397
634,0.081232157516579
635,0.0818249537857327
636,0.0811994277708766
637,0.0819390342954976
638,0.0815547267028424
639,0.0818578533882433
640,0.0814227164114619
641,0.0810840474046299
642,0.0805979985418172
643,0.0796314347946196
644,0.0786648710474219
645,0.0776983073002242
646,0.0775364428679302
647,0.0773271594658677
648,0.0755357207200906
649,0.0768567689804499
650,0.0763469565580623
651,0.0770919844421119
652,0.076376918483986
653,0.0755223576580672
654,0.0742415483631741
655,0.0752115969716158
656,0.0744479412710752
657,0.0756747318116473
658,0.0767327491899782
659,0.0786844498353186
660,0.0797299560710899
661,0.080140305197175
662,0.0805694974442267
663,0.0805035883332338
664,0.0799998485273605
665,0.0802307309252214
666,0.0803903872609574
667,0.0805864888199363
668,0.0807051141888513
669,0.0790906451887578
670,0.0796717360530244
671,0.0794060019297147
672,0.079237165154526
673,0.0794659386533385
674,0.0797141329839885
675,0.0796579986532436
676,0.0794754176905891
677,0.0803048808634615
678,0.0792412848175271
679,0.079222721361183
680,0.0807967558997017
681,0.0795660142039747
682,0.0777237035663882
683,0.0758613378336968
684,0.073256144948725
685,0.0709913104343167
686,0.0692241815252858
687,0.0674618952425536
688,0.0666433356642048
689,0.066824085844636
690,0.0675366043777958
691,0.0685956459387843
692,0.0684260031573058
693,0.0692687177335975
694,0.0703282447872172
695,0.0706835097109806
696,0.07209017793772
697,0.0727198994447957
698,0.0718390280668725
699,0.0721159566065098
700,0.0736302980892501
701,0.0737040341206095
702,0.0752185311331561
703,0.0759629438202262
704,0.0780434807825172
705,0.0789228094057984
706,0.0804870997887219
707,0.0817935614589453
708,0.0823861202422035
709,0.0838285821135003
710,0.0836259110328314
711,0.083527918254602
712,0.0834343666766902
713,0.0794161094893225
714,0.0767799684506538
715,0.0715761290036772
716,0.067193672947311
717,0.063965208802679
718,0.0632196731553867
719,0.0638135745718391
720,0.064885730767925
721,0.064902835563973
722,0.0667188204437761
723,0.0664684194010436
724,0.0662968495713504
725,0.0666801664201953
726,0.0665285663438942
727,0.0682716270078239
728,0.0699224114751059
729,0.0727243564603589
730,0.0757706909642339
731,0.0796791395777219
732,0.0835740044376301
733,0.0874482819860314
734,0.0903406664068715
735,0.0915890407103534
736,0.0943784154282246
737,0.0960829087761369
738,0.0977874021240492
739,0.0994918954719615
740,0.101956527875332
741,0.103807395457701
742,0.105158854397732
743,0.106510313337764
744,0.107861772277795
745,0.108400418506966
746,0.109096411502112
747,0.109736430651201
748,0.108961166456309
749,0.109816709757097
750,0.10986584560593
751,0.109693885642685
752,0.111205881401064
753,0.110652942015021
754,0.108922422782927
755,0.101394404676763
756,0.0938663865706002
757,0.0863383684644369
758,0.0745204682444828
759,0.0639313017090669
760,0.0569662954148732
761,0.0553546162928823
762,0.0574796460186446
763,0.0623573210396363
764,0.0697968854658813
765,0.0768053909291672
766,0.0859385089371222
767,0.0941802658937555
768,0.099445876731776
769,0.102515517987995
770,0.105584541333463
771,0.107362992996159
772,0.108762952678831
773,0.110284887111607
774,0.109654262821963
775,0.110266766725645
776,0.110665105405933
777,0.109628491285338
778,0.110728095234816
779,0.109827480377821
780,0.111508667466663
