"wavelength","measurement"
380,0.0672694682871998
381,0.0648300905569238
382,0.0634056706284854
383,0.0618839585847509
384,0.061489825182811
385,0.0647635609631082
386,0.0678606869047052
387,0.0705162666915598
388,0.0729663101829776
389,0.0744860537688322
390,0.073899383504511
391,0.0731686853104363
392,0.0725017766058774
393,0.072764587589917
394,0.0738168842154045
395,0.0768071746186631
396,0.0851452441080667
397,0.0934158574000259
398,0.101686470691985
399,0.109957083983944
400,0.114223011282317
401,0.119681713722657
402,0.123301015555578
403,0.123299379554054
404,0.122639580198048
405,0.121788418126329
406,0.123525552350458
407,0.123709186246757
408,0.122964420245593
409,0.124957043538974
410,0.129608152293624
411,0.129648085872366
412,0.131806444882606
413,0.133695070082185
414,0.133546555451841
415,0.134342043568268
416,0.132981926104592
417,0.131054350821929
418,0.132449673135238
419,0.130527898916216
420,0.132594345726255
421,0.132081728516695
422,0.132973969733724
423,0.133989915876026
424,0.134596043798093
425,0.131526593206088
426,0.13017288517234
427,0.126406843607658
428,0.122464135591406
429,0.122063299744249
430,0.122340221613542
431,0.126975373847527
432,0.131138752435994
433,0.135813459964939
434,0.141647388525808
435,0.144237614785412
436,0.145527361828361
437,0.147672772736935
438,0.149818183645509
439,0.151963594554082
440,0.152718372197249
441,0.155459457141978
442,0.158977202894559
443,0.160762765516887
444,0.16327644963398
445,0.165790133751072
446,0.168303817868164
447,0.170873702340669
448,0.17197947095267
449,0.178282568556175
450,0.177389374134492
451,0.176223404664001
452,0.175825725922524
453,0.175428047181046
454,0.175030368439568
455,0.175210918876752
456,0.175676500754147
457,0.177693624325674
458,0.178999473021665
459,0.181683530604268
460,0.182254761862829
461,0.181068618391804
462,0.185772192213336
463,0.180952482163362
464,0.178721115852834
465,0.178147532157807
466,0.175340622977523
467,0.175427473974738
468,0.173385395048258
469,0.172763734878153
470,0.176933706020649
471,0.176721012571877
472,0.177784104792451
473,0.180395167549027
474,0.180995809275972
475,0.183616584114662
476,0.180500926377028
477,0.180583418784161
478,0.180665911191293
479,0.180748403598425
480,0.180088870302187
481,0.175966252105276
482,0.172645778780311
483,0.171972036443064
484,0.168165526224009
485,0.164618321664055
486,0.166076578908374
487,0.167651739829258
488,0.169719560047777
489,0.174071017390559
490,0.175214763419117
491,0.177094676581464
492,0.181399910530024
493,0.179423638554792
494,0.182239186004432
495,0.179911813275171
496,0.181311952319088
497,0.177906645343179
498,0.178726275992389
499,0.174886734489107
500,0.175899971402826
501,0.174490911521409
502,0.177143547258389
503,0.178125354187331
504,0.175897848111444
505,0.182275221681234
506,0.181270701446876
507,0.182157654021333
508,0.183742009689291
509,0.183889984521029
510,0.180867482257655
511,0.183327758190505
512,0.182529108572336
513,0.176782578130487
514,0.176113858096127
515,0.173122633678017
516,0.172087432767795
517,0.172117409507532
518,0.17146693396459
519,0.175119418964149
520,0.178272708855439
521,0.180446472461154
522,0.182620236066869
523,0.184793999672585
524,0.18367296742831
525,0.184198827807186
526,0.185023183286122
527,0.184104215883336
528,0.185199945170686
529,0.187710315491765
530,0.187744277436317
531,0.188576577373303
532,0.187819226208621
533,0.189820900919654
534,0.190460384398954
535,0.188368767830029
536,0.189964091782344
537,0.189074159774933
538,0.187418731344476
539,0.186206658703625
540,0.18719043296222
541,0.185893633946658
542,0.184939427469561
543,0.18575134492396
544,0.187223782119915
545,0.185903699181506
546,0.187545891959232
547,0.187533695767831
548,0.187521499576429
549,0.187509303385028
550,0.186537969086294
551,0.187938486812823
552,0.189954044526229
553,0.188465424073354
554,0.187589298274851
555,0.189763017076421
556,0.187506235189019
557,0.187107329866889
558,0.186421786719292
559,0.185155722336637
560,0.187210571046423
561,0.184277673612576
562,0.187921502014758
563,0.185167625219124
564,0.186085833209948
565,0.183698892852505
566,0.182933633996086
567,0.180652800521963
568,0.182031809174718
569,0.179535019846328
570,0.179858280594639
571,0.180404609377134
572,0.18062578636366
573,0.180572864151361
574,0.182154340488065
575,0.179884984937714
576,0.180664526033239
577,0.181444067128764
578,0.18222360822429
579,0.183003149319815
580,0.18378269041534
581,0.186104650139686
582,0.184542128687322
583,0.185654512307124
584,0.182406612951637
585,0.18096066659428
586,0.175376007338972
587,0.17186997089286
588,0.169364601660134
589,0.166859232427409
590,0.164353863194683
591,0.165339167273346
592,0.166920177687949
593,0.167628133458042
594,0.170937960837969
595,0.171025912177224
596,0.172989091720022
597,0.174546013726868
598,0.175467503736977
599,0.176407229801751
600,0.178662440724365
601,0.180363401436981
602,0.181388398495306
603,0.180899944410004
604,0.182979004702828
605,0.182325704172991
606,0.182473280448833
607,0.181729200006183
608,0.179431768070502
609,0.17980996041844
610,0.178446476874617
611,0.177452859514424
612,0.176150168725164
613,0.175385859220366
614,0.173454678184038
615,0.176391964822539
616,0.173955033483599
617,0.175673109764499
618,0.175183662133432
619,0.176211324196944
620,0.175789983065166
621,0.176667417973507
622,0.173412868001044
623,0.173527997960924
624,0.172126945929112
625,0.1707258938973
626,0.169324841865488
627,0.169209379198208
628,0.168704825395234
629,0.16821523025485
630,0.170060500849747
631,0.167849792018668
632,0.169274262032959
633,0.169976232355362
634,0.17058127103738
635,0.17180425990609
636,0.16998909362222
637,0.171848766268875
638,0.171059766690743
639,0.172050098852319
640,0.17099535085634
641,0.170626358787452
642,0.169470977394153
643,0.167860551347562
644,0.166250125300971
645,0.16463969925438
646,0.164624466684583
647,0.16410311927546
648,0.160856184282996
649,0.163969956408937
650,0.162687841724567
651,0.164072057362419
652,0.162852948223026
653,0.160780049224257
654,0.158203356743947
655,0.159886504469252
656,0.158897168659303
657,0.161169766438095
658,0.163403674769164
659,0.167933532569557
660,0.169575504001082
661,0.170767498388572
662,0.17143242540433
663,0.171038374232529
664,0.170053971031278
665,0.170769298719627
666,0.171056552182527
667,0.17203016824708
668,0.172540972883877
669,0.169191595492391
670,0.170439363518589
671,0.16978012819131
672,0.169133738479472
673,0.169819888027029
674,0.170357395240302
675,0.170415024555848
676,0.170095115499387
677,0.171761516709519
678,0.169891223723517
679,0.169534245323333
680,0.173849769782483
681,0.170607323205085
682,0.166722775788794
683,0.16345378830894
684,0.157999584393222
685,0.153086700426006
686,0.150046392533144
687,0.14637868929985
688,0.145568149403034
689,0.145521220372485
690,0.146626769596454
691,0.149073818648306
692,0.148890358522336
693,0.150727083508787
694,0.152513328017868
695,0.153102620369232
696,0.155643291454517
697,0.156656707851508
698,0.154696000286638
699,0.155231843260684
700,0.15828976904264
701,0.157521874465929
702,0.160795909159098
703,0.161897858483402
704,0.165849595644753
705,0.166252448404873
706,0.169997051620293
707,0.172811761917571
708,0.173287721108965
709,0.176042975243965
710,0.174556717853673
711,0.174745677660498
712,0.174437219180001
713,0.166262143675833
714,0.161265521331541
715,0.15080979164729
716,0.142044274028343
717,0.136281097051421
718,0.134121043198257
719,0.135186945614522
720,0.137537690971595
721,0.137109200037932
722,0.140874298391979
723,0.139932103291918
724,0.139761509939103
725,0.139986336226927
726,0.140052410540901
727,0.142922067691619
728,0.146025587584497
729,0.151185696763855
730,0.156667746533477
731,0.163913230315498
732,0.170542384344129
733,0.17789807275571
734,0.182082025299373
735,0.185238998769505
736,0.189426409794186
737,0.192362370538862
738,0.195298331283537
739,0.198234292028212
740,0.202915138151304
741,0.205202214881912
742,0.207667926021782
743,0.210133637161651
744,0.212599348301521
745,0.213546103652365
746,0.213856939395349
747,0.215242627404468
748,0.21310126533154
749,0.214889242154425
750,0.215652682861815
751,0.214995775999568
752,0.218090065222188
753,0.216275417733308
754,0.21346505837638
755,0.199272218996406
756,0.185079379616432
757,0.170886540236459
758,0.148123848069932
759,0.128310362315843
760,0.115562497724045
761,0.11322615646301
762,0.11755169138204
763,0.127156700954296
764,0.141054981644999
765,0.154572963763814
766,0.170662338324417
767,0.186486099375055
768,0.194956315053349
769,0.201901331378665
770,0.208082739630602
771,0.209802137268468
772,0.212284593126559
773,0.215824661709938
774,0.214531020622965
775,0.215214739421639
776,0.215857930940448
777,0.214211671517832
778,0.216984068637103
779,0.214573693819761
780,0.217625659621413
