"wavelength","measurement"
380,0.0349139827531393
381,0.0335299769722765
382,0.0325873330748395
383,0.0317554090263732
384,0.0317822663699912
385,0.0328560336165605
386,0.0346613122865881
387,0.0359339683916051
388,0.0371838716083533
389,0.0382197555619536
390,0.0378698154952698
391,0.0369541630462228
392,0.0368515972840609
393,0.036813035017716
394,0.036934682992698
395,0.0387174495536906
396,0.0421796972075735
397,0.0462054875769789
398,0.0502312779463842
399,0.0542570683157896
400,0.0568987696636571
401,0.0597669674194318
402,0.0614423927263894
403,0.0613968272660518
404,0.0609260808470247
405,0.0607345443789892
406,0.0611464289717277
407,0.0610748571603049
408,0.0606510394620761
409,0.0615479486760417
410,0.0637372519577485
411,0.0640558636357429
412,0.0650226010146427
413,0.0658989489894178
414,0.0658455625779281
415,0.066045390448643
416,0.0654235584566099
417,0.0644893683708581
418,0.0652724786929575
419,0.0637259643454182
420,0.065279103738912
421,0.0643254352573529
422,0.064774455832409
423,0.0654738921602049
424,0.0654239682674051
425,0.0638662265359605
426,0.0633769266314989
427,0.0615590091408536
428,0.0596638210771989
429,0.0591826156164625
430,0.0592502135630648
431,0.0607905584522293
432,0.0626829020496604
433,0.0648228241061955
434,0.0677192033398514
435,0.0691883114753993
436,0.0693206513174166
437,0.0703377100575526
438,0.0713547687976887
439,0.0723718275378248
440,0.0727024179934749
441,0.0739306981823117
442,0.0748726404053774
443,0.0758972696394669
444,0.0770467465462571
445,0.0781962234530473
446,0.0793457003598375
447,0.0802220390181556
448,0.0805719026928583
449,0.0835487787971224
450,0.0829669123276743
451,0.082747308672794
452,0.0824324451280481
453,0.0821175815833022
454,0.0818027180385564
455,0.0814608220494001
456,0.0817671451966565
457,0.0822305115953246
458,0.0829731221272015
459,0.0841079667245273
460,0.0841875060688957
461,0.0832173767959781
462,0.0855955112941992
463,0.0832806185194752
464,0.0821501074264285
465,0.0815670629476086
466,0.080481198934661
467,0.0800946400652058
468,0.0792077731570402
469,0.0785426418861315
470,0.0802094773712497
471,0.0799739481323457
472,0.0804479376709065
473,0.0812701558874409
474,0.0814362138634183
475,0.0828002972695972
476,0.0811076053793906
477,0.0809807055095741
478,0.0808538056397575
479,0.0807269057699409
480,0.0805750634810681
481,0.0783698777581563
482,0.0771795808719494
483,0.0765264624805348
484,0.0747102899104914
485,0.0731362928998256
486,0.0735393964663764
487,0.0739785108749001
488,0.074633733449667
489,0.0765496835290436
490,0.0770533688238941
491,0.0779416216561205
492,0.0799010589368845
493,0.0789357846296858
494,0.0801195043735103
495,0.0790050653462752
496,0.0794939558596885
497,0.0779171419317085
498,0.0785348903534308
499,0.076683720733887
500,0.0769617260983607
501,0.0763608666405713
502,0.0773317488941904
503,0.0777662718739156
504,0.0767935487808709
505,0.0794725691880343
506,0.0789550244928934
507,0.0794215275096486
508,0.0802820993322914
509,0.0802745499259137
510,0.0792359719207658
511,0.0804318863804061
512,0.0800024050460329
513,0.0777228124549008
514,0.0775183578935398
515,0.076300957540964
516,0.0758502304779236
517,0.0756392373787863
518,0.0756332713714385
519,0.0773424176766256
520,0.0788104441064016
521,0.0798522692452548
522,0.0808940943841079
523,0.0819359195229611
524,0.0816663336710279
525,0.0819817026684253
526,0.0824538103886779
527,0.0820295938160156
528,0.0825799319840314
529,0.0838032689707663
530,0.0839553696001187
531,0.084312356766934
532,0.084216397763434
533,0.0849099329999415
534,0.0852998864402743
535,0.0842530221539605
536,0.0852989385628997
537,0.0847901248197114
538,0.0841245742276989
539,0.0834341108907122
540,0.0840535534849323
541,0.0832544394809779
542,0.0826467120606039
543,0.0832860993158096
544,0.0836944747892589
545,0.0830862589189337
546,0.0839301267526468
547,0.0839485739016663
548,0.0839670210506858
549,0.0839854681997053
550,0.0834935384135751
551,0.0841670007949398
552,0.0848309442243676
553,0.0840513129408554
554,0.0835928327866265
555,0.0847763085092139
556,0.0835695592841564
557,0.0833233444562157
558,0.0829905699578032
559,0.0821276762206759
560,0.0832611660294303
561,0.0816340109132666
562,0.0828741315771625
563,0.081677250276069
564,0.0820178346296885
565,0.0807677473590621
566,0.0802720962537847
567,0.0790460169911652
568,0.0793945926561324
569,0.0783460119986298
570,0.0782578096536039
571,0.0781348957722217
572,0.0781171089808777
573,0.078024549632431
574,0.0785415720145651
575,0.0774973879753411
576,0.0777018990201219
577,0.0779064100649027
578,0.0781109211096836
579,0.0783154321544644
580,0.0785199431992452
581,0.0793885347561466
582,0.0788679807780317
583,0.0792791466226977
584,0.0776792553375955
585,0.0771292437532693
586,0.0746221777291864
587,0.0726458174697946
588,0.0714077926772514
589,0.0701697678847082
590,0.0689317430921649
591,0.0691739268656716
592,0.0698154554733814
593,0.0701053995512634
594,0.0715554084699821
595,0.0715886900372207
596,0.0722991437966017
597,0.0730276142196438
598,0.0735001200086108
599,0.0739531384280781
600,0.074747296907182
601,0.0755267169421131
602,0.0760227644173923
603,0.0755521403819996
604,0.0767837845335199
605,0.0760747338397738
606,0.076254351102775
607,0.0758345859802906
608,0.0749886344301592
609,0.0749203517047788
610,0.0742469595086501
611,0.0737737254630479
612,0.0730444460145647
613,0.0727770155555439
614,0.0717894369852102
615,0.0731041285088381
616,0.0718330036506218
617,0.0723140277628385
618,0.0721977755680765
619,0.0723903179193407
620,0.0721927415546018
621,0.0727066085692931
622,0.0712252727458849
623,0.0710077739812807
624,0.070392893806507
625,0.0697780136317333
626,0.0691631334569596
627,0.0691390594397579
628,0.0688204542849471
629,0.0685978225617837
630,0.069218206868898
631,0.0684324926601184
632,0.0689030645295606
633,0.0692203919847521
634,0.0693019300343024
635,0.0697974372374296
636,0.0693800870875539
637,0.0699709962530894
638,0.0694163852983355
639,0.0698036699280641
640,0.0692612341921792
641,0.0689768603617123
642,0.0683357712271152
643,0.0675564553739258
644,0.0667771395207364
645,0.065997823667547
646,0.0657603690429971
647,0.0655383831266279
648,0.0641349958616449
649,0.0652373545300878
650,0.0646248811132988
651,0.0650930683772495
652,0.0645715578839547
653,0.0638183054946338
654,0.0627788734963686
655,0.0631971375055627
656,0.0629504440905373
657,0.0635298241879079
658,0.0644213144005618
659,0.0662170257173377
660,0.0667904513601716
661,0.0672617242215743
662,0.0676356192520715
663,0.067242413131875
664,0.0669581369290582
665,0.066981618039213
666,0.0669697862843865
667,0.067336275987255
668,0.0674940783877774
669,0.0659337191445449
670,0.0664419659711052
671,0.0664809367272433
672,0.0660403414055765
673,0.066323705780801
674,0.0664284018163842
675,0.0662305721032052
676,0.0663067441221855
677,0.0667185317099385
678,0.0658925189000885
679,0.0661206461842136
680,0.0676032548721084
681,0.0662183215399171
682,0.0650177779901264
683,0.0638195637299113
684,0.0616954910891856
685,0.0599071381933931
686,0.0586056168296763
687,0.0573748197771874
688,0.0568305007238934
689,0.0571835757211839
690,0.0578569819971872
691,0.0591515113696286
692,0.0592716640024458
693,0.0602790134023081
694,0.0618233156936203
695,0.0622606144652315
696,0.0637783105911159
697,0.0648080880930558
698,0.0645966229312722
699,0.0651754796605901
700,0.0670527019125461
701,0.0673572452193753
702,0.0692538523464936
703,0.0704262799454108
704,0.0726829387309831
705,0.0735813888354871
706,0.0756010093127788
707,0.0775005508968673
708,0.0783566433375731
709,0.0802524120739658
710,0.0804238815992835
711,0.0810711147117103
712,0.0814326598157965
713,0.0781827973459718
714,0.0761879375547142
715,0.0716114960481634
716,0.0677555051056065
717,0.065387440383907
718,0.0648144745998293
719,0.0660568537680199
720,0.067139404473922
721,0.0672426377545841
722,0.0698647892368329
723,0.0702438117280493
724,0.0703288401223031
725,0.0712107816162889
726,0.0716670386323367
727,0.0735351050517798
728,0.0759127198752117
729,0.0792327692949211
730,0.082610926505904
731,0.0871385497869719
732,0.0915024055625186
733,0.0959843750161919
734,0.0994400989848409
735,0.101681371781476
736,0.104682290723309
737,0.106959347715262
738,0.109236404707216
739,0.111513461699169
740,0.114965524848885
741,0.116636504120585
742,0.118613878767601
743,0.120591253414618
744,0.122568628061635
745,0.123300740352609
746,0.124154189364724
747,0.125405335699238
748,0.124638886892951
749,0.126084735205344
750,0.126544059437353
751,0.126114458827148
752,0.12813857706286
753,0.127521553598418
754,0.126038255033941
755,0.117774268454258
756,0.109510281874576
757,0.101246295294894
758,0.0877805333119831
759,0.0757737757243028
760,0.0679349028827978
761,0.0660856520824605
762,0.0683218495723139
763,0.0738956710952659
764,0.081971625912947
765,0.0902572474141277
766,0.100575666577688
767,0.110369227001469
768,0.115919013168311
769,0.120398922174875
770,0.123922084709067
771,0.125441369746196
772,0.12713205836367
773,0.129464177048037
774,0.128462569194094
775,0.128811596234054
776,0.129556020351101
777,0.128065666863112
778,0.129872209343097
779,0.128649795550234
780,0.130412609447207
