"wavelength","measurement"
380,0.0636584986176076
381,0.0618263871084274
382,0.0604788044629805
383,0.0585056509953488
384,0.0589120518627188
385,0.0616998007032338
386,0.064298960135646
387,0.0662958845590931
388,0.0688332248187205
389,0.070443470335749
390,0.0695370610921305
391,0.0688523429506455
392,0.0688208261842681
393,0.0681695071541997
394,0.0690313332109554
395,0.0725839318606727
396,0.0791394349970278
397,0.0868422553508714
398,0.094545075704715
399,0.102247896058559
400,0.106646576568957
401,0.111681165849889
402,0.114901474424948
403,0.114477760816279
404,0.114226338918715
405,0.112732774277285
406,0.113557572644874
407,0.113894572259119
408,0.114051919089471
409,0.114711229433801
410,0.118834199827327
411,0.118274579795305
412,0.121076628508938
413,0.122712303297768
414,0.121238756376525
415,0.121942527325036
416,0.120678462305215
417,0.118815473994205
418,0.120217072655456
419,0.117570770766612
420,0.119165995864697
421,0.11834048475799
422,0.118959506171772
423,0.120222115696999
424,0.119751482194443
425,0.117385125029264
426,0.116088430864592
427,0.111999511877562
428,0.10874544984618
429,0.108541389323475
430,0.107783288082565
431,0.112431006208718
432,0.115588870111973
433,0.119275883383629
434,0.124358199228994
435,0.126954768768944
436,0.127796642183713
437,0.129638955859791
438,0.13148126953587
439,0.133323583211949
440,0.133705606630543
441,0.136123353312334
442,0.138667776992277
443,0.140167136138379
444,0.142277076181469
445,0.14438701622456
446,0.14649695626765
447,0.148595951638381
448,0.149685226575257
449,0.154374691551902
450,0.154526185476343
451,0.153471505602741
452,0.15293127415554
453,0.152391042708339
454,0.151850811261139
455,0.151755826420689
456,0.152096732023206
457,0.15401635064321
458,0.154919697112399
459,0.157380980782168
460,0.157620153741247
461,0.155973148837014
462,0.160014416378282
463,0.155594896231885
464,0.154239998412158
465,0.152569022769174
466,0.150912426538737
467,0.150271095871905
468,0.149011320807199
469,0.147410814365104
470,0.151246983401293
471,0.151143421888689
472,0.151872111318995
473,0.153985547463534
474,0.15416117772824
475,0.15645380497232
476,0.153515153134695
477,0.153511802091862
478,0.153508451049028
479,0.153505100006194
480,0.152938921906533
481,0.148906583743132
482,0.146440148136248
483,0.145456730191201
484,0.142063799213088
485,0.138818127413841
486,0.140502069126041
487,0.141478292370273
488,0.142605199049642
489,0.146848218912907
490,0.147921257662032
491,0.148962542668129
492,0.152729852030667
493,0.150756008131818
494,0.153436690643708
495,0.151087586283331
496,0.151650213379461
497,0.148956005363976
498,0.149845291656743
499,0.14679679634532
500,0.147184464751789
501,0.145931842331323
502,0.148443324032328
503,0.148786937501803
504,0.146983498724174
505,0.151853433385102
506,0.151228220331837
507,0.152355536020487
508,0.153009610414983
509,0.153459587621767
510,0.15114343029141
511,0.153013181540987
512,0.152181897558109
513,0.147649520762168
514,0.146775654335694
515,0.14428605613762
516,0.143403367821834
517,0.143230077126749
518,0.142829918566526
519,0.145453587795949
520,0.148446568005848
521,0.150282918991233
522,0.152119269976618
523,0.153955620962003
524,0.152746898470069
525,0.153454556151537
526,0.15376982416993
527,0.152993255143999
528,0.154238148234709
529,0.156098084179251
530,0.156110632572824
531,0.156701977120264
532,0.156085525947419
533,0.157419169094644
534,0.157987880111171
535,0.156409805933647
536,0.157973092247642
537,0.1565888827718
538,0.15560943019437
539,0.154206159866322
540,0.155099893450987
541,0.154018145833775
542,0.153149745041369
543,0.153864458187888
544,0.154727613617048
545,0.153418016964194
546,0.15489856944451
547,0.154872257726139
548,0.154845946007768
549,0.154819634289397
550,0.153716892611234
551,0.155323197382713
552,0.156705545670969
553,0.155179323670207
554,0.154350367212245
555,0.155950626625409
556,0.154125533184804
557,0.153935729376355
558,0.153021051562527
559,0.151463116702894
560,0.153734378161589
561,0.151009754898809
562,0.153705879026262
563,0.151165711563426
564,0.152187570388243
565,0.149787193661464
566,0.149083729889312
567,0.146953035125027
568,0.147864951973314
569,0.145752537307258
570,0.14580545843449
571,0.146440384080914
572,0.14611599445927
573,0.145969793506679
574,0.14724117380704
575,0.145539670891145
576,0.146036493773796
577,0.146533316656448
578,0.1470301395391
579,0.147526962421751
580,0.148023785304403
581,0.149853282309861
582,0.148658132248995
583,0.149802796709441
584,0.146977201048736
585,0.14542030282739
586,0.140355965253164
587,0.137444655678067
588,0.135116743783472
589,0.132788831888877
590,0.130460919994283
591,0.131339344470935
592,0.132412337414366
593,0.133160448686917
594,0.135537012442628
595,0.136067851598747
596,0.137237601470447
597,0.138836880678523
598,0.139578098114827
599,0.140647694585012
600,0.141971570848064
601,0.143404236482674
602,0.14441508031735
603,0.144165548718754
604,0.145660378299178
605,0.144637898304571
606,0.144958606341168
607,0.144588967247762
608,0.142509050850245
609,0.14257967075275
610,0.141585643938563
611,0.140493233534517
612,0.139458576317279
613,0.138926780916152
614,0.137333705294167
615,0.13914398989078
616,0.137193430534232
617,0.138442201999894
618,0.138387434629594
619,0.138605231557341
620,0.138398550666663
621,0.139270065364807
622,0.136600612141446
623,0.136739104810609
624,0.135445756475053
625,0.134152408139497
626,0.132859059803941
627,0.132681688281417
628,0.132033871066502
629,0.131570706058664
630,0.1326141017373
631,0.131317127024895
632,0.132183105445374
633,0.132794881360185
634,0.133150516129657
635,0.134302182784208
636,0.133054155584008
637,0.134241515170428
638,0.133714608994052
639,0.134292653572627
640,0.133622713698534
641,0.132999262035533
642,0.132026935790148
643,0.130553136741288
644,0.129079337692428
645,0.127605538643569
646,0.127324879167118
647,0.126614881166785
648,0.124386545451722
649,0.126467638368232
650,0.125672549479874
651,0.127013352104872
652,0.125728733700829
653,0.124012649566
654,0.121923735249921
655,0.123320887461502
656,0.122232986184579
657,0.124154569523266
658,0.126180985756496
659,0.129867437454514
660,0.1310831862003
661,0.131936903858226
662,0.132306010935096
663,0.132217532135231
664,0.131429180912652
665,0.132027604603027
666,0.13197566202717
667,0.13265062586746
668,0.133040257061143
669,0.129971209675118
670,0.131161443621049
671,0.131038169567883
672,0.130628185394406
673,0.130724909800584
674,0.130705981504879
675,0.131277217335374
676,0.130966813135389
677,0.132264287284441
678,0.130575320261443
679,0.130773086657485
680,0.133103286515249
681,0.131128665872962
682,0.128070368592497
683,0.125612895355944
684,0.121309685212554
685,0.117376620393692
686,0.114526835201554
687,0.111780119750062
688,0.111315456446619
689,0.110978223947015
690,0.111757844936561
691,0.113716310757194
692,0.113294161826829
693,0.115024264526474
694,0.116583851930526
695,0.117065399684072
696,0.119066137066287
697,0.120266635444087
698,0.119193182356361
699,0.119472304190826
700,0.121639512758474
701,0.12172162683074
702,0.124363052048707
703,0.125530708386849
704,0.128353651322861
705,0.129625164714036
706,0.132446165806122
707,0.134947643098512
708,0.135910069494505
709,0.138007448504571
710,0.137103831480245
711,0.137670139192875
712,0.137272443844056
713,0.131625968300039
714,0.127286981289024
715,0.118888799460198
716,0.111393822570052
717,0.106880892768322
718,0.105566769863867
719,0.106306653549011
720,0.108326460403248
721,0.108310720351647
722,0.111338373383993
723,0.110293909287233
724,0.110804137430906
725,0.111144497745976
726,0.111031670638253
727,0.113851841009575
728,0.116607394374302
729,0.121120771085536
730,0.12547071759046
731,0.131956825161232
732,0.137701209273952
733,0.144114674168257
734,0.148085048131576
735,0.151195159887546
736,0.154997796968766
737,0.15770298344785
738,0.160408169926935
739,0.163113356406019
740,0.167774760275815
741,0.169402657271101
742,0.171641830970485
743,0.17388100466987
744,0.176120178369255
745,0.177208533466474
746,0.177713947755718
747,0.178713254322345
748,0.177759355940042
749,0.178649293061504
750,0.179308963814582
751,0.179299354768698
752,0.181282545365093
753,0.180052426105205
754,0.178301084495808
755,0.166101128630985
756,0.153901172766162
757,0.14170121690134
758,0.122800279949456
759,0.106046251883558
760,0.0950585931011366
761,0.0929677770058453
762,0.0956044131404607
763,0.10399851332811
764,0.115306787164071
765,0.127040377951578
766,0.140964561843484
767,0.153563592691072
768,0.161983458714112
769,0.167709410478835
770,0.171978702270949
771,0.174809945565378
772,0.176421167157665
773,0.179384485323912
774,0.178479641281062
775,0.178765825675694
776,0.179712139042929
777,0.177299060760335
778,0.180171087660105
779,0.178273122655322
780,0.180757275822062
