"wavelength","measurement"
380,0.00152107102165661
381,0.00153695628477494
382,0.001569449753655
383,0.00152745145725729
384,0.00156012941380976
385,0.00165428430539453
386,0.001784527177758
387,0.00189962421044777
388,0.00199740968888889
389,0.00208812962291572
390,0.00206943288555336
391,0.00210801112276275
392,0.00211223268910886
393,0.00221236319248639
394,0.00229380699602228
395,0.00239587141156068
396,0.00267577410949983
397,0.00299486584553969
398,0.00331395758157955
399,0.0036330493176194
400,0.00383605522769566
401,0.0041170009223685
402,0.00432277015005686
403,0.0043982634984002
404,0.00443233184983075
405,0.00447890420212229
406,0.00459605284698271
407,0.00466770631253218
408,0.00471914094834682
409,0.00483623308853232
410,0.00507013309191663
411,0.00513183461950106
412,0.00528221693983554
413,0.00543213208791074
414,0.00545048251324156
415,0.00553041122335304
416,0.00549207380862914
417,0.00545869087671098
418,0.00558831249048651
419,0.00545493051711016
420,0.00562521726756108
421,0.00559827332142623
422,0.00567347181124241
423,0.00574618569760215
424,0.00574711973555942
425,0.00566803912322982
426,0.00562755616823834
427,0.00552269816777441
428,0.0052811564906201
429,0.00533152575128225
430,0.00534104787064168
431,0.0055540207246167
432,0.00572914361558758
433,0.00597128034005201
434,0.00628185110626307
435,0.00641839122109558
436,0.00652589054959302
437,0.00662275177283925
438,0.00671961299608548
439,0.00681647421933172
440,0.00680995966114148
441,0.00700537969206255
442,0.00716849108063959
443,0.00724535405222826
444,0.00738868642417086
445,0.00753201879611347
446,0.00767535116805607
447,0.00785425569129287
448,0.00793687863620778
449,0.00823873522921243
450,0.00822898585519309
451,0.00817542872109097
452,0.0081753454192606
453,0.00817526211743023
454,0.00817517881559985
455,0.00815581321955968
456,0.00811082428063845
457,0.00830844334089788
458,0.00830506872183914
459,0.00846394081093037
460,0.00847382395900634
461,0.00838902663577653
462,0.00866867491726763
463,0.0084173433854096
464,0.00836768450376853
465,0.00828464868259911
466,0.00816156909118601
467,0.00817345479989552
468,0.00810785342823996
469,0.00803322242352617
470,0.00821601944524653
471,0.00818305065809823
472,0.00825195131848064
473,0.00836560991076655
474,0.0083882314180515
475,0.00853652753599401
476,0.00835146433842743
477,0.00836757506449423
478,0.00838368579056102
479,0.00839979651662782
480,0.00839532754270647
481,0.00818993613934172
482,0.00807541678717503
483,0.00809250571094601
484,0.00791669292975932
485,0.00776765392817235
486,0.0078122059339348
487,0.00788664582453474
488,0.00795182287935079
489,0.0081997944661314
490,0.00824390302180916
491,0.00831216888453121
492,0.00854066639047669
493,0.00844384336149676
494,0.00857424285267464
495,0.00846146054606907
496,0.00850221181467273
497,0.00834607296105759
498,0.00841211819058202
499,0.00817591566576813
500,0.00823177398607708
501,0.00813691026953872
502,0.008255237887876
503,0.00826091399012968
504,0.00818544592365702
505,0.0085007432733379
506,0.00845305068873873
507,0.00850880972337039
508,0.00857908067029032
509,0.00858572404869488
510,0.00847083635480639
511,0.0086497855004274
512,0.00856630471427353
513,0.00837876365124873
514,0.00834118720069534
515,0.0081968372071088
516,0.00815507521705494
517,0.00815747702835442
518,0.00813778603713981
519,0.00827405477093761
520,0.00845781090938684
521,0.00856884623888212
522,0.0086798815683774
523,0.00879091689787269
524,0.0087446103612306
525,0.00880602106565019
526,0.00881632705368907
527,0.00879589989463118
528,0.00886083018520044
529,0.00896660347968818
530,0.00898633882337363
531,0.00900546328967487
532,0.00899005651284428
533,0.00908993554741811
534,0.00912363368187982
535,0.00904236198562045
536,0.00914620240210683
537,0.00913567882029295
538,0.00913515769551889
539,0.00916630505334354
540,0.00933708336529307
541,0.00940934302119003
542,0.00948116716230324
543,0.00962053544518908
544,0.00965837894112245
545,0.00954924853543832
546,0.00953900154627596
547,0.00940767307187184
548,0.00927634459746772
549,0.0091450161230636
550,0.00900776859891462
551,0.0090576196653104
552,0.00908057635387621
553,0.00896258216348954
554,0.00888757648992153
555,0.00894424480859229
556,0.00884983817516263
557,0.0088113048861163
558,0.00873313686320374
559,0.00863916555089138
560,0.0087470931973204
561,0.0085873913084659
562,0.00872882801452127
563,0.00856780939478953
564,0.00858885811800524
565,0.00844514840808235
566,0.00840810175831626
567,0.00826964755803737
568,0.00829658638361323
569,0.00816074694612889
570,0.00814675331346099
571,0.00816975940937991
572,0.00815191993385376
573,0.00814045199100244
574,0.00818334401206887
575,0.0080978572215549
576,0.00813002449654353
577,0.00816219177153217
578,0.0081943590465208
579,0.00822652632150944
580,0.00825869359649807
581,0.00833325576909107
582,0.00829208890799902
583,0.00832844027158732
584,0.00815501415420901
585,0.00812342510466079
586,0.00783830914769709
587,0.00761573345777101
588,0.00746606540389062
589,0.00731639735001023
590,0.00716672929612985
591,0.0071693855329508
592,0.00722358846753824
593,0.00723934996387613
594,0.0073517362146788
595,0.00731765737936801
596,0.00740961538460036
597,0.00746734201660958
598,0.00752678962729984
599,0.00754932308086629
600,0.00761997095373929
601,0.00766355230427304
602,0.007729410574984
603,0.0076818860868477
604,0.0077330296621882
605,0.00772768020710915
606,0.00775140379882197
607,0.00779822413692501
608,0.00781670866230992
609,0.00791976934389075
610,0.0079542003755475
611,0.00793096820286034
612,0.00784030923669783
613,0.00771211818115752
614,0.00746408694541661
615,0.00742783335915662
616,0.00730742916251418
617,0.00733607732637832
618,0.00730140878534331
619,0.00727888791254693
620,0.00722748085774322
621,0.00726907006658218
622,0.00707590288828945
623,0.00703649357936614
624,0.00694450559268635
625,0.00685251760600657
626,0.00676052961932678
627,0.00673655335961444
628,0.00667578508286706
629,0.00666339377468533
630,0.00671248893993112
631,0.00659744281006223
632,0.00660912290491523
633,0.00661480496881008
634,0.00659055989836087
635,0.00659660040731693
636,0.00653829421426975
637,0.00657721614964201
638,0.00648564541521895
639,0.00653389449671262
640,0.00647445038278473
641,0.00644961043333204
642,0.00636469120297259
643,0.00627269791590671
644,0.00618070462884082
645,0.00608871134177494
646,0.00605009752106804
647,0.00600653486357252
648,0.00586078786089768
649,0.00596986780900494
650,0.00587852191965671
651,0.00590982864928235
652,0.00587666791808535
653,0.00572089033429273
654,0.00562493431970473
655,0.00565638874160694
656,0.00560177637862506
657,0.00564541128939846
658,0.00571967788439758
659,0.00588803116778016
660,0.00592476447577882
661,0.00594671071494987
662,0.0059641971785491
663,0.00591737245715211
664,0.00586407701112838
665,0.00586798959411049
666,0.00586957471483927
667,0.00585662664188118
668,0.00583569798883733
669,0.00571588732463341
670,0.00574283996320371
671,0.00569499057057375
672,0.00565510809388901
673,0.00565858988068798
674,0.00565091638903111
675,0.00563441566288531
676,0.00561305110775188
677,0.00562086759850836
678,0.0055611097496245
679,0.00550977039272099
680,0.00564335553379916
681,0.0055251111929787
682,0.00538555874850996
683,0.0052601710316266
684,0.0050608238579913
685,0.00489873972884843
686,0.00475576614298889
687,0.00463594397784424
688,0.00453058798302292
689,0.00453556607709312
690,0.00459629797703584
691,0.00464799984204816
692,0.00464833039950632
693,0.00467515689818755
694,0.00478695276712233
695,0.00479354445625812
696,0.00488607121389741
697,0.00492099332809791
698,0.00485143804067582
699,0.00488355840966757
700,0.00497618558885276
701,0.00494032317397939
702,0.005064020762029
703,0.00514495272669448
704,0.00528040247511926
705,0.00532952580245765
706,0.00545382198210304
707,0.00554992983218298
708,0.00559084859611671
709,0.00566100425937157
710,0.00560965490157437
711,0.00565888933570139
712,0.00564546509554156
713,0.00539048085853061
714,0.00518292302538542
715,0.00486245533241334
716,0.00453049005930416
717,0.00428589256954549
718,0.00424165584684778
719,0.00421362091865833
720,0.0043120850652542
721,0.00427044470690436
722,0.00443236451657678
723,0.00441264901575357
724,0.00438577071008172
725,0.00439146649515049
726,0.00436083451159139
727,0.00445825785448141
728,0.00454776557858194
729,0.0046596962300504
730,0.00485897281542581
731,0.00511162336695154
732,0.00529795273428292
733,0.00553880227773757
734,0.00572941479876409
735,0.00578273147300965
736,0.00591085126893448
737,0.0059958608410885
738,0.00608087041324253
739,0.00616587998539655
740,0.00635100116585666
741,0.00640741544441642
742,0.00646920405487059
743,0.00653099266532477
744,0.00659278127577894
745,0.00660674698916755
746,0.00660889775252378
747,0.00661971692352158
748,0.00652168117498862
749,0.00655819092046507
750,0.00652679817711493
751,0.00652225743154336
752,0.00656561206236313
753,0.00640937643733675
754,0.00638658873784462
755,0.00596330671152627
756,0.00554002468520792
757,0.00511674265888957
758,0.00442247203898527
759,0.00378694577318942
760,0.00331599524053465
761,0.00313653362403638
762,0.00325414488765133
763,0.00346754291989266
764,0.00386727358992839
765,0.00425249755847673
766,0.00474623958193456
767,0.00517808612853215
768,0.0054624183788707
769,0.00562510315710531
770,0.00574392214610223
771,0.00584664688929599
772,0.00593871747227199
773,0.0060020206465129
774,0.00591849816546559
775,0.00590062687808961
776,0.0059490819959154
777,0.00582081181814559
778,0.0059037386155663
779,0.00580643814202215
780,0.00585306189413646
