"wavelength","measurement"
380,0.00768174721338903
381,0.00739644525494775
382,0.00732632262868871
383,0.00739701994449733
384,0.00740766739546144
385,0.00796256398931236
386,0.00847183695558599
387,0.00880431134888634
388,0.00909258633358014
389,0.00961342448795657
390,0.00956585614682741
391,0.00955896406519638
392,0.0098528099419182
393,0.00994505537682186
394,0.0103132447822937
395,0.0110093434983695
396,0.0122942464065894
397,0.0137155205655643
398,0.0151367947245392
399,0.0165580688835141
400,0.017623730970165
401,0.0186935097845948
402,0.0194203454134973
403,0.0198526095032607
404,0.0200758395300739
405,0.0202443805167562
406,0.0208512288276957
407,0.021267267104174
408,0.0215810147957207
409,0.0221270879779239
410,0.0233752197078262
411,0.0237588931106414
412,0.0246420197624595
413,0.0252644934333648
414,0.0254673171177056
415,0.0258810706231618
416,0.0259779259839399
417,0.02582104598183
418,0.026431372605718
419,0.0260271956896247
420,0.0268001970341572
421,0.0269577894695791
422,0.0272893532036706
423,0.0277358125688678
424,0.0278846799311225
425,0.0275219908295778
426,0.0273680482069352
427,0.0268016462660461
428,0.0260115170264368
429,0.0261617371239752
430,0.0262391020231654
431,0.0275131698668349
432,0.0285879799182704
433,0.0297472376057577
434,0.0311371759000778
435,0.0317994476001697
436,0.0323069141990029
437,0.0329402537633628
438,0.0335735933277228
439,0.0342069328920827
440,0.0345202206472377
441,0.0351559317176584
442,0.0361896610935157
443,0.0365813638787763
444,0.0372301986772251
445,0.0378790334756739
446,0.0385278682741226
447,0.039211660643341
448,0.0396502563901047
449,0.0411646805967021
450,0.0408694034289673
451,0.0408094187101121
452,0.040814582234401
453,0.0408197457586898
454,0.0408249092829787
455,0.0408346115408761
456,0.0410628133009633
457,0.0416098808657977
458,0.0420471904657379
459,0.0426354125321502
460,0.0428842675704912
461,0.0424602477183056
462,0.04369290970581
463,0.0426624586669249
464,0.0421592813695109
465,0.0419970179175713
466,0.0415075314146672
467,0.0415616048222405
468,0.0412531963148238
469,0.0410852403983475
470,0.0420698306725856
471,0.0420923050310787
472,0.042425993331535
473,0.0430864514638785
474,0.0433108893862415
475,0.0440318990082411
476,0.0431303501189166
477,0.0431913382081744
478,0.0432523262974321
479,0.0433133143866899
480,0.0431816168426428
481,0.0421438377395628
482,0.0415424776600487
483,0.0413335149763768
484,0.0403546970632136
485,0.0396841502349916
486,0.0400970988463206
487,0.04055666936796
488,0.0411351404647904
489,0.042418671608514
490,0.0427570077633327
491,0.0432569887249856
492,0.0443432277183041
493,0.0439114497743386
494,0.044769946516612
495,0.0442669384902233
496,0.0445851877073997
497,0.0437932116600871
498,0.0441825874657312
499,0.0433172268136552
500,0.0437102609275934
501,0.0434067586409737
502,0.0442760490465887
503,0.0445449724524253
504,0.0442118598018188
505,0.0456909220217803
506,0.0455628337589162
507,0.0457073124484778
508,0.0460565887410854
509,0.0460195166248953
510,0.0453910781926432
511,0.0460977557195321
512,0.0456612434700556
513,0.0443090823549484
514,0.0441081357197736
515,0.0433400332766763
516,0.0431015583179577
517,0.0430016828861461
518,0.0429295870009397
519,0.0437498801653582
520,0.0445995042254744
521,0.0450581662277588
522,0.0455168282300432
523,0.0459754902323276
524,0.0457322719403097
525,0.0458757776650355
526,0.0461278284076525
527,0.0458895748182594
528,0.046110700523486
529,0.0466420852346086
530,0.0467261530610774
531,0.0468115954170146
532,0.0467029207306893
533,0.0471083121867343
534,0.0472402921335314
535,0.0466866006157168
536,0.0472335620671289
537,0.0468779209555764
538,0.0464953702833616
539,0.0462310318239595
540,0.046428213985045
541,0.046182614799593
542,0.0458846543929548
543,0.046223725291663
544,0.0463762335677989
545,0.0461798039140654
546,0.0464721869070553
547,0.046419964013568
548,0.0463677411200806
549,0.0463155182265933
550,0.046103189732334
551,0.0464385295610797
552,0.0469361493476529
553,0.0464396420233245
554,0.0463238066230712
555,0.0468067875853369
556,0.0462212632134586
557,0.0460888672780899
558,0.0459474883988347
559,0.0455119773708961
560,0.0461987057705924
561,0.0454237486059144
562,0.0462964572838495
563,0.0457174586652533
564,0.0459986516336409
565,0.0454268771668493
566,0.0452900881130933
567,0.0447783902888077
568,0.0452091702694847
569,0.044779489639235
570,0.0448481914879734
571,0.0450537995031914
572,0.0452173595993239
573,0.0452799129789408
574,0.0458009155922977
575,0.0452535595438733
576,0.0455326255886457
577,0.0458116916334182
578,0.0460907576781906
579,0.046369823722963
580,0.0466488897677355
581,0.0473150183215335
582,0.0471598551065424
583,0.0475780490347753
584,0.0467568406631287
585,0.0466938425997981
586,0.0454177171537982
587,0.0446460630512128
588,0.0442141080333017
589,0.0437821530153907
590,0.0433501979974796
591,0.0437350212462597
592,0.0442295079375211
593,0.0444494240863303
594,0.0454242976396968
595,0.0455003156120344
596,0.0461849310691997
597,0.04666033262111
598,0.0468945598332022
599,0.0472324816380884
600,0.0477732803008064
601,0.0483335939231421
602,0.048568169853247
603,0.0486242573439785
604,0.0492645117512286
605,0.0490425778344097
606,0.0492351816520674
607,0.0490868916712823
608,0.0486238279070358
609,0.0486728654094376
610,0.048447347757625
611,0.0482511053341879
612,0.0479081309141531
613,0.0478226449901015
614,0.047377642699403
615,0.0481463426907717
616,0.047620752073984
617,0.0480980741966317
618,0.0480275085784592
619,0.0483411590219014
620,0.0482977302238243
621,0.0486465749758776
622,0.0477829608889105
623,0.0477714830150782
624,0.0475351129035812
625,0.0472987427920843
626,0.0470623726805874
627,0.0469146508570019
628,0.0469061570694996
629,0.0467854256208337
630,0.0473113790032635
631,0.0467842836162554
632,0.0471060862771751
633,0.0473506329264315
634,0.0475645062274614
635,0.0478081819079272
636,0.0475674442952283
637,0.0480801772455564
638,0.0478508005419357
639,0.0481021422729439
640,0.0479748075959683
641,0.0478605236360613
642,0.0475676556770358
643,0.047202505606067
644,0.0468373555350982
645,0.0464722054641295
646,0.0467617675808015
647,0.0466821503843877
648,0.0457764873028158
649,0.0467430082250383
650,0.0463306435988066
651,0.0468345505234392
652,0.046371384709438
653,0.0458641705398734
654,0.0451909466316965
655,0.0457521964727041
656,0.0454012863334505
657,0.0462577780755703
658,0.0468384507174935
659,0.0481987192911697
660,0.0487940347683445
661,0.0491181000077191
662,0.0494077232124614
663,0.0493374866511695
664,0.0491673709146515
665,0.0493937377088286
666,0.0495616766633194
667,0.0497556836525908
668,0.0498681650896103
669,0.0490335164867182
670,0.049458801876932
671,0.0493614841721521
672,0.049267009701271
673,0.049363793873186
674,0.0495431301860159
675,0.049655344214254
676,0.0497622874797113
677,0.0500254407321437
678,0.0495204374423936
679,0.0494489720524811
680,0.0507744598605898
681,0.0498421069562559
682,0.0486983620651598
683,0.0478080384888689
684,0.0463483759262852
685,0.0449856588959557
686,0.0440506962958732
687,0.0431524610066678
688,0.0429443074422451
689,0.0429755996988226
690,0.0433070522617232
691,0.0440671051355821
692,0.0440971739925838
693,0.0443613699462767
694,0.0449075818942449
695,0.0449385458705338
696,0.0458182439364127
697,0.0461053536974299
698,0.045363035467999
699,0.0454762719679838
700,0.0464423982590625
701,0.0461845158577821
702,0.0469527516002637
703,0.0471437758026207
704,0.0482882488906339
705,0.0483788536746185
706,0.0492821392000764
707,0.0499910940504752
708,0.0501350411970515
709,0.0508579401996242
710,0.0504851505930221
711,0.0505673854405997
712,0.0504842638435313
713,0.0482478212813292
714,0.0467507506920383
715,0.0438717356010722
716,0.0414170124108557
717,0.0397928939887064
718,0.0394194369836269
719,0.0397274199416855
720,0.0404224886590651
721,0.0403770022167819
722,0.0414671833655487
723,0.0411626711607799
724,0.0410547771831382
725,0.0413177508662937
726,0.0412902688644175
727,0.042169055962426
728,0.04305078322792
729,0.0444441717565587
730,0.0459735642456094
731,0.0479306706463961
732,0.0498366930493826
733,0.0518872927486489
734,0.0532619998611711
735,0.0540475432145196
736,0.0552770955632232
737,0.0561196261019619
738,0.0569621566407007
739,0.0578046871794395
740,0.0592197916004419
741,0.0600421236836037
742,0.0608825013025136
743,0.0617228789214234
744,0.0625632565403332
745,0.0629750850821503
746,0.0633717346189656
747,0.0639524430312182
748,0.0636040809442308
749,0.0644863967688159
750,0.0649548066376462
751,0.0649483073741367
752,0.0660813533755104
753,0.0661410245028418
754,0.0655163429640524
755,0.0613656552675683
756,0.0572149675710843
757,0.0530642798746003
758,0.0464002318266738
759,0.040571712951702
760,0.0370304978607017
761,0.0368134225395286
762,0.0386635974952931
763,0.0421816380028276
764,0.0468797843485968
765,0.051371426736153
766,0.0567137515281308
767,0.0618712418037698
768,0.0650033674504963
769,0.0670098330905285
770,0.0687304676500159
771,0.0696628788055302
772,0.0708051523353608
773,0.0719638135415541
774,0.0716643439255259
775,0.0719085497002645
776,0.0723153190297258
777,0.0716549047776023
778,0.0728063685400687
779,0.0721724219965529
780,0.0731822708737238
