"wavelength","measurement"
380,0.0204465639327883
381,0.0197716823503631
382,0.0209655143942686
383,0.0195231711081733
384,0.0201436357044463
385,0.0206858044972725
386,0.0235510916672983
387,0.0242903742109388
388,0.0258796068129902
389,0.0268678042605313
390,0.027385820462047
391,0.0278571987762403
392,0.0283504031625183
393,0.029658191882116
394,0.0313602032749345
395,0.0336827629762879
396,0.0385108175648933
397,0.0440933327907286
398,0.0496758480165638
399,0.0552583632423991
400,0.0585507313248683
401,0.06396276569598
402,0.0674799181113958
403,0.0697323522204363
404,0.0715628362491334
405,0.0725473520568086
406,0.0753163787302497
407,0.0778249807557701
408,0.078963444101609
409,0.0817011129543683
410,0.0865451055637324
411,0.0882754732946131
412,0.0906693227149217
413,0.0932685328221803
414,0.093693031893731
415,0.0952003661066988
416,0.0951051879367606
417,0.0943397910824934
418,0.0957512923283691
419,0.0942075291831228
420,0.0966185333899333
421,0.0955921151239626
422,0.0965992016633789
423,0.0970272832013334
424,0.0973246731059512
425,0.0949933086095193
426,0.0936988909609784
427,0.0909452027038698
428,0.0884626084929796
429,0.0879466676163312
430,0.0876750780841213
431,0.0908169306841203
432,0.0940954131842185
433,0.0976392196605353
434,0.101317227788445
435,0.103409583520286
436,0.104198016500984
437,0.105615231339531
438,0.107032446178077
439,0.108449661016624
440,0.109142877825611
441,0.111202845267917
442,0.11307010900241
443,0.114110713768994
444,0.115771322764376
445,0.117431931759758
446,0.11909254075514
447,0.120974081591124
448,0.121094009606824
449,0.125483075853792
450,0.124154888979393
451,0.123534110500075
452,0.123059984256918
453,0.122585858013761
454,0.122111731770604
455,0.121624645357993
456,0.122130276519499
457,0.123047253800732
458,0.123830812747202
459,0.125257048729544
460,0.125911670966258
461,0.12458943321832
462,0.128026990692269
463,0.124179559975672
464,0.123876838029993
465,0.122536316789343
466,0.120891066647611
467,0.121139807440067
468,0.120346178681207
469,0.120526559316238
470,0.122430012846047
471,0.123059427146469
472,0.12434423219423
473,0.126098257920108
474,0.127025118203199
475,0.128717231832697
476,0.126797195847257
477,0.12712189256607
478,0.127446589284883
479,0.127771286003695
480,0.128065999718837
481,0.124656937797543
482,0.122926852870592
483,0.122328991243506
484,0.119385809355566
485,0.117042833855319
486,0.118100994385287
487,0.11886864171316
488,0.120425882131791
489,0.123294611462636
490,0.1246226287922
491,0.124887854471845
492,0.128224905826603
493,0.126029722107804
494,0.12832703354255
495,0.126440584655577
496,0.127042693602966
497,0.124476444997062
498,0.12499727039076
499,0.122074559117078
500,0.122132088473401
501,0.120740512304493
502,0.122007901520697
503,0.122769772320453
504,0.121355177175638
505,0.12475665910793
506,0.124168772033556
507,0.124570239678332
508,0.125162760224866
509,0.124793858899565
510,0.122638186043573
511,0.123909967399572
512,0.122849632351491
513,0.119037845559135
514,0.118108482586291
515,0.115702127828699
516,0.114486672300723
517,0.11380937566187
518,0.113014133422364
519,0.114938121396855
520,0.116737476523482
521,0.117635181691902
522,0.118532886860322
523,0.119430592028742
524,0.118473506469041
525,0.118095411380927
526,0.118155013567766
527,0.117355092012562
528,0.117245771730958
529,0.118639549803329
530,0.118538106370934
531,0.118307862762833
532,0.117621998854584
533,0.118327541289008
534,0.118455489535423
535,0.117382012510148
536,0.117917604925826
537,0.116999691252754
538,0.115625990512693
539,0.114947874571873
540,0.115135600006633
541,0.114126679664197
542,0.113400145277696
543,0.113926735549169
544,0.114466150466977
545,0.113710861453513
546,0.114175042253866
547,0.113945986210659
548,0.113716930167452
549,0.113487874124244
550,0.11303537565369
551,0.113664647468925
552,0.114882975363689
553,0.113364429796051
554,0.112871482538472
555,0.113799444868828
556,0.112070091102572
557,0.111793384367456
558,0.110922403517835
559,0.10976839416024
560,0.111218843293678
561,0.10931115984568
562,0.110732081382623
563,0.108989713097449
564,0.109247892819613
565,0.107625224061853
566,0.106809348446205
567,0.105238466057745
568,0.105831481880254
569,0.104567391560149
570,0.104648290932298
571,0.104875600029773
572,0.104789076415177
573,0.104814051537291
574,0.105608995824465
575,0.104685333143901
576,0.105244725852096
577,0.105804118560292
578,0.106363511268488
579,0.106922903976683
580,0.107482296684879
581,0.10898160312736
582,0.108506433982874
583,0.109409799115913
584,0.107404706246996
585,0.106861630924976
586,0.103057552240681
587,0.10088022132687
588,0.0994736362096484
589,0.0980670510924271
590,0.0966604659752058
591,0.0969934037650263
592,0.0983925540342152
593,0.0990266231039166
594,0.101005766265642
595,0.101130173992878
596,0.102883811377778
597,0.104091034436456
598,0.10487849389027
599,0.105403200929328
600,0.107135847740566
601,0.108300625652841
602,0.109319407712517
603,0.108751566535298
604,0.110087467556144
605,0.109467890347048
606,0.109922980444686
607,0.109344886975237
608,0.108254192663581
609,0.108149551921644
610,0.107417539706516
611,0.106938043158741
612,0.105983432209086
613,0.105624885720424
614,0.104992187243524
615,0.106193508822118
616,0.104727121823097
617,0.105480465396752
618,0.105824347965485
619,0.105659417628286
620,0.1058196456457
621,0.10644201798947
622,0.104082369605372
623,0.10422103988028
624,0.103395258794878
625,0.102569477709476
626,0.101743696624074
627,0.10128136469483
628,0.100997319631549
629,0.100666734727861
630,0.101566874977356
631,0.100695276409705
632,0.101199080420376
633,0.101605117974503
634,0.102543035422859
635,0.103009683077268
636,0.102127062037888
637,0.103416428455485
638,0.10273151964949
639,0.103338481692008
640,0.102780960879972
641,0.102805325978683
642,0.102018906834783
643,0.100959475313129
644,0.0999000437914753
645,0.0988406122698215
646,0.0985877449630637
647,0.0983830211875438
648,0.0967221606375556
649,0.0983605228784296
650,0.0974789217236576
651,0.0987001050015147
652,0.0973370319770019
653,0.0964059675682577
654,0.0948982127902736
655,0.096269674052425
656,0.09581700155576
657,0.0971602142122421
658,0.0987717256329506
659,0.101732664441773
660,0.102748257148204
661,0.103540460077576
662,0.104166082012617
663,0.104153996029614
664,0.103762338857485
665,0.104125883497301
666,0.104640906348304
667,0.105016049171523
668,0.104628715925033
669,0.103168072268387
670,0.103702673360118
671,0.103980475164449
672,0.103559451299964
673,0.103702589242982
674,0.10408061675907
675,0.104050394756495
676,0.103927515968617
677,0.104978940614571
678,0.103737956261726
679,0.103620372107342
680,0.105932988756501
681,0.104274840297742
682,0.101472190962609
683,0.0992925167617576
684,0.095699361585316
685,0.0926371694003765
686,0.0898686010410994
687,0.0878392123313524
688,0.0868496968546553
689,0.0867542368914551
690,0.0875437099078286
691,0.0888974754825148
692,0.0879877110446515
693,0.0890287292346276
694,0.0903119815313729
695,0.0906640724838887
696,0.0916245106464759
697,0.0924025533320844
698,0.0908324236255051
699,0.0908068802057014
700,0.0925216317247603
701,0.0920633186017727
702,0.0936380612181948
703,0.0943051338479306
704,0.0965008018744598
705,0.0965886312745832
706,0.0984853804593909
707,0.100300361488332
708,0.100549150401907
709,0.10208809428577
710,0.101564192795403
711,0.101476740326926
712,0.100708960530586
713,0.0956204623054052
714,0.0926343535729638
715,0.085591496324484
716,0.0803694069859861
717,0.0769367470939067
718,0.0754220282969254
719,0.0758679277192484
720,0.0764995348595155
721,0.0761124244472379
722,0.0787509916331107
723,0.0774647859378106
724,0.0770750689467117
725,0.0774227224309242
726,0.0773760615489099
727,0.0788767395389673
728,0.0807515672757121
729,0.0835614890479367
730,0.0865616624973454
731,0.0910383584291663
732,0.0950431369077419
733,0.0990498328503678
734,0.102325038039864
735,0.103678984937195
736,0.10641623597136
737,0.108249972440866
738,0.110083708910373
739,0.111917445379879
740,0.115109515442806
741,0.116246795054019
742,0.117843467935585
743,0.11944014081715
744,0.121036813698716
745,0.12188775955435
746,0.121723311558857
747,0.123420604331477
748,0.122274312053274
749,0.123311989767174
750,0.123898643284873
751,0.12327004747192
752,0.125280170794916
753,0.123919618975242
754,0.122791643418066
755,0.114376276362263
756,0.105960909306461
757,0.0975455422506586
758,0.0839421105614495
759,0.0724887599045981
760,0.0645585747504541
761,0.0629426655487782
762,0.0652745896438356
763,0.0711701155569924
764,0.0799236065151558
765,0.0880526725157566
766,0.0973646382708705
767,0.107187623787132
768,0.113055195425235
769,0.117525546452762
770,0.120465166237169
771,0.122531204060975
772,0.124129214844343
773,0.125943853873079
774,0.125050080651784
775,0.125028190841513
776,0.125889987257441
777,0.124791776258441
778,0.126103495032977
779,0.12474665166363
780,0.126683025663578
