"wavelength","measurement"
380,0.00354765676036762
381,0.00344062856002693
382,0.0034226831552559
383,0.00340621523486254
384,0.00351036946148976
385,0.00366439451150006
386,0.00392037114083219
387,0.00403660879061548
388,0.00435577270368038
389,0.00453519231333697
390,0.00451392307997008
391,0.0045857045785618
392,0.00457396326951394
393,0.00469337822835587
394,0.00478853213753378
395,0.00521294184016446
396,0.00577930199564101
397,0.00647719265076481
398,0.00717508330588861
399,0.00787297396101241
400,0.00833935563995806
401,0.00878835764361529
402,0.00932112984212718
403,0.00951337612658187
404,0.00964318078257296
405,0.00978970127486824
406,0.010309113906864
407,0.0105071201179534
408,0.0106413314637181
409,0.0112095088346863
410,0.0118791339573088
411,0.0119988013730955
412,0.0126406970948054
413,0.0130941843150563
414,0.0132477733896932
415,0.0137111877982553
416,0.0136684513049192
417,0.0137879160072258
418,0.0141765978343075
419,0.014068355381608
420,0.0146488565297192
421,0.0146309251202354
422,0.0150419372498391
423,0.0152200452199526
424,0.0154663620898655
425,0.015204269140387
426,0.0152773058369964
427,0.0149155403537697
428,0.0146503448906295
429,0.0148112000594498
430,0.0148536832556223
431,0.0156512301270084
432,0.0163487582987229
433,0.0170193291264342
434,0.0177996497025959
435,0.0184423025814078
436,0.0186536680685465
437,0.0190879695992155
438,0.0195222711298845
439,0.0199565726605535
440,0.0203007813135493
441,0.0208665034249646
442,0.0214347573593954
443,0.0218993088980617
444,0.0224624864883506
445,0.0230256640786394
446,0.0235888416689283
447,0.0240153323186545
448,0.0243981074141278
449,0.0254596908478267
450,0.0253316479346391
451,0.025310302785871
452,0.0253194200457814
453,0.0253285373056919
454,0.0253376545656023
455,0.0253388865605898
456,0.0253593886713019
457,0.0255592256026765
458,0.0256575295548761
459,0.0260080531988553
460,0.0258490852786571
461,0.025729012569767
462,0.026284297797674
463,0.0256103588661507
464,0.0253537343549079
465,0.0252040935077684
466,0.0248443911352208
467,0.024827686523457
468,0.0246211777741362
469,0.0244161438034046
470,0.0250089273498728
471,0.024968976671977
472,0.025139514037853
473,0.0254276276215554
474,0.0254759619074399
475,0.0258742065556232
476,0.0253584767489716
477,0.0253440101695379
478,0.0253295435901041
479,0.0253150770106704
480,0.0253165493683789
481,0.0247796055027716
482,0.0244030218126008
483,0.0243173252497916
484,0.0237895993776444
485,0.0234268149486359
486,0.0237198120626758
487,0.0240159403637594
488,0.0243125737821012
489,0.0249627271517291
490,0.0252266623284293
491,0.0255302526434138
492,0.0262424927333714
493,0.0260328503748147
494,0.0265485106353367
495,0.0262940207469884
496,0.0265106674391453
497,0.0261185149641688
498,0.0264086405463668
499,0.0258664275284615
500,0.0261647626712586
501,0.0260764674338956
502,0.0265741665913249
503,0.0268424366570635
504,0.0266565897645665
505,0.027495241346542
506,0.0275224275358351
507,0.0276436705862953
508,0.0278713563420285
509,0.0279394254030994
510,0.0275206726651483
511,0.0279797555647085
512,0.0277466998012171
513,0.0269958104945277
514,0.0269606975819745
515,0.0264506223866569
516,0.026355416645478
517,0.0263251540108107
518,0.0262444084922392
519,0.0266748010408391
520,0.0272446757300421
521,0.02753965020602
522,0.0278346246819979
523,0.0281295991579759
524,0.0280284508810678
525,0.028057317915902
526,0.0281691307269373
527,0.0280038986693719
528,0.0281471609152866
529,0.028533789543707
530,0.0285051154833074
531,0.0286033320264193
532,0.028494174905222
533,0.0287503744596422
534,0.0288257043011293
535,0.0285326490601728
536,0.0287986356009632
537,0.0286649445319814
538,0.02841693626379
539,0.0283213764223757
540,0.028512628930154
541,0.0282929982599041
542,0.0281715676466762
543,0.0283074305393467
544,0.0284448086826527
545,0.0282222441014715
546,0.0284613363644132
547,0.0284179550916887
548,0.0283745738189643
549,0.0283311925462399
550,0.0282067928017388
551,0.0283201597056713
552,0.0286214344433199
553,0.0283437895231561
554,0.0282489038020971
555,0.0285848196432891
556,0.0282495124061996
557,0.028164042002347
558,0.0280212972758915
559,0.0279061946349902
560,0.0283102437502799
561,0.0277736481243699
562,0.0282349639807232
563,0.0278935571477048
564,0.0280382830509552
565,0.0276797160242344
566,0.0275806301514254
567,0.027352748526079
568,0.0276108290288586
569,0.0273120266207073
570,0.027396997344567
571,0.0275287558377576
572,0.0275824414826324
573,0.0276761307883661
574,0.0279286356114273
575,0.0276850071698568
576,0.0278768872649716
577,0.0280687673600863
578,0.028260647455201
579,0.0284525275503158
580,0.0286444076454305
581,0.029052051510301
582,0.0289479586859592
583,0.0292403422502498
584,0.0288219138580454
585,0.0288446602093455
586,0.0280783810286305
587,0.0277317249857512
588,0.027541956298551
589,0.0273521876113508
590,0.0271624189241505
591,0.0273327237131539
592,0.0277174793529235
593,0.0278874807255517
594,0.0284610777524354
595,0.0285485445821004
596,0.0289043896824751
597,0.0291745128807426
598,0.0294056305454288
599,0.0295905069143032
600,0.0300018887986421
601,0.0302341645760691
602,0.0304841896999863
603,0.0304367450619967
604,0.0308407232054515
605,0.0307847739148597
606,0.0308926636709344
607,0.0307478988297783
608,0.030500305842046
609,0.0306368089841113
610,0.0304835648069667
611,0.0303649996714305
612,0.0301258666316886
613,0.0301147912447272
614,0.0297890153432061
615,0.0302332864954061
616,0.0298650364919004
617,0.0301387956107315
618,0.0301367602478707
619,0.0302916792308165
620,0.0301967757744091
621,0.030442305378004
622,0.0299620577169703
623,0.0299376017433404
624,0.0297278231499044
625,0.0295180445564684
626,0.0293082659630325
627,0.0294612550612682
628,0.0293229924417
629,0.0292888316549996
630,0.0295956310495161
631,0.0291731362719448
632,0.0293768878147346
633,0.0295330397762304
634,0.0296053388359562
635,0.0298831890476847
636,0.0295849922909791
637,0.0298840573437616
638,0.0297655760740069
639,0.029934673952257
640,0.0297505790737523
641,0.0297388162368528
642,0.0295767303564326
643,0.0293597535701991
644,0.0291427767839655
645,0.028925799997732
646,0.0289676679586432
647,0.0289673649786546
648,0.0284986044467595
649,0.0290656784246087
650,0.0287628926123456
651,0.0291247708692119
652,0.028865990173048
653,0.0285752606687178
654,0.0280659812688336
655,0.0284764592246871
656,0.0282736152276464
657,0.0287892350169959
658,0.0291262700736801
659,0.0299067226069778
660,0.0303689129192772
661,0.0304840019243072
662,0.0306931798267633
663,0.0305629971887323
664,0.0304325774179954
665,0.0306572715773758
666,0.0307211877827515
667,0.0309197745758231
668,0.0309620833941639
669,0.0305389284102509
670,0.0306902414447071
671,0.0307134743768098
672,0.0306923115011784
673,0.0307608855573486
674,0.0309005489761919
675,0.0308515725536175
676,0.0308831176286787
677,0.0311615815275501
678,0.0307876081529082
679,0.030787728520608
680,0.0316053785653048
681,0.0310896651539367
682,0.030335013905557
683,0.0299003302385547
684,0.0288903290866051
685,0.0281605746789037
686,0.0276157847605233
687,0.027032691314224
688,0.0268401558939494
689,0.026920994470312
690,0.0271909219757214
691,0.0277228880863032
692,0.027587366779797
693,0.0277816157772521
694,0.0281865286750103
695,0.0282835164011111
696,0.0287310236553406
697,0.02891608976933
698,0.0285108264327552
699,0.0286130667451522
700,0.0291093670482915
701,0.0289841338597777
702,0.0295599812799176
703,0.0297497345249661
704,0.0303782268612165
705,0.030558517532607
706,0.0310271216912322
707,0.0316626548180997
708,0.0316893674864701
709,0.0321953844520793
710,0.0319267550525996
711,0.0319549110230012
712,0.031990776802716
713,0.0305967085785083
714,0.0297738557470967
715,0.0279700579493173
716,0.026403958603069
717,0.0254403962534931
718,0.0253491478376756
719,0.0254084607950141
720,0.0258921836054032
721,0.0259327273761844
722,0.0266166790118917
723,0.0266397230518483
724,0.0265776076396706
725,0.0267156191787311
726,0.0267670644449495
727,0.0273709129798418
728,0.0279590582963508
729,0.0289609925537114
730,0.0299560291109595
731,0.0313451209974215
732,0.0326187594789507
733,0.0340282237916143
734,0.0350012995848197
735,0.0355410745547476
736,0.0363551235056323
737,0.0369474799122167
738,0.0375398363188011
739,0.0381321927253855
740,0.0393491448657407
741,0.039751288275697
742,0.04035626769921
743,0.0409612471227229
744,0.0415662265462359
745,0.0419793556503557
746,0.0423035250330831
747,0.0428235341516168
748,0.0426302261705834
749,0.0432788869530876
750,0.0436596147489851
751,0.0437739345888428
752,0.0446380964271969
753,0.044653754510198
754,0.0443573333243214
755,0.0416000793544521
756,0.0388428253845827
757,0.0360855714147133
758,0.0316389994639011
759,0.027643641691391
760,0.0252260701682842
761,0.0250979617106849
762,0.0265119360694839
763,0.0287908130371827
764,0.0322042273138483
765,0.0353350028878325
766,0.0389566358244927
767,0.0425023370727538
768,0.0445904424872889
769,0.0461647366088313
770,0.0473020879352487
771,0.0480034706762478
772,0.0487189371384982
773,0.0495425670365253
774,0.0494176729002775
775,0.049709880550136
776,0.0500400966181581
777,0.0496067118566472
778,0.0504560547189397
779,0.0498572665519081
780,0.0506279740215896
