"wavelength","measurement"
380,0.00352990106380445
381,0.00338593033298604
382,0.00363245088652981
383,0.00359245337708314
384,0.00368970732493044
385,0.0039220012806477
386,0.00417316427946672
387,0.0045236360360935
388,0.00474691279876043
389,0.00507022912182401
390,0.0049903627352282
391,0.00514195792884918
392,0.00523850442989002
393,0.00540758885022423
394,0.00555955600840598
395,0.00587016445164073
396,0.00663722355711418
397,0.00741910370238237
398,0.00820098384765055
399,0.00898286399291873
400,0.00950174575448333
401,0.0101097129396831
402,0.0104767798058764
403,0.0107191479771051
404,0.0108524797138002
405,0.01090200599172
406,0.011138208355475
407,0.0111775836649211
408,0.0113980288865901
409,0.0116063350287024
410,0.0122434967991317
411,0.0123815956809169
412,0.0127311953190145
413,0.0130074380277926
414,0.0131082239480474
415,0.0132987609523768
416,0.0131972557495746
417,0.0131918175439227
418,0.0135145785950479
419,0.0131650200303186
420,0.0135634685516912
421,0.0136043713362684
422,0.0138348549802392
423,0.0139086041932238
424,0.0140474444901395
425,0.0139235762853383
426,0.0138636196745016
427,0.0135809966706369
428,0.0131192086491991
429,0.0131432155385312
430,0.0131784919189315
431,0.0137419451990196
432,0.0143304820293066
433,0.0148694596647598
434,0.0156494956612635
435,0.0159272445840375
436,0.0161965075823023
437,0.0165495116921703
438,0.0169025158020383
439,0.0172555199119063
440,0.0174109583105317
441,0.0178833527439962
442,0.0182876661103388
443,0.0186738349268785
444,0.0190468766798483
445,0.0194199184328181
446,0.0197929601857878
447,0.0202342303215415
448,0.0204405488213027
449,0.0213160630385721
450,0.0213877048754824
451,0.021262934338238
452,0.0213213598931371
453,0.0213797854480361
454,0.0214382110029351
455,0.0214338361530548
456,0.0215424796019637
457,0.0220296084419694
458,0.0221587910397068
459,0.0226652254953898
460,0.0227883412732375
461,0.0226919528252631
462,0.0233151076707626
463,0.0228860952625633
464,0.0227274725795088
465,0.0224966043619583
466,0.0223449873998243
467,0.0223044568160158
468,0.0222471602388267
469,0.0220842723262645
470,0.0227467739628682
471,0.0226840938597498
472,0.02293322167225
473,0.0232612015253727
474,0.0233719475777874
475,0.0237734996294729
476,0.0233563743937002
477,0.0234126131695858
478,0.0234688519454714
479,0.0235250907213571
480,0.0235687078293822
481,0.0230472731875243
482,0.0226357855306248
483,0.022747672321665
484,0.022258412248243
485,0.0217684653167277
486,0.0221024545387936
487,0.0223047859438478
488,0.0225800320006452
489,0.0232875608496723
490,0.0235530473087493
491,0.0238366044395531
492,0.0244990593449216
493,0.0242469176521387
494,0.0247438789653136
495,0.024452426821081
496,0.0246498221153466
497,0.0242682101858636
498,0.0244373355534721
499,0.0238624315166605
500,0.0241444663499503
501,0.0239876269666458
502,0.0244823940128865
503,0.0246326839973901
504,0.0244653771642786
505,0.0253320021838986
506,0.0252115459410468
507,0.0253850816241876
508,0.0256157757582846
509,0.025565500384483
510,0.0251612299639061
511,0.0256218964090897
512,0.0253046750438018
513,0.0246522881297787
514,0.024479188095512
515,0.0240932449137359
516,0.0239495607150885
517,0.0239599796423015
518,0.0238466436662451
519,0.024236692360576
520,0.0247824483280331
521,0.0250853046040877
522,0.0253881608801424
523,0.025691017156197
524,0.0254804583749259
525,0.0255114547684959
526,0.0255692823843462
527,0.0254531844099689
528,0.0255915947948609
529,0.0259031082488886
530,0.0258863212002794
531,0.0259790102945037
532,0.0259013260764639
533,0.0261466336814521
534,0.0261959625737049
535,0.0259400188924549
536,0.0262839988671468
537,0.026095684401219
538,0.0259282428359219
539,0.0257862551387869
540,0.0259984162126076
541,0.0258041736424542
542,0.0257053404292005
543,0.0258914918972052
544,0.0259285041797239
545,0.0257907503958187
546,0.0259573089668098
547,0.0259158443665266
548,0.0258743797662433
549,0.0258329151659601
550,0.0257492282920095
551,0.0259212180668383
552,0.0261659972347027
553,0.025851159904562
554,0.0257946184641546
555,0.0260977490706163
556,0.0257491640440484
557,0.0257524663401505
558,0.0256011320963448
559,0.0254159793659387
560,0.0257428892831192
561,0.0253635323473744
562,0.0257506875130671
563,0.0253817680155285
564,0.0255170017589556
565,0.0251391182782288
566,0.0250723617124796
567,0.0247466822238285
568,0.0249977289641117
569,0.0246210995790163
570,0.024659888969962
571,0.0246993997223847
572,0.0246762205834738
573,0.0246262031938361
574,0.0248203021704854
575,0.0245792710083691
576,0.0246784374774639
577,0.0247776039465587
578,0.0248767704156535
579,0.0249759368847483
580,0.0250751033538431
581,0.0254723292081946
582,0.0253897851274196
583,0.0255760284508858
584,0.0252437640300222
585,0.0252166410416417
586,0.0245782450957052
587,0.0243487700251362
588,0.024134411911186
589,0.0239200537972357
590,0.0237056956832854
591,0.0238355709084532
592,0.0239761923705166
593,0.0239866727471398
594,0.024289751398746
595,0.0242000544140621
596,0.0243483870939173
597,0.0242889679693946
598,0.0242618489049162
599,0.0242589977801258
600,0.0244156864828294
601,0.0245018414826143
602,0.0246133673885709
603,0.0244379626414716
604,0.0246816735953606
605,0.0245000396682453
606,0.0245676788804764
607,0.0244522064213328
608,0.0241712729495393
609,0.0241345234810555
610,0.0239522869099406
611,0.0238246063277272
612,0.0236394356773816
613,0.0235880090958514
614,0.0232563304087485
615,0.023535242367573
616,0.0232565474132693
617,0.0234059484941516
618,0.0233616533718286
619,0.023478279845795
620,0.0233227959622472
621,0.0234777491030164
622,0.0229970494253315
623,0.0228661500604918
624,0.0226546131265702
625,0.0224430761926486
626,0.022231539258727
627,0.0221376086161835
628,0.0219704711061533
629,0.0219858045475246
630,0.0221091664138701
631,0.0218670191657868
632,0.0220459294050485
633,0.022161731452985
634,0.0222211697865722
635,0.0223474039162441
636,0.0221704018118664
637,0.0223485589906856
638,0.0222260719063378
639,0.022306505805963
640,0.0221974575642482
641,0.0221397603397093
642,0.0220779980873398
643,0.0219715653939435
644,0.0218651327005472
645,0.0217587000071509
646,0.0218327386866536
647,0.0217612996703704
648,0.021332599197267
649,0.0216844687518314
650,0.021401619486162
651,0.0215233359084294
652,0.0212828028353555
653,0.020867701404714
654,0.0204820314956401
655,0.0206120945731743
656,0.0203688013406748
657,0.0204763001977544
658,0.0206986888646479
659,0.0211287677151138
660,0.0213193950268697
661,0.0213854105014041
662,0.0213614385708363
663,0.021275892923006
664,0.0210607287150907
665,0.0210927092353679
666,0.0210718974091979
667,0.0210715641455103
668,0.0211843628798751
669,0.0206830922965943
670,0.0207542769965719
671,0.0206971611308064
672,0.0206212393728472
673,0.0205771947900125
674,0.0206218463193772
675,0.0205258896311438
676,0.0204433998876138
677,0.0205458849183363
678,0.0202657047092775
679,0.0202039657804017
680,0.0205876776004352
681,0.0201787466829024
682,0.0196029850295034
683,0.0191136508347114
684,0.0182805089541739
685,0.0174529376730992
686,0.0168468706301745
687,0.0162797006059317
688,0.0161013174308434
689,0.0162574789312556
690,0.0165708216145512
691,0.0170015673362511
692,0.0172798715905337
693,0.0174633855169164
694,0.01767946827545
695,0.0177629409700544
696,0.0179097543525355
697,0.0179184843327811
698,0.0176682346384223
699,0.0175796570053401
700,0.0178101967901406
701,0.0175409266777735
702,0.0176932872453445
703,0.0176322698402097
704,0.0178389386759771
705,0.0177154176214504
706,0.0178703821915046
707,0.0179696090485129
708,0.0178866226815513
709,0.017956490918863
710,0.0177270874264444
711,0.0175590355395692
712,0.0176188470308079
713,0.0168280653911111
714,0.0165867136476743
715,0.0158833864130253
716,0.0151688938073371
717,0.0146958326686922
718,0.0143884538171527
719,0.0144542074043259
720,0.014446537445639
721,0.0142909462913253
722,0.014629893961701
723,0.0144119645471641
724,0.0142639545757819
725,0.0142311572115763
726,0.0141546846322866
727,0.0143012171997553
728,0.0142788659654483
729,0.0144932740299032
730,0.0145986760353951
731,0.0148786491290276
732,0.0150757350847236
733,0.0154278005736186
734,0.0154410202776521
735,0.0154760139047933
736,0.0156398525427432
737,0.0155824805180977
738,0.0155251084934521
739,0.0154677364688066
740,0.0156277323059824
741,0.0155935595266132
742,0.0155732183259576
743,0.0155528771253021
744,0.0155325359246466
745,0.0155464473724113
746,0.0154827941239255
747,0.0153952885765944
748,0.0151206604794719
749,0.0151459319093894
750,0.015051372677897
751,0.0149052752705731
752,0.0151048575745883
753,0.014902696813651
754,0.0146281688594412
755,0.0135401377318771
756,0.012452106604313
757,0.0113640754767489
758,0.00956925941595966
759,0.00807959656937932
760,0.00684363565694596
761,0.00649693321710446
762,0.00685557234446073
763,0.00726562742322139
764,0.00832545763357034
765,0.00927240731643819
766,0.0104065857857887
767,0.0115752237896902
768,0.0120549227842154
769,0.0127266682280881
770,0.0130730507077946
771,0.0131103343022152
772,0.0132801396754121
773,0.0134493557113589
774,0.0133364240954976
775,0.0133137497756601
776,0.0133240678259079
777,0.0132043598734813
778,0.0132373511194804
779,0.0131095744737977
780,0.0131429132947883
