"wavelength","measurement"
380,0.0018487361644482
381,0.00186794392601092
382,0.00186457162993558
383,0.00192820856670661
384,0.00196085510346992
385,0.00211851897599568
386,0.00221784341347692
387,0.00239139789905612
388,0.00255573657035921
389,0.00262744326638598
390,0.00262314014085877
391,0.00265624113742497
392,0.00271579641670454
393,0.00277868231435492
394,0.00292923312596744
395,0.00312364534704825
396,0.00348680187905399
397,0.00388392652301148
398,0.00428105116696897
399,0.00467817581092646
400,0.00487628511017595
401,0.00519065441905816
402,0.00538760782979923
403,0.00547175473795349
404,0.00556115520851855
405,0.00557315029278056
406,0.00565087097910446
407,0.00575696339693924
408,0.00585013760180329
409,0.00596211729003156
410,0.00628608885408389
411,0.0062882187332699
412,0.00648599573053718
413,0.00662685661237362
414,0.0066075421617953
415,0.00668666256007423
416,0.00667432802247205
417,0.00667456839662215
418,0.00676747369173805
419,0.00666956102562524
420,0.00686883193644871
421,0.00682963532777117
422,0.00691967841481351
423,0.00700730308769489
424,0.00701983157500314
425,0.00691819231286798
426,0.00685243928346308
427,0.00670504026713125
428,0.00654223327713817
429,0.0065633502470462
430,0.0066294834231317
431,0.00692849312005086
432,0.00719716562270786
433,0.00744098103002593
434,0.0077743237990131
435,0.00796300619883701
436,0.00806748785237757
437,0.0082182978537062
438,0.00836910785503482
439,0.00851991785636345
440,0.00864222368757204
441,0.00883093766974677
442,0.0090800106302123
443,0.0092405494404848
444,0.00944790471556831
445,0.00965525999065183
446,0.00986261526573534
447,0.0100873734432715
448,0.0101391410819447
449,0.0105173117677563
450,0.0105011204527261
451,0.0104586744468912
452,0.0104547646005476
453,0.0104508547542039
454,0.0104469449078602
455,0.0104778406262618
456,0.01051260335108
457,0.0106842443650148
458,0.0107226943461733
459,0.0109204722880592
460,0.0109474298143014
461,0.0108513739922857
462,0.0111835369671457
463,0.0108574496704316
464,0.0107692807558685
465,0.0107064518759154
466,0.0105806079549228
467,0.0106408004905595
468,0.0105471123415138
469,0.0105130009415644
470,0.0107661948679333
471,0.0107810519795732
472,0.0108478374004375
473,0.01100136193292
474,0.0110530565175392
475,0.0112065001048546
476,0.0109914768450759
477,0.0110031593360028
478,0.0110148418269298
479,0.0110265243178567
480,0.011003651902692
481,0.0107337148806744
482,0.0105753388330763
483,0.0105585990435585
484,0.0103916502735086
485,0.010207412263048
486,0.0103661901931594
487,0.010491029388985
488,0.0106136909393272
489,0.0108963945621872
490,0.0109917462347308
491,0.0111076907574284
492,0.0113904186978593
493,0.0112677928675881
494,0.0114465800411154
495,0.0112957787011641
496,0.0113614909466319
497,0.0111700491417849
498,0.0112654570096607
499,0.0110433845973857
500,0.0111513462162521
501,0.0110803498649647
502,0.0113137700833554
503,0.0114147904801483
504,0.0113156608420214
505,0.0117034460217699
506,0.0116141153179749
507,0.0116700951900534
508,0.0117414927453787
509,0.0117245285674931
510,0.0115298261578166
511,0.0116918868153758
512,0.0115789026844774
513,0.0112247574077555
514,0.0111520943579742
515,0.0110187596125714
516,0.0109593616483294
517,0.0109757815821951
518,0.0109560542963992
519,0.0111831330795692
520,0.0113558728789193
521,0.011466656419875
522,0.0115774399608308
523,0.0116882235017865
524,0.011594234149404
525,0.0116406780155728
526,0.0116148948761981
527,0.0116019223284401
528,0.0116566567480764
529,0.011759239990797
530,0.0117536804261652
531,0.0117622023157052
532,0.0117261712626908
533,0.0118484421920855
534,0.011882493785061
535,0.011755471738332
536,0.0118570505494858
537,0.0117802830300107
538,0.0116940853893682
539,0.011653231559015
540,0.011722877012333
541,0.0116160846480417
542,0.0115758277653271
543,0.0116072122893635
544,0.0116692423986665
545,0.0115693662905658
546,0.0116581587527589
547,0.0116313428016071
548,0.0116045268504553
549,0.0115777108993036
550,0.011541435287298
551,0.0116274459920717
552,0.0117146035542512
553,0.0115877971144204
554,0.01152926117296
555,0.0116604845661682
556,0.0115152849481925
557,0.0114907066588481
558,0.0114321574511825
559,0.0113207328106055
560,0.0114566839145156
561,0.0112627477033439
562,0.011446407378399
563,0.0112658121547336
564,0.0113094344536274
565,0.0111422131597342
566,0.0110985639599007
567,0.0109592445892579
568,0.0110709479981884
569,0.010922992938099
570,0.0109400140169308
571,0.0109494579680338
572,0.0109736030520042
573,0.0109334320877301
574,0.0109800663422511
575,0.0108807211323294
576,0.0109253432197788
577,0.0109699653072282
578,0.0110145873946775
579,0.0110592094821269
580,0.0111038315695763
581,0.0112358525206389
582,0.0111841570288872
583,0.0112559480956543
584,0.0110667801227974
585,0.0110689345633794
586,0.0107903649213103
587,0.010691730484115
588,0.0106146634856877
589,0.0105375964872605
590,0.0104605294888332
591,0.0105020511519011
592,0.0105744001123018
593,0.010553137787552
594,0.010668481015579
595,0.0106274486508259
596,0.0106770078417035
597,0.0106742466828155
598,0.0106399461105081
599,0.0106070714469973
600,0.0106535480049182
601,0.0107188132121966
602,0.0107306767494951
603,0.0106687273107217
604,0.0107290759168184
605,0.0106437628647036
606,0.0106582064823288
607,0.0105917738481103
608,0.01043965217581
609,0.0104565432908008
610,0.0103800999831535
611,0.0102901187096516
612,0.0102210071241678
613,0.0101465571714544
614,0.0100395211359597
615,0.010139534728779
616,0.0100454830630818
617,0.0101343799844028
618,0.0100764057857469
619,0.0101036532870416
620,0.0100273783821465
621,0.0100817601435885
622,0.00985938321521771
623,0.00983530961069348
624,0.00973990727510297
625,0.00964450493951246
626,0.00954910260392195
627,0.00951121235005381
628,0.00947070720757763
629,0.00944724576896664
630,0.00952153858268128
631,0.00936739355806722
632,0.00944840154891956
633,0.00947929455861978
634,0.00951901624598042
635,0.00951265171381574
636,0.0094322483853299
637,0.00952958611627197
638,0.00943723657487933
639,0.00948643220440524
640,0.0094406983960006
641,0.00941120563740941
642,0.0093584627322359
643,0.00929652704314837
644,0.00923459135406083
645,0.00917265566497329
646,0.00925113490233335
647,0.00926611302156193
648,0.00908649417157155
649,0.00921721988072616
650,0.00907559024713288
651,0.00908797834378079
652,0.00897129994221446
653,0.00878995550920266
654,0.00863036728439781
655,0.00867990958274052
656,0.00863977510895366
657,0.00872195109841793
658,0.00874566802129594
659,0.00891779140024578
660,0.00896533394625426
661,0.00898811936573678
662,0.00896132351240347
663,0.00890095847271597
664,0.00883003095683878
665,0.00882876955913998
666,0.00882294216021124
667,0.00883095240148547
668,0.00883024649542394
669,0.00865082847564621
670,0.0086834934012808
671,0.0086165095844595
672,0.00857826869682623
673,0.00857911923592658
674,0.00860800841465092
675,0.00855479209816739
676,0.0085296937535887
677,0.00857073375551975
678,0.0084413601519297
679,0.00838322414758871
680,0.00858010593457711
681,0.0083668157393172
682,0.00806995628627901
683,0.00788220346449921
684,0.00750980600354715
685,0.00721348673378655
686,0.00698729309522796
687,0.00688801022409925
688,0.0068430792561949
689,0.00691270160197336
690,0.00706296391858138
691,0.00723283802230194
692,0.00733704916161139
693,0.0073511777953052
694,0.00750412650194686
695,0.00746915122868074
696,0.00755311622392199
697,0.00753139500672674
698,0.00741256019461143
699,0.00743425601360956
700,0.0075194921632084
701,0.00744570219328304
702,0.00750385391102763
703,0.00748604378409132
704,0.00755808712937952
705,0.00748000131646113
706,0.00756811974667323
707,0.00758360074452735
708,0.00752957843716895
709,0.0075709020691077
710,0.00746195192594898
711,0.00741224892617082
712,0.00737000939551727
713,0.00709342737792953
714,0.00695911218914992
715,0.00669288169378866
716,0.00645779691010045
717,0.00630908911830055
718,0.00622833230218117
719,0.00624427355451501
720,0.00628537499564603
721,0.00615754715470717
722,0.00625198662643971
723,0.00623616085080236
724,0.00620303487805803
725,0.00619891476050467
726,0.00615704710531303
727,0.00621019719509857
728,0.00622924224976125
729,0.0063285778444854
730,0.00636987894685032
731,0.00648617924785539
732,0.00655216443425236
733,0.00665034763583035
734,0.00666720188145212
735,0.00668251626622457
736,0.00670628830690379
737,0.00669692536432048
738,0.00668756242173718
739,0.00667819947915387
740,0.00671579965323551
741,0.00669570429473879
742,0.00669584651700165
743,0.0066959887392645
744,0.00669613096152736
745,0.00666405749830809
746,0.00660806579854328
747,0.00658491031821968
748,0.00648749421458459
749,0.00650231649906827
750,0.00645806130880094
751,0.00638930446217475
752,0.00644835902355033
753,0.00633563966631511
754,0.00614424291085097
755,0.00563845140801896
756,0.00513265990518694
757,0.00462686840235493
758,0.00390521547492868
759,0.00335110393120741
760,0.00307454852166594
761,0.00302031847419228
762,0.00313569049332056
763,0.00345575577439983
764,0.00383242344293919
765,0.00421284204455571
766,0.00463571154085296
767,0.00507001626648252
768,0.00529460475093807
769,0.00545645967534097
770,0.00560384987689948
771,0.00565200212351648
772,0.00570180134411526
773,0.0057337314201697
774,0.00569602685764505
775,0.00568838064120375
776,0.00569580882277536
777,0.00560836072140607
778,0.00566348448704047
779,0.00559021908486559
780,0.00563467102407902
