"wavelength","measurement"
380,0.00377012597227547
381,0.00368133557536376
382,0.00378188356220058
383,0.00378535142872886
384,0.00388579401600497
385,0.00419258877737799
386,0.00450914794879196
387,0.00482492436099021
388,0.00510123377892649
389,0.00538922277666816
390,0.00541081419987061
391,0.00547531121004894
392,0.00555394032839993
393,0.00574293776810582
394,0.00598102434368622
395,0.00633938575368115
396,0.00707980706375995
397,0.00795781222996305
398,0.00883581739616615
399,0.00971382256236925
400,0.010154965433798
401,0.0108749056181854
402,0.0113471883379158
403,0.0115771400713258
404,0.0116604186733198
405,0.0116972515773135
406,0.0119543402860306
407,0.0121370493347762
408,0.0122605051744435
409,0.0125239167917203
410,0.0131585581500175
411,0.0132860013702907
412,0.0136678826938355
413,0.0140452843780796
414,0.0141098765601069
415,0.014289862175942
416,0.0142288203379325
417,0.014207869535962
418,0.0144980322008517
419,0.0142152340779542
420,0.0146600750617557
421,0.0146637676514457
422,0.0148506405724534
423,0.0150429218082669
424,0.0151759411749117
425,0.0150207386505223
426,0.014899436286859
427,0.0145770325498416
428,0.0141394525776059
429,0.0141949177103481
430,0.0142894111906125
431,0.0148841806101642
432,0.0154336221609285
433,0.0160531807800973
434,0.0168647910132282
435,0.0172921396009454
436,0.0175514265937331
437,0.0179332582536587
438,0.0183150899135844
439,0.01869692157351
440,0.0188899714265153
441,0.0193408041008644
442,0.0198678386279869
443,0.0202248563575982
444,0.0206449492035363
445,0.0210650420494744
446,0.0214851348954125
447,0.0219967438052665
448,0.0221985332762066
449,0.0231791992297757
450,0.0231390610198134
451,0.0231092455412788
452,0.0231655889410755
453,0.0232219323408722
454,0.0232782757406688
455,0.0233383971116823
456,0.0234862278536982
457,0.0239035807452369
458,0.0240811935362804
459,0.024590779890623
460,0.0247605811329963
461,0.0246116244614171
462,0.0254067127454959
463,0.0248253878446501
464,0.0246180305004226
465,0.0244987026606782
466,0.0242681269310192
467,0.0243000838294636
468,0.0241330042531385
469,0.0240425987790743
470,0.0246451782890038
471,0.0246708365874955
472,0.0249270913423766
473,0.0252955761249781
474,0.0254585562320424
475,0.0258521881711772
476,0.0253415041566586
477,0.0254163953846502
478,0.0254912866126417
479,0.0255661778406333
480,0.02557605266368
481,0.025027600693725
482,0.0246656368205848
483,0.0246466016578513
484,0.024133081477256
485,0.0236904820517788
486,0.0239518273630248
487,0.0242305033187657
488,0.0245027133648984
489,0.0252301043869399
490,0.0255386868887762
491,0.0257839919096836
492,0.0264958395194867
493,0.0262290290941688
494,0.0266746991874344
495,0.0264257024703767
496,0.0265688881270333
497,0.0261623159652009
498,0.0263609516569464
499,0.0258564875406147
500,0.0260983476913094
501,0.0258872414220028
502,0.0263998167375159
503,0.026565141048151
504,0.0263351301356277
505,0.0272390156406753
506,0.0271047944627382
507,0.0272390219171443
508,0.0274396780299465
509,0.027434242237771
510,0.0269882132705631
511,0.027429434056566
512,0.0271369958861205
513,0.026471281733852
514,0.026326349214457
515,0.0259034717753595
516,0.0257186070080814
517,0.0256895908307957
518,0.0256011386919383
519,0.026076001136375
520,0.0265414832678162
521,0.026825425591215
522,0.0271093679146138
523,0.0273933102380126
524,0.0272154986320482
525,0.0272708317719313
526,0.0273122026461915
527,0.0271675890498764
528,0.0272986373837679
529,0.0276048817852695
530,0.0276125011975226
531,0.0276601153965894
532,0.027614835223098
533,0.0278663900504896
534,0.0279655247450253
535,0.0276623856321506
536,0.0279993189544157
537,0.0278171780519026
538,0.0276628961987697
539,0.02749363886024
540,0.0277058579663951
541,0.0275151375213654
542,0.0273703425437011
543,0.0275436351042507
544,0.0276635909324772
545,0.0274989919884969
546,0.0277027709697103
547,0.0276688225768954
548,0.0276348741840805
549,0.0276009257912656
550,0.0274732045879364
551,0.0276797567276477
552,0.0278871243129518
553,0.0276073165899672
554,0.0275667610438359
555,0.0278360791408025
556,0.0274831067276412
557,0.0274720178488522
558,0.0272984166074455
559,0.0271087541921105
560,0.027410782500409
561,0.0269648572404592
562,0.0274472356475121
563,0.0270599413193558
564,0.0272148257231224
565,0.0268347838560341
566,0.0267467206640583
567,0.0264200976446745
568,0.0266480465432572
569,0.0263443821798702
570,0.0263168544632678
571,0.0263835659395418
572,0.0263844176596075
573,0.0263363360466007
574,0.0265076327774199
575,0.0261628122978396
576,0.0262759182720134
577,0.0263890242461873
578,0.0265021302203611
579,0.0266152361945349
580,0.0267283421687087
581,0.0270967807132672
582,0.027015365793439
583,0.027238861183788
584,0.0268860890796966
585,0.0268911043974499
586,0.0262609019816599
587,0.0260272970925568
588,0.0258052888020516
589,0.0255832805115464
590,0.0253612722210412
591,0.0254497247479127
592,0.0256395449886426
593,0.0256496356443386
594,0.025957754647176
595,0.0258761694442782
596,0.0259874195596216
597,0.025974448457486
598,0.0259229272632351
599,0.0259266390801143
600,0.0259856321909728
601,0.026176466520927
602,0.0261960988611314
603,0.0260909230441636
604,0.0262930781598547
605,0.0261584257153141
606,0.0262049762857037
607,0.0260764800653382
608,0.0258127358476814
609,0.0257809728562529
610,0.0256030494205199
611,0.0254600566959963
612,0.025251865797091
613,0.0251120248335835
614,0.0248859381134133
615,0.0251240660453904
616,0.0248487042293482
617,0.0250661948360984
618,0.0250046876527381
619,0.0250538947802199
620,0.0249536912043251
621,0.0251027818656601
622,0.0246013689912057
623,0.0245448272685877
624,0.0243160628098808
625,0.0240872983511739
626,0.0238585338924669
627,0.0237360227728822
628,0.0236387515213719
629,0.02353141835626
630,0.0237461812414224
631,0.0234642278099451
632,0.0236273418585847
633,0.0237559659965611
634,0.0238351218248825
635,0.0239604190573361
636,0.0237782793115308
637,0.0239979695660776
638,0.0238321700543337
639,0.0239368013022405
640,0.023858008104716
641,0.0237554887453283
642,0.0236603670525195
643,0.0235397537375891
644,0.0234191404226587
645,0.0232985271077283
646,0.0233998112676868
647,0.0233543107486876
648,0.0229487519833392
649,0.0233095344741558
650,0.0229651726281636
651,0.0231221862286718
652,0.0228571321312904
653,0.0224153296843329
654,0.0219539100389558
655,0.0221473488670267
656,0.0218527284297486
657,0.0219958974486426
658,0.0222229300152535
659,0.0227168285720755
660,0.0228470519972731
661,0.0228997938362948
662,0.0229490570417619
663,0.0228163573460399
664,0.0226261980061782
665,0.0226539383190543
666,0.0226526377821391
667,0.0226771294953906
668,0.0226692598511593
669,0.0222027795798133
670,0.0223048388135232
671,0.022193394821755
672,0.0220753503415944
673,0.022093705018181
674,0.0221108086147418
675,0.022023327085509
676,0.021910333602245
677,0.0220669866204718
678,0.0217355742098564
679,0.0216232018613776
680,0.0220965340478108
681,0.021629638473753
682,0.0210369381493355
683,0.0205231646224586
684,0.0195729367617199
685,0.0187842746729549
686,0.0180699894998086
687,0.0174866185700581
688,0.0172580864852803
689,0.0173691999358209
690,0.0177682150332877
691,0.0183161530952008
692,0.0185044833043893
693,0.0187309968232502
694,0.0190045802332613
695,0.0189776042424693
696,0.0192396099001485
697,0.0192237326434098
698,0.0189179391870076
699,0.0188747915787116
700,0.0190852289386811
701,0.0188255390991444
702,0.0189424253107837
703,0.0188905961134286
704,0.01908045024725
705,0.0189128842663441
706,0.0190984713336457
707,0.0191843313019578
708,0.0190638400543966
709,0.0191708259827349
710,0.0188436255833171
711,0.0187570826012096
712,0.0187669312266022
713,0.0180531140102663
714,0.0176796255493823
715,0.0168942204440556
716,0.016153275823481
717,0.0156431174941344
718,0.0153860142067027
719,0.0153148569199434
720,0.0153598343398664
721,0.0151464674933538
722,0.0154562885218068
723,0.0153375470761089
724,0.0152437563454722
725,0.0151795373778255
726,0.0150577753515525
727,0.0151459537129385
728,0.0151847723074884
729,0.0153638278304999
730,0.0155202935819063
731,0.0157703205757076
732,0.0160095098811675
733,0.0163265879370724
734,0.0164964373592719
735,0.016438687746838
736,0.016567944571385
737,0.016511361662854
738,0.0164547787543231
739,0.0163981958457922
740,0.0165330078182025
741,0.0165155045482417
742,0.0165020895241071
743,0.0164886744999726
744,0.016475259475838
745,0.0164533033608432
746,0.0163273589255818
747,0.0162885989578388
748,0.0160228861412078
749,0.0160668127937359
750,0.0159470237720046
751,0.0157999562874357
752,0.015966602757034
753,0.015648715719575
754,0.0154359911453158
755,0.0142785660723944
756,0.0131211409994729
757,0.0119637159265514
758,0.0101262287367302
759,0.00840793110158875
760,0.0072194069837291
761,0.00680789071565799
762,0.00699651136666663
763,0.00763443561124291
764,0.00862962103932029
765,0.00967326430440887
766,0.0108856367489778
767,0.0120614403682395
768,0.0128108148209124
769,0.013266354335723
770,0.0136474422361118
771,0.0138204874681774
772,0.0139909346990172
773,0.0141489480189301
774,0.0139958706458639
775,0.0139527510194563
776,0.0139654309131368
777,0.0137812562041498
778,0.0138586394791567
779,0.013712052474239
780,0.0138084561608209
