"wavelength","measurement"
380,0.0158527082926956
381,0.0151233670178931
382,0.0150236511033264
383,0.0147669355991044
384,0.0148518736066791
385,0.0156070077099351
386,0.0162365546671981
387,0.0169361843505245
388,0.0176661442997051
389,0.0178974641747416
390,0.0176761714047316
391,0.0174710820202524
392,0.0176367288702535
393,0.0176734668473838
394,0.0179814088201102
395,0.0191652469590716
396,0.0212031090082692
397,0.0233976027728733
398,0.0255920965374773
399,0.0277865903020814
400,0.0287259734433783
401,0.0300974501064635
402,0.0309076872180436
403,0.0311135859406071
404,0.0309493384362087
405,0.0307900185615018
406,0.0309528004556232
407,0.0310300567143417
408,0.0311999460108932
409,0.0317113803633102
410,0.0329784211654988
411,0.0331141231228087
412,0.0335887615579327
413,0.0342121294551721
414,0.0340526841264496
415,0.0341802112040146
416,0.0337771744811278
417,0.0333705054075771
418,0.0339313291523774
419,0.0330607296576637
420,0.0337165575214078
421,0.0335521318818637
422,0.0339812800810187
423,0.0341364459901448
424,0.0341133970468754
425,0.0335734379624275
426,0.0331265140359491
427,0.032056969258226
428,0.0310590314836899
429,0.0311190140870168
430,0.0311137748537782
431,0.0323200772724068
432,0.0335826294587882
433,0.0348671099901997
434,0.0363711482804767
435,0.0370000145124898
436,0.0374089641550709
437,0.0379753455267859
438,0.038541726898501
439,0.0391081082702161
440,0.0394083664618088
441,0.0402061087286669
442,0.0410363682650602
443,0.0414296880728527
444,0.0421085062656918
445,0.0427873244585309
446,0.04346614265137
447,0.0443354327406184
448,0.0444467324465914
449,0.0460630533649962
450,0.0458137918461391
451,0.0454423133392288
452,0.0453697375569631
453,0.0452971617746974
454,0.0452245859924318
455,0.0452235418708944
456,0.045396844140072
457,0.0459706650969836
458,0.0464580079139683
459,0.0471482300980621
460,0.0472636272883409
461,0.0468676550664797
462,0.0480644023897783
463,0.0467347041858153
464,0.0462413583803308
465,0.0459281655400029
466,0.0452220713334126
467,0.0451511342142004
468,0.0449159212213068
469,0.0447150169386674
470,0.0457065115143416
471,0.0456303782314678
472,0.0459696188605323
473,0.0465816868417037
474,0.0466092802756827
475,0.0473732244350724
476,0.0462637712227592
477,0.0462832253612209
478,0.0463026794996827
479,0.0463221336381445
480,0.0461679569029317
481,0.0450225534437635
482,0.0441571466173681
483,0.0441538808917005
484,0.0432030902773896
485,0.0423881465471559
486,0.0429395211388541
487,0.043379824878451
488,0.044096992802338
489,0.0451481838215574
490,0.0455520532535839
491,0.0460558080435839
492,0.0472199182720853
493,0.0465868012200125
494,0.0473888696429828
495,0.0466003627811295
496,0.0468686384648858
497,0.0461283118867488
498,0.0463645227814498
499,0.045369975420067
500,0.0457664653657783
501,0.0453760410063563
502,0.0463262585920474
503,0.0466855634361435
504,0.0463521826112573
505,0.047804377895538
506,0.0475931428909134
507,0.0478207768862101
508,0.0480933498180498
509,0.0481051292433306
510,0.0473027973279018
511,0.0478590974446372
512,0.0475304466422963
513,0.0462367123975454
514,0.0459048735883335
515,0.0451645160212017
516,0.0448928469025453
517,0.0449475216551082
518,0.0448555576592112
519,0.045836670400521
520,0.0468311540550609
521,0.0473286130330859
522,0.0478260720111109
523,0.0483235309891358
524,0.0480353652888902
525,0.0481791474448219
526,0.048342719610246
527,0.048043731459841
528,0.0483808571388298
529,0.0489920778395722
530,0.049065351381178
531,0.0491585637164028
532,0.0490166638722771
533,0.0495257724413162
534,0.0497448881771241
535,0.0491805042287907
536,0.0497964462344983
537,0.0494406231034494
538,0.0490641353388354
539,0.0489329328032878
540,0.0492223593381653
541,0.0488587296434068
542,0.0486109283403969
543,0.0489410588718918
544,0.0492025325390202
545,0.0488659483392506
546,0.0491790803104375
547,0.0491274535259286
548,0.0490758267414197
549,0.0490241999569107
550,0.0488521249413842
551,0.0493426226648132
552,0.0497268943070115
553,0.0493366769499276
554,0.0490892736945883
555,0.0497684139578837
556,0.0489422748071479
557,0.0489804662659921
558,0.0487104609021175
559,0.0483032808222481
560,0.0489773697413634
561,0.0481349607985186
562,0.0489547776596535
563,0.048159744397926
564,0.0484690810106826
565,0.0477377037938688
566,0.0475256993861042
567,0.0470347582786003
568,0.0473942131448131
569,0.0467234307322859
570,0.0467650018826458
571,0.0468762459154875
572,0.04682099056971
573,0.0467583046210037
574,0.0470496654278727
575,0.0464886113581829
576,0.04670849817747
577,0.0469283849967572
578,0.0471482718160443
579,0.0473681586353315
580,0.0475880454546187
581,0.0483191644736957
582,0.0481509568274605
583,0.0485206241930692
584,0.0477483579818233
585,0.0477472699216065
586,0.0465026910540234
587,0.0460943077511888
588,0.0457578477017481
589,0.0454213876523073
590,0.0450849276028666
591,0.0453008426041597
592,0.0457708696474136
593,0.0458643412412714
594,0.046418804854274
595,0.0462980025893504
596,0.046487779091581
597,0.0466765450771953
598,0.0464659869615573
599,0.0464659076037094
600,0.0467609826797548
601,0.0471489356198967
602,0.0473555344645581
603,0.047062840419986
604,0.0474773904118023
605,0.0472891883538474
606,0.047410280590998
607,0.0471165257365826
608,0.0466267625924733
609,0.0465805845167387
610,0.0462851118591838
611,0.0460639998741035
612,0.0456994382594333
613,0.045655527735391
614,0.0451198998450758
615,0.0458913350221953
616,0.0452680272374636
617,0.0456735681218881
618,0.0456014582482255
619,0.0458062626854368
620,0.0456073566735629
621,0.045984275633554
622,0.0449816818554713
623,0.04496191650114
624,0.0445759699465488
625,0.0441900233919576
626,0.0438040768373664
627,0.0437480607507729
628,0.0435818513790088
629,0.0436122068231183
630,0.0440234653956998
631,0.0437067301732557
632,0.0440439625050632
633,0.0443356118291521
634,0.0446182464315268
635,0.0449330067718394
636,0.0446000076322698
637,0.0450419445092039
638,0.0448817264473581
639,0.045058031090019
640,0.0449740094957216
641,0.0448459915204736
642,0.0447095710079736
643,0.0445050121769766
644,0.0443004533459797
645,0.0440958945149827
646,0.0444258858085179
647,0.0445501973206277
648,0.0437453947766283
649,0.0445070146242025
650,0.0440816338100676
651,0.0443629282734941
652,0.0439096734537408
653,0.0431188351910526
654,0.04249226497217
655,0.0428498610412533
656,0.0425296324165405
657,0.0428775851738596
658,0.0433646795729103
659,0.044393217221269
660,0.0447755833449819
661,0.0449406350361903
662,0.0449910127060712
663,0.0447742999042319
664,0.0445108935530795
665,0.0446654802251855
666,0.0446620066195936
667,0.0448559861288472
668,0.0448986714471054
669,0.0441268491465571
670,0.0444067781471212
671,0.0443407359535665
672,0.0442511177386492
673,0.044359278703956
674,0.0445759304964706
675,0.0445543303877692
676,0.0445595578244666
677,0.044846923809292
678,0.0444614182154008
679,0.0443593986102303
680,0.0454132245105323
681,0.0446040646854751
682,0.0434433390433662
683,0.0424998534391707
684,0.0407118659979167
685,0.0393010559944012
686,0.0380970668995158
687,0.0373651379187283
688,0.037364195081673
689,0.038146145495632
690,0.0391898964233021
691,0.0405187272260534
692,0.0414830921039363
693,0.0422216571293088
694,0.0433473156461362
695,0.0434762961787841
696,0.0443654638802439
697,0.0446495713973683
698,0.0444194908343762
699,0.044659757365823
700,0.0456606560776029
701,0.0454597306549615
702,0.0464114332483399
703,0.0464780200491366
704,0.0473134128266736
705,0.0471710591666024
706,0.048199553643798
707,0.0487175549965636
708,0.0487948953171607
709,0.0494817333567646
710,0.0491828496916758
711,0.0491742559492676
712,0.0493770478692496
713,0.0477434233999767
714,0.0473930061000745
715,0.04545166904582
716,0.044091879298382
717,0.0433164979111121
718,0.0430077717963331
719,0.043510803856599
720,0.0439409200911591
721,0.0436126662794557
722,0.0448482348955279
723,0.0448964218149623
724,0.0447737169583496
725,0.045009755183983
726,0.0450032347189667
727,0.045587713282519
728,0.0461291928375184
729,0.0470404801256062
730,0.0478606699183715
731,0.0489394836737254
732,0.0499391535628302
733,0.05108003477832
734,0.0516799196367956
735,0.0518420404343991
736,0.0524420883870231
737,0.0525803187764117
738,0.0527185491658003
739,0.0528567795551889
740,0.0537196452893849
741,0.0536680980920925
742,0.0539783109154908
743,0.0542885237388891
744,0.0545987365622874
745,0.0545593758846511
746,0.0544885602488714
747,0.0547627681677977
748,0.0541559063725361
749,0.0543933383497643
750,0.0544056631449125
751,0.0540885901775801
752,0.0546684339374303
753,0.0543303825493282
754,0.0531838607805614
755,0.0490197180045327
756,0.044855575228504
757,0.0406914324524753
758,0.0344017600290192
759,0.0288649624393444
760,0.0256876104209979
761,0.0253154873211218
762,0.0264330622985968
763,0.0294210367724281
764,0.0333600540590453
765,0.0373228255167686
766,0.0417977843248354
767,0.0459505079550454
768,0.0483301571934934
769,0.0501276802817879
770,0.0515873502684669
771,0.0522395995210797
772,0.052822694035655
773,0.0534403620259624
774,0.0533181553893799
775,0.0535565635305086
776,0.0536175091607631
777,0.0531710674249075
778,0.0538825259418219
779,0.0533377470028021
780,0.0541856469630676
