"wavelength","measurement"
380,0.00677443263665774
381,0.00694689163846221
382,0.00693170136304612
383,0.00667881282462688
384,0.00720811524140037
385,0.00737965735339086
386,0.00806237152953208
387,0.00865222735601497
388,0.00913881785250711
389,0.00948976334609631
390,0.00981010186574542
391,0.00998744799937572
392,0.0103807703271995
393,0.010730012042466
394,0.0115839950149215
395,0.0126252693779697
396,0.0144244270362209
397,0.016661592565061
398,0.0188987580939012
399,0.0211359236227413
400,0.0222191985525246
401,0.0239331471829779
402,0.0254299498895045
403,0.0264653254654539
404,0.0270557273702431
405,0.0278356878855324
406,0.0287552104993374
407,0.0294305316273637
408,0.0304866543415142
409,0.0314416261561919
410,0.0333824270140801
411,0.0337246351508793
412,0.0349536635715199
413,0.0357667205290565
414,0.0360995043354017
415,0.036386354728744
416,0.0363286508924691
417,0.0361447224558726
418,0.0367932152277106
419,0.0361863216507814
420,0.0368930380014366
421,0.0369399380313361
422,0.0372294464299042
423,0.0373993144908807
424,0.037253573102988
425,0.0365316452002091
426,0.0359764107609484
427,0.0349921903229246
428,0.033972030681954
429,0.0340214945705283
430,0.0341590508283654
431,0.0356625273166879
432,0.0369689702621283
433,0.0381659374597077
434,0.0396459850467416
435,0.040423800543428
436,0.0408220733058992
437,0.0414336919401505
438,0.0420453105744019
439,0.0426569292086533
440,0.0431552420483387
441,0.0437816585794946
442,0.0446532513679194
443,0.045053414378011
444,0.0458088207269877
445,0.0465642270759644
446,0.0473196334249411
447,0.0481661748245784
448,0.0479778311246991
449,0.0497016845715561
450,0.0491948263112845
451,0.0488677177022127
452,0.0486646325578003
453,0.0484615474133879
454,0.0482584622689755
455,0.0483758498339844
456,0.0482376382356898
457,0.0486973273972776
458,0.0492841736179696
459,0.0500149675435775
460,0.0501503406183642
461,0.0495473353643308
462,0.0508097293197054
463,0.0495444944899543
464,0.0487329702313644
465,0.0485731226601361
466,0.0481183302532053
467,0.0481485198828565
468,0.0478506146298511
469,0.0477235455480325
470,0.0490692539362137
471,0.0492424268943296
472,0.0496658327722672
473,0.0504237669126191
474,0.0507368394974528
475,0.0514831974967285
476,0.0506031627925327
477,0.050687249496856
478,0.0507713362011794
479,0.0508554229055028
480,0.0508613461961469
481,0.0495642492814954
482,0.0486005258036979
483,0.0484632824317472
484,0.0476967882318243
485,0.0466803456586973
486,0.0474064744813936
487,0.0477940577327159
488,0.0484871262037422
489,0.0497188723353288
490,0.0500142145813813
491,0.0504136794387043
492,0.0515194773181832
493,0.0508136252975825
494,0.0515189935160458
495,0.0506669417816804
496,0.0507404571061899
497,0.0497353586116249
498,0.0501264181488529
499,0.0488943543268707
500,0.0492401236457568
501,0.048808267889856
502,0.049766666227796
503,0.050015793458651
504,0.0493240155124775
505,0.0508551843911014
506,0.0505197525777895
507,0.0506737376589384
508,0.0508223028409562
509,0.0505593975227957
510,0.0495659144388693
511,0.0498931203320525
512,0.049258320590642
513,0.0476008816410117
514,0.0473385709159535
515,0.0464384544697159
516,0.0459145415030612
517,0.0459463087988778
518,0.0455526186505543
519,0.0464865848757001
520,0.0470762379235336
521,0.0473772521196669
522,0.0476782663158002
523,0.0479792805119334
524,0.0475574189918659
525,0.0474844009050787
526,0.0473269804054281
527,0.046924427410236
528,0.0472151941654105
529,0.0475538595397248
530,0.0474475219199462
531,0.0472641358391161
532,0.0471661419686481
533,0.0474157569214156
534,0.0474721662130882
535,0.0468441045315047
536,0.0471743537416076
537,0.0468903948478492
538,0.0463572905904925
539,0.0461602276768647
540,0.0463600530245473
541,0.0461272187560863
542,0.045741764272768
543,0.0459355909190405
544,0.0460590388450334
545,0.0455885063835777
546,0.0460163723138302
547,0.0458805399739098
548,0.0457447076339894
549,0.0456088752940691
550,0.045360719992562
551,0.0457339533140229
552,0.045952194735913
553,0.0454627304119552
554,0.0451194197353804
555,0.04556009610379
556,0.0448559017074729
557,0.0448114354456754
558,0.0444339657661421
559,0.0439518843272436
560,0.0445866479685937
561,0.0435691630602248
562,0.0442798284515904
563,0.0435212955269216
564,0.0435757022440268
565,0.0429827821341114
566,0.0426579917013911
567,0.0421719673479359
568,0.0425521834366226
569,0.0420678832797839
570,0.0420918832819253
571,0.0421749173895086
572,0.0423385967589434
573,0.0421634416752424
574,0.0425062381955951
575,0.0419480996720863
576,0.0422313756224741
577,0.042514651572862
578,0.0427979275232499
579,0.0430812034736378
580,0.0433644794240257
581,0.0440915036204771
582,0.0438644424099934
583,0.044326755433084
584,0.0436983179378502
585,0.0436923448730847
586,0.0428204000547415
587,0.0425471415683419
588,0.0423775291718415
589,0.0422079167753412
590,0.0420383043788408
591,0.0423212642982486
592,0.0427767387386148
593,0.042610656519463
594,0.0432919867335942
595,0.0431905046913125
596,0.0434743787426326
597,0.0436234317391271
598,0.043549991056389
599,0.0435294244547556
600,0.0438730233077405
601,0.0441578306565055
602,0.0442718445435296
603,0.0441363190012562
604,0.0446045486864008
605,0.0443401476958939
606,0.044417081692724
607,0.044178709121856
608,0.0437277944990459
609,0.0437836032946614
610,0.0435953843248906
611,0.0433151663521285
612,0.0429319750950109
613,0.042852332283539
614,0.0425652889685246
615,0.0432769830736151
616,0.0426492447136485
617,0.0431777985355487
618,0.0431487955348313
619,0.0431390785370674
620,0.0430989971297485
621,0.0434258095927544
622,0.0426678246482109
623,0.0424827842030175
624,0.0422225292451451
625,0.0419622742872727
626,0.0417020193294003
627,0.0417645067014921
628,0.0414773025538801
629,0.0415383776333834
630,0.0419646313328757
631,0.0416675146612455
632,0.0419407665724174
633,0.0423010517102112
634,0.0424870232090842
635,0.0426943275563373
636,0.042505852781987
637,0.0429567998817114
638,0.0425483490663609
639,0.0428817130131041
640,0.0428017418527805
641,0.042838979917625
642,0.042650222319907
643,0.0425421558928269
644,0.0424340894657469
645,0.0423260230386668
646,0.0427385733296355
647,0.0427657570145419
648,0.0422643064616113
649,0.0428400394613826
650,0.042420314874023
651,0.042729444116972
652,0.0421991248298795
653,0.0415675494450502
654,0.0408733489373004
655,0.0413389713296388
656,0.041249543752615
657,0.0416834097316001
658,0.042040712530695
659,0.0428948190767759
660,0.0432996435992314
661,0.0434736797777119
662,0.0437340977865714
663,0.0434885026596497
664,0.0431322635927484
665,0.0433954199215101
666,0.0433864796332017
667,0.0436710049961912
668,0.0437840791531679
669,0.042895369950187
670,0.0434526862754741
671,0.043261457943579
672,0.0431978365371064
673,0.0433395947302117
674,0.0435189734988037
675,0.0435551755012287
676,0.0434592357461132
677,0.0439574547458157
678,0.0433540249488093
679,0.0433351282311353
680,0.0445485418027123
681,0.0434705929705043
682,0.0421956395875809
683,0.0414558466126654
684,0.0398160713456732
685,0.0384838149417466
686,0.0374296663052828
687,0.0370769398170382
688,0.0371469492394924
689,0.0377330711554016
690,0.0386859521841458
691,0.0398828842650143
692,0.0406914827470263
693,0.0412181978823872
694,0.042063961005284
695,0.0420842272513264
696,0.043002982666742
697,0.0431112608112129
698,0.0428984239377057
699,0.0431376124495231
700,0.0440043149084663
701,0.0439880150674302
702,0.0444960174051353
703,0.0446904303445164
704,0.0454523320425583
705,0.045437913049062
706,0.0460918552052671
707,0.0465619320244775
708,0.0466598097394585
709,0.0471213732028939
710,0.0467620571795494
711,0.0469361201385359
712,0.0469955133743711
713,0.0456758019893651
714,0.0451428728479423
715,0.0436496954116675
716,0.0424734806556999
717,0.0420154167401272
718,0.0417415718229993
719,0.0423998878783632
720,0.0427282976930583
721,0.0422466636601269
722,0.0434288863586434
723,0.0434692672158445
724,0.0436019487858191
725,0.0438112637865695
726,0.0437316562835137
727,0.0445434072992692
728,0.0450278252788347
729,0.0458915118626528
730,0.0466049454450358
731,0.0474441770154195
732,0.0484836000958669
733,0.0496688767715106
734,0.0499999480624432
735,0.0502205948596759
736,0.0507339033560496
737,0.0509760818572965
738,0.0512182603585434
739,0.0514604388597903
740,0.0522653847447547
741,0.0524408888403831
742,0.0527906921883138
743,0.0531404955362444
744,0.053490298884175
745,0.0535609741227495
746,0.05358068539363
747,0.0540729588292022
748,0.0535517721187247
749,0.0537371542022397
750,0.0538264378279887
751,0.0538398683129895
752,0.0545891873498496
753,0.0540580749348021
754,0.0525945831871777
755,0.0484127242290555
756,0.0442308652709332
757,0.0400490063128109
758,0.0340621477372138
759,0.0291499756041033
760,0.027036454659619
761,0.0270064721855925
762,0.0282990624364758
763,0.031522666959222
764,0.0354204538462048
765,0.039109835003039
766,0.0433828296096138
767,0.0470653452848141
768,0.0497873979646866
769,0.0511926090912583
770,0.0525751127022244
771,0.0532975992542902
772,0.0539275515037007
773,0.0545819037237951
774,0.0544447134230401
775,0.0544774236903205
776,0.0548049658665902
777,0.0541951285322216
778,0.0548907695271305
779,0.0544633196623853
780,0.0550517327157893
