"wavelength","measurement"
380,0.00466963524847425
381,0.00447859332595623
382,0.00444730933952415
383,0.0044602629656136
384,0.00448365515447863
385,0.00469302741678825
386,0.00492257821212584
387,0.00514432355102974
388,0.00535853814513193
389,0.00550548165692058
390,0.00542707751641015
391,0.00543989295574405
392,0.00549577267602095
393,0.00555326751778127
394,0.00575567675010711
395,0.00612315937445894
396,0.00682689115724291
397,0.00756924008461917
398,0.00831158901199543
399,0.00905393793937169
400,0.0094836731353843
401,0.0100031973122119
402,0.010364304165948
403,0.0104512362360798
404,0.0105934742445817
405,0.0105764560066058
406,0.0108713354678217
407,0.010931176232224
408,0.0110478159714518
409,0.0112771959808314
410,0.0118282692323817
411,0.0119080517143259
412,0.0122801859685665
413,0.0123989473418396
414,0.0124023158567373
415,0.0125205830492589
416,0.0123969008824685
417,0.0122930513935844
418,0.012508108719136
419,0.012321521236696
420,0.0126142723060152
421,0.0125617314607105
422,0.0126573349980119
423,0.0127861525198185
424,0.0128556411336535
425,0.0124957683346608
426,0.0124040321834209
427,0.0120376324188893
428,0.0117921356468917
429,0.0118190043953772
430,0.0118813278240952
431,0.0123410138485279
432,0.0128736523654317
433,0.0133213548782189
434,0.0138756064914311
435,0.0141283250168856
436,0.0142764292303902
437,0.0145252426957685
438,0.0147740561611468
439,0.0150228696265251
440,0.0151628382920821
441,0.015415571078546
442,0.015775114197763
443,0.0159414407966014
444,0.0162376550234537
445,0.0165338692503059
446,0.0168300834771581
447,0.0171488962159808
448,0.0171883837760469
449,0.0178859278757528
450,0.0177924914638955
451,0.0177264120862156
452,0.0177128489901251
453,0.0176992858940347
454,0.0176857227979442
455,0.0176689413566049
456,0.0177475381975701
457,0.0180116857658329
458,0.0181457135719392
459,0.0184095182393602
460,0.0184866025063286
461,0.0183398220126671
462,0.0187876013041524
463,0.0183450640681426
464,0.0181676039638728
465,0.0180416768889567
466,0.0178706119474457
467,0.017847514594523
468,0.0177732352776914
469,0.0177059290278841
470,0.0180790165067154
471,0.0181232363903291
472,0.0182383596756264
473,0.0184448913741747
474,0.0185178472663896
475,0.0187750559353527
476,0.0184271267623126
477,0.0184425237639745
478,0.0184579207656364
479,0.0184733177672983
480,0.0184569196367907
481,0.018051242006599
482,0.0178171166102179
483,0.0177699460276603
484,0.0174933708614598
485,0.0172041865375982
486,0.0174833768118479
487,0.0177014094327017
488,0.0179415442174881
489,0.0184331303411699
490,0.0185959341629132
491,0.018756199795136
492,0.0191587836683659
493,0.0189562327686084
494,0.0192474743662039
495,0.0189681513731348
496,0.0190003369448585
497,0.0186857310596665
498,0.0187326196979231
499,0.0182925229811388
500,0.0183834056474877
501,0.0182195136514234
502,0.0185311180707277
503,0.0186546616344564
504,0.0184145748489933
505,0.0190119208739406
506,0.0189192683378875
507,0.018969076806087
508,0.0191639635238771
509,0.0191386535575818
510,0.0188316769534555
511,0.0190927181381351
512,0.0188679393583839
513,0.0183418961158612
514,0.0181925715450062
515,0.0178911121147468
516,0.0178024758068252
517,0.0177812084639414
518,0.0177308980851179
519,0.018065818410814
520,0.0183746548461898
521,0.0184991489439344
522,0.0186236430416791
523,0.0187481371394237
524,0.0185455148707499
525,0.0185420191310597
526,0.0185152359421071
527,0.0183832948545078
528,0.0184258012738104
529,0.0186091954292731
530,0.0185315970623779
531,0.0185436508987348
532,0.0184754316331241
533,0.0186706127712674
534,0.0187252271284746
535,0.018495818279042
536,0.0186845912763419
537,0.0185581443198596
538,0.0184089565522283
539,0.0182903636995617
540,0.0183522679080096
541,0.0182383626408908
542,0.018074173472434
543,0.0181713806976106
544,0.0182472928163062
545,0.0181237145384293
546,0.018269602185735
547,0.0182517712423682
548,0.0182339402990015
549,0.0182161093556348
550,0.018161365188372
551,0.0182840683123726
552,0.0184008157130476
553,0.0182288846531496
554,0.0181096498720065
555,0.018251965600618
556,0.0179989862772046
557,0.0179561733163847
558,0.0177734073295989
559,0.0175983139417263
560,0.0178034820249026
561,0.0174243483431049
562,0.0176688660273968
563,0.0173360972385013
564,0.0173711111984988
565,0.0170734294533193
566,0.0169125096644822
567,0.0165935964020931
568,0.0166566636117366
569,0.0164468865858982
570,0.0163819276890943
571,0.0163534386374164
572,0.0163172664549342
573,0.0162850985415457
574,0.0163526807674502
575,0.0162013174280645
576,0.0163619488408062
577,0.016522580253548
578,0.0166832116662897
579,0.0168438430790315
580,0.0170044744917732
581,0.0173461462525149
582,0.0173848051667239
583,0.0175351059571379
584,0.0172643569838744
585,0.0171953102688941
586,0.0167404870207916
587,0.0164146120630605
588,0.016233645107783
589,0.0160526781525054
590,0.0158717111972279
591,0.0159378271487776
592,0.0161008222506143
593,0.0161197825520645
594,0.0163506271635628
595,0.0164007644228781
596,0.0165706558403452
597,0.0166709470676725
598,0.0167421082048357
599,0.0168076463618162
600,0.0169945925568557
601,0.0171491195352562
602,0.017299522213625
603,0.0172311123650002
604,0.0173782822882377
605,0.0173272112151265
606,0.0174605029648164
607,0.0173804645095576
608,0.0172651489024114
609,0.01728740204102
610,0.0172263820614863
611,0.0172023056278629
612,0.0171030062843556
613,0.0170698518929996
614,0.016981080999252
615,0.0172291659871835
616,0.0170361113971163
617,0.0172988870997326
618,0.0172709590514216
619,0.0173420528055747
620,0.0172576868506797
621,0.0173611411463046
622,0.0170010173392641
623,0.0170049797774875
624,0.0167961422140972
625,0.0165873046507069
626,0.0163784670873165
627,0.0162644593044424
628,0.0162274393440096
629,0.0162748430119292
630,0.0165170618725209
631,0.0164516686228857
632,0.0166967484663041
633,0.0169206612604997
634,0.017128529046193
635,0.0172751415367987
636,0.0172183623377698
637,0.0174940511188008
638,0.0174604106141305
639,0.0176900439122249
640,0.0176859949370279
641,0.0176710362548758
642,0.0175949312515711
643,0.0174767555252777
644,0.0173585797989843
645,0.0172404040726909
646,0.0173409665841227
647,0.0172718949898664
648,0.0170437868537319
649,0.0173779688863063
650,0.0172554359660048
651,0.017395931513509
652,0.0172737742755924
653,0.0170248686915342
654,0.0168244683762501
655,0.0170947594268452
656,0.0170550030837938
657,0.0173361304167347
658,0.0176236822374984
659,0.0180323074986395
660,0.0182543607176658
661,0.0183831486310349
662,0.0184830804236734
663,0.0184588518435318
664,0.0183599069058501
665,0.0184512440473137
666,0.0185237912583816
667,0.0186597033201782
668,0.0186923779857086
669,0.018412847569815
670,0.0185261681436706
671,0.0185558440163307
672,0.0184782252895029
673,0.018577694420394
674,0.0186654646546279
675,0.0186530550647306
676,0.0186855219146027
677,0.0187997129685559
678,0.018626620695416
679,0.0186336120005915
680,0.0190434494781922
681,0.0186962343309391
682,0.0179635737470063
683,0.0174098038011883
684,0.0163876341159319
685,0.01557925906811
686,0.0148338883744974
687,0.0145206358071214
688,0.0144440980362848
689,0.0146723696941882
690,0.0150960029103407
691,0.0156421893048427
692,0.015939982683862
693,0.0162867157483655
694,0.0167892703051004
695,0.0167981592642505
696,0.0171757548384567
697,0.0172566176287821
698,0.017089945239247
699,0.0171955817343517
700,0.0175085108405837
701,0.017521875799236
702,0.017879455353964
703,0.0180393030618953
704,0.0183597870519267
705,0.0184366463342698
706,0.018802266472141
707,0.0190410661617318
708,0.0191378240147306
709,0.0193397867574457
710,0.0191286653643996
711,0.0190781759401445
712,0.0189672832758757
713,0.0179559870721798
714,0.0173722272748926
715,0.0162269487926448
716,0.0153535777161926
717,0.0148609314106528
718,0.014653986019715
719,0.0148859967009745
720,0.0149825948042478
721,0.0148662624298012
722,0.0151643935519167
723,0.0151053040718964
724,0.0150002348226425
725,0.0150798783137314
726,0.0150839881896575
727,0.0154000723821822
728,0.015777027141478
729,0.0162466676246366
730,0.016809760557834
731,0.0175085328839605
732,0.0180903884780795
733,0.0187704972249836
734,0.0191087553944853
735,0.0193637206013578
736,0.0197302836374099
737,0.019962922692704
738,0.020195561747998
739,0.020428200803292
740,0.0208616803785709
741,0.0210248976316291
742,0.0212026083909491
743,0.0213803191502692
744,0.0215580299095893
745,0.0216776675960939
746,0.0216081478833706
747,0.0216871216257328
748,0.0214717714733044
749,0.0216737775645484
750,0.0215667862955071
751,0.021540987275097
752,0.0218472002368503
753,0.0215765241384033
754,0.0208916929604917
755,0.018938508233511
756,0.0169853235065302
757,0.0150321387795494
758,0.0122525415398979
759,0.00985777252406117
760,0.00848302840816748
761,0.00816337646875309
762,0.00859592609542097
763,0.00999053490839022
764,0.0117728092267022
765,0.0136729232420885
766,0.0156160397896831
767,0.0176306445768429
768,0.0187739419987727
769,0.0198122840366916
770,0.020535969197362
771,0.0209549161119554
772,0.0212423079563309
773,0.0216081196611885
774,0.0215660480977918
775,0.0216739434986493
776,0.021739171871822
777,0.021467569811039
778,0.0218343064813071
779,0.0215528887292696
780,0.0218437415149049
