"wavelength","measurement"
380,0.00401255200832529
381,0.00391497247358191
382,0.00391468058340516
383,0.0039061976811394
384,0.00386685134817628
385,0.00415503405449252
386,0.00430938401940812
387,0.00450441580918704
388,0.00472989388662521
389,0.00484021793976088
390,0.00476981910544725
391,0.00475275259355913
392,0.00481131461692441
393,0.00487818109723021
394,0.00512050737878134
395,0.00535688340744403
396,0.00601080536928578
397,0.00666641116935856
398,0.00732201696943133
399,0.00797762276950411
400,0.008343311136672
401,0.00874350567059481
402,0.00912035490641561
403,0.0092532255225017
404,0.00935789377068501
405,0.00929508150267642
406,0.00959444971599931
407,0.00968786306170972
408,0.00976703704828978
409,0.0100206431812365
410,0.0104881862301622
411,0.0105151809873273
412,0.010842449616849
413,0.0109938420283053
414,0.0110024820898848
415,0.0111128271823462
416,0.0110052651097082
417,0.010941039258936
418,0.0111372438256379
419,0.0109089437931298
420,0.0112060478571752
421,0.0111338791221692
422,0.0112716572225604
423,0.0113091122167244
424,0.0113647404399069
425,0.0111163332090909
426,0.0109716078866359
427,0.0106988325428819
428,0.0104302318353439
429,0.0104865851162673
430,0.0105417747135878
431,0.0109872062130366
432,0.0114114796851704
433,0.01182709309448
434,0.0122825155241056
435,0.0125451749932509
436,0.0126795282978616
437,0.0128942272472262
438,0.0131089261965908
439,0.0133236251459555
440,0.0134198054872992
441,0.0136508740233497
442,0.0139484986391114
443,0.0141284228723814
444,0.0143922071425473
445,0.0146559914127131
446,0.014919775682879
447,0.0151799324746558
448,0.0152399938468185
449,0.015784403620983
450,0.0157136299331785
451,0.0156720876072604
452,0.0156467807678524
453,0.0156214739284444
454,0.0155961670890365
455,0.0156025607463806
456,0.0157143524565864
457,0.0158984250665295
458,0.0160058006332956
459,0.0162788324233406
460,0.0163444988376933
461,0.0161753063332065
462,0.0166515683990376
463,0.0161567251579869
464,0.0160309086941177
465,0.0159471244325815
466,0.0157870076669414
467,0.0158098346273443
468,0.0157670652554867
469,0.0156443875113948
470,0.0160527456336117
471,0.0160042125712472
472,0.0161309124577104
473,0.016313158912542
474,0.0163380654504946
475,0.0165567365403921
476,0.0162912252353082
477,0.0163046077726098
478,0.0163179903099115
479,0.0163313728472132
480,0.0163212458318444
481,0.0159660086375251
482,0.0157402914402128
483,0.0157064338395142
484,0.0154496398374772
485,0.0152359059624475
486,0.0154482751400868
487,0.0156242470588798
488,0.0158651350781661
489,0.0162981484609387
490,0.0164676087736114
491,0.0165707949961138
492,0.0169584455574558
493,0.0167237792785986
494,0.0169995861378512
495,0.0167327790994378
496,0.0168428456150367
497,0.0164375888336336
498,0.0165709242685669
499,0.0161676681635881
500,0.0162344801704673
501,0.0161002139383096
502,0.0163435192572609
503,0.0164481137181923
504,0.016218370769292
505,0.0167626575546986
506,0.0167087221477953
507,0.0167548520289022
508,0.0168776231122308
509,0.0168772202460417
510,0.0166038326454873
511,0.0168213219865525
512,0.0166706404610955
513,0.0161459153789476
514,0.0160480078212528
515,0.015781442417129
516,0.015674334346878
517,0.0156677342752085
518,0.0156230414054243
519,0.0159173483779098
520,0.0161927928768794
521,0.0162977955721819
522,0.0164027982674844
523,0.0165078009627868
524,0.0163717852064764
525,0.0163209933470239
526,0.0162923183132808
527,0.0161659607953757
528,0.0162244734478015
529,0.0163460760986489
530,0.016325706036666
531,0.0162885719084702
532,0.0162279200220214
533,0.0164495869872316
534,0.0164692022158147
535,0.0163154671580017
536,0.0164295254238883
537,0.0163261232827967
538,0.0161928530680641
539,0.0160647571987415
540,0.0161802768140644
541,0.0160314205902953
542,0.0158932311498967
543,0.0159803879496239
544,0.0160868498582696
545,0.0159524011365705
546,0.0160371070926568
547,0.0160183798586255
548,0.0159996526245941
549,0.0159809253905627
550,0.0159402211640368
551,0.0160387288193628
552,0.0161583490213863
553,0.0159738669726699
554,0.0158914093039123
555,0.0160497838168912
556,0.0157792217230291
557,0.0157193788746421
558,0.0156357584737254
559,0.0154886442441085
560,0.0156024388514664
561,0.0152525105236219
562,0.0154874200887695
563,0.0151926370908756
564,0.0152421727113482
565,0.0149394285296461
566,0.0148150756482177
567,0.0145740520882445
568,0.0146040995994614
569,0.0144153255542137
570,0.0143529241512933
571,0.0143152649075059
572,0.0143217971798257
573,0.0142659220864064
574,0.0143359172902729
575,0.014174205735054
576,0.014326719732278
577,0.014479233729502
578,0.014631747726726
579,0.0147842617239501
580,0.0149367757211741
581,0.0152201856692012
582,0.0151991463700214
583,0.0153961389408896
584,0.0151480483124085
585,0.0150433368197112
586,0.0146452689153234
587,0.0144037737386645
588,0.0142400275341535
589,0.0140762813296424
590,0.0139125351251314
591,0.0140053865221579
592,0.0141209541261219
593,0.0141230279611088
594,0.0143859551071792
595,0.0144028974972539
596,0.0145387619841143
597,0.0146553440971374
598,0.0147150753386914
599,0.0147524197531692
600,0.0149137822508336
601,0.0150634701354991
602,0.0151896773451933
603,0.0151173261532549
604,0.0152880565509667
605,0.0152124615639046
606,0.0152715684738934
607,0.0152476503681488
608,0.0151349842195633
609,0.0151680103632289
610,0.0151386744046655
611,0.0150743141579252
612,0.0150069473589805
613,0.0150185140764219
614,0.0148716740578551
615,0.0151344821526978
616,0.0149942328044911
617,0.0151606974039711
618,0.0151511119295142
619,0.0152091948714624
620,0.0151599068720577
621,0.0152326186898371
622,0.0149325127829209
623,0.0149372634898071
624,0.0147397842939436
625,0.0145423050980801
626,0.0143448259022166
627,0.0142695319640395
628,0.0142522657973306
629,0.0142996716548854
630,0.0145106159562843
631,0.0144378655324638
632,0.0146785704848042
633,0.0148687979314803
634,0.0150201731296798
635,0.0151730917695871
636,0.0151508650136068
637,0.0153928815849292
638,0.0153852451875874
639,0.0155579085577201
640,0.0155092961274582
641,0.0155353361743074
642,0.0154462422551495
643,0.0153427808772266
644,0.0152393194993036
645,0.0151358581213807
646,0.0152110646574955
647,0.0152077609453309
648,0.0150009623387115
649,0.0153023523949173
650,0.0151652890556
651,0.0153053247797176
652,0.015159834789385
653,0.0149837126785164
654,0.0147966822756059
655,0.0150036315598824
656,0.0150325684515153
657,0.0152151184089147
658,0.0154419735426502
659,0.0158549123850844
660,0.0160560020369531
661,0.0161602747949121
662,0.0162344126851988
663,0.0161981849043027
664,0.0161473944233715
665,0.0162039470204581
666,0.016293792349402
667,0.0163217422593006
668,0.01646490591572
669,0.0161413200401219
670,0.0162794754561231
671,0.0162997490353453
672,0.0162849728380164
673,0.016332705269012
674,0.0164244715874388
675,0.0164012342516051
676,0.0164023893184865
677,0.0165672791852626
678,0.016374064164872
679,0.0163780250149664
680,0.0167308443926315
681,0.0164078028177014
682,0.0157866472153785
683,0.0153119143408076
684,0.0144154516109008
685,0.0136847867154105
686,0.0131070763870848
687,0.0127686955664499
688,0.0127418844104189
689,0.0129246554494029
690,0.0133166046445851
691,0.0138215864843793
692,0.014118731731387
693,0.014374857692383
694,0.0148068359281838
695,0.0148984449249441
696,0.0152170823824503
697,0.0153136317191635
698,0.0151171496363671
699,0.0152191513370827
700,0.0155173354400518
701,0.0155299734398263
702,0.015860704782866
703,0.0159584226875476
704,0.0163042188601925
705,0.0163531646733352
706,0.01670525286583
707,0.0168685977273186
708,0.0169610814124573
709,0.0171607756931321
710,0.0170382097154352
711,0.01698111854113
712,0.0168377930006613
713,0.0159852234507415
714,0.0154714619107025
715,0.0144918906391663
716,0.0137158663632877
717,0.0133309982802913
718,0.0131311911000214
719,0.0133089119667723
720,0.0134523025737178
721,0.0133085121741869
722,0.0136349946925377
723,0.0135767197568022
724,0.0135058471348811
725,0.0135490342951375
726,0.0135451213477854
727,0.0138319432558423
728,0.0141522171190194
729,0.0146003422469565
730,0.0150920136600425
731,0.0157088410794105
732,0.0162790346765919
733,0.0168292542649637
734,0.0171984738758282
735,0.0173631823208211
736,0.0177748518414613
737,0.0179871988177178
738,0.0181995457939744
739,0.0184118927702309
740,0.0187942093300299
741,0.0189435530546245
742,0.0191055758077999
743,0.0192675985609754
744,0.0194296213141509
745,0.0194826984706309
746,0.019497788450673
747,0.0195812531347774
748,0.0193236692991094
749,0.0194833453631662
750,0.0195342574450757
751,0.0194755920007011
752,0.0197276333882452
753,0.0195116281008271
754,0.0188794707866656
755,0.017107748425353
756,0.0153360260640403
757,0.0135643037027276
758,0.0110363218202113
759,0.00890628845547352
760,0.00771502262936497
761,0.00741855016790444
762,0.00780474083866461
763,0.00903901252118704
764,0.0106605884192484
765,0.0123603946089009
766,0.0141649685597548
767,0.0160012275619778
768,0.0171087244488098
769,0.0179276650422759
770,0.0186346564243784
771,0.0189573294596335
772,0.0192799788095836
773,0.0195748594726089
774,0.0195100551168338
775,0.0196028201386378
776,0.0196596052785789
777,0.0194856434294828
778,0.0197352915484469
779,0.0195151748227457
780,0.0197874376057522
