"wavelength","measurement"
380,0.00406609481466139
381,0.00401155939914576
382,0.003927774587344
383,0.00390788516606462
384,0.00391891016897165
385,0.00412734545927055
386,0.00431770455895084
387,0.00448539791029834
388,0.00467217690903657
389,0.00478340692269892
390,0.00468264144402743
391,0.00467331531461458
392,0.00467153499753766
393,0.00470014794230645
394,0.00484928593427271
395,0.0051239998929711
396,0.00565027719915465
397,0.00620773981669422
398,0.00676520243423379
399,0.00732266505177335
400,0.00759522866724846
401,0.00794139465733612
402,0.0081975321552917
403,0.00826467680497915
404,0.00823844908968053
405,0.00817292012587435
406,0.00830714905873725
407,0.00831673481989556
408,0.0083610966480287
409,0.00847980629871766
410,0.00884486838896294
411,0.00883503707486349
412,0.00905384182718317
413,0.00917124338033838
414,0.00911822899805094
415,0.00920181985402475
416,0.00908592185395985
417,0.00903476669816664
418,0.00913672703769887
419,0.00893290266331972
420,0.00918753926357518
421,0.00914102927736
422,0.00922024151871378
423,0.00925533266247269
424,0.00931257339745467
425,0.00913653972561162
426,0.00903237138093462
427,0.00877362641867527
428,0.00855461396403114
429,0.00857513933221003
430,0.00862648887983793
431,0.00901944308952353
432,0.00938454944539119
433,0.0096860066500423
434,0.0101053926747966
435,0.0103121908976659
436,0.010432650449454
437,0.0106038250476604
438,0.0107749996458669
439,0.0109461742440734
440,0.0110166001412571
441,0.0112239640274209
442,0.011490880625172
443,0.011638918848297
444,0.0118646352348917
445,0.0120903516214864
446,0.0123160680080811
447,0.0125527375703198
448,0.0126128481798866
449,0.0130857282547274
450,0.013037379068524
451,0.0129640469364185
452,0.0129744630492731
453,0.0129848791621277
454,0.0129952952749822
455,0.0130061410955931
456,0.0130430230682374
457,0.013267134213822
458,0.0133250858124694
459,0.0135910824852025
460,0.0136564101708499
461,0.0135192508219259
462,0.0138826177948836
463,0.013515075048584
464,0.013341822998013
465,0.0133134260235443
466,0.0131295312820283
467,0.0131385432876919
468,0.0130217726872061
469,0.0129932926933714
470,0.0132523726443708
471,0.0132582525890664
472,0.0133424788469058
473,0.0134765929864313
474,0.0134923558062261
475,0.0136541400880128
476,0.0133736919727656
477,0.0133956582212881
478,0.0134176244698106
479,0.0134395907183331
480,0.013435289315612
481,0.013120564686758
482,0.012940007763081
483,0.0129480235507095
484,0.0127155812797755
485,0.0125253488942981
486,0.0127128897375419
487,0.0128512851659157
488,0.0130512781925054
489,0.0134026394634
490,0.0135609865704276
491,0.0136275312835872
492,0.0139899924715272
493,0.0138122075845834
494,0.0140369077427962
495,0.013826933382886
496,0.0138900589353318
497,0.0136464198486014
498,0.0136878274061524
499,0.0133738404909991
500,0.0134548021777084
501,0.0133113545334426
502,0.0135422190598279
503,0.0136197128214613
504,0.0134356207087982
505,0.013909790749634
506,0.013850835652231
507,0.0139222438472422
508,0.01405138668352
509,0.0140438621421207
510,0.0138431523599449
511,0.0140544238018188
512,0.0138901367820416
513,0.0134932030648334
514,0.0134159280921217
515,0.0132251318748841
516,0.0131402737096173
517,0.0131509276032315
518,0.0131113316766065
519,0.0133693372303851
520,0.0136176259409835
521,0.0137184865989538
522,0.013819347256924
523,0.0139202079148942
524,0.0137909345284844
525,0.0138030979217288
526,0.0137654026035463
527,0.0136877254584111
528,0.0137736604625106
529,0.0138687255294129
530,0.0138469121964987
531,0.0138614584823986
532,0.0137951866234721
533,0.0139606869463042
534,0.0140252658912103
535,0.0138797509101945
536,0.0140120656556641
537,0.0139268558863891
538,0.0138200019975273
539,0.013722572035929
540,0.0137807123635803
541,0.0136694463289496
542,0.0135923102122511
543,0.0136543316309469
544,0.0137269112782465
545,0.0136062912130385
546,0.0137357498331063
547,0.0137245775658837
548,0.013713405298661
549,0.0137022330314383
550,0.0136926317592516
551,0.0137945527062475
552,0.0138980252404805
553,0.0137817045106552
554,0.0137139217797821
555,0.0138379418966995
556,0.0136491755105824
557,0.0136254259495451
558,0.0135325160985034
559,0.0134217626391178
560,0.0135487430438334
561,0.0132841151614811
562,0.013472271732355
563,0.0132280290004258
564,0.0132655716207225
565,0.0130155047514841
566,0.0129097992975754
567,0.0127019167874125
568,0.0127522558610851
569,0.0125597253975542
570,0.0125076159024169
571,0.0124879458692657
572,0.012459123528966
573,0.0124332497517294
574,0.0124861356635527
575,0.0123863503477037
576,0.0125174988936416
577,0.0126486474395795
578,0.0127797959855174
579,0.0129109445314553
580,0.0130420930773932
581,0.0132807203300672
582,0.0133040750159043
583,0.0134190270693855
584,0.0132035093602753
585,0.0131155272926295
586,0.0126994314620159
587,0.0124692248680326
588,0.0122990983240403
589,0.0121289717800479
590,0.0119588452360556
591,0.0120410101074664
592,0.0121530461530015
593,0.0121964495713754
594,0.0123917404158282
595,0.0124200455970288
596,0.012556970682017
597,0.012668452321982
598,0.0127371134257564
599,0.0127993878558135
600,0.0129500404968025
601,0.0130928222911257
602,0.0132110327958037
603,0.0131663591022852
604,0.013293424909341
605,0.0132800514663274
606,0.0133320819956766
607,0.0132800077058652
608,0.0131955051831123
609,0.0132232471045078
610,0.0131758524493455
611,0.0131373760056098
612,0.0130771360271548
613,0.0130489082539519
614,0.0129836215644679
615,0.0131614139852129
616,0.0130790461689526
617,0.013218232469928
618,0.0132014543558448
619,0.0132655722883438
620,0.0132014730627118
621,0.013297013847282
622,0.0129969375459523
623,0.01294545479077
624,0.0127776497767458
625,0.0126098447627217
626,0.0124420397486975
627,0.0123649433496429
628,0.0123448279317977
629,0.0123677676045487
630,0.0125659235811144
631,0.0125091493782442
632,0.0127259366058199
633,0.01287439795496
634,0.0130212618555617
635,0.0131622522803311
636,0.0131490203536222
637,0.0133693419091663
638,0.013343894293287
639,0.0134839472643493
640,0.0134742272824964
641,0.0134884816471489
642,0.0134377069315306
643,0.0133092027081243
644,0.013180698484718
645,0.0130521942613117
646,0.0131339872641839
647,0.0130992944120846
648,0.0129157078773226
649,0.013159530342892
650,0.013073282849663
651,0.013181535554986
652,0.0130928098673555
653,0.0129076494744083
654,0.0127368637342188
655,0.0129515096850524
656,0.0129446386377171
657,0.0131903223339866
658,0.013376489738872
659,0.01375949379824
660,0.0139007823496771
661,0.0139871854271219
662,0.0140822599540866
663,0.0140396239801993
664,0.0139937914000131
665,0.0140669155114435
666,0.0141310477787064
667,0.0141956110420289
668,0.0142629029111436
669,0.013994323917167
670,0.0141163082622948
671,0.0141072259248023
672,0.014093910238969
673,0.0141543479414881
674,0.0142109683149697
675,0.0142181875627467
676,0.014189826761901
677,0.0143368119751415
678,0.0141891942432706
679,0.0141847836689911
680,0.0145075472168976
681,0.014237919545117
682,0.0136881376472684
683,0.0131847306745634
684,0.0124184168925063
685,0.011757947441616
686,0.0112226751227008
687,0.0108920640697971
688,0.0108355689150941
689,0.0109914981250625
690,0.0112785391466975
691,0.0116869182313138
692,0.0118949927817337
693,0.012137933955404
694,0.0124379952945417
695,0.0125415872476696
696,0.0127475485725597
697,0.0127849430219581
698,0.012614641696522
699,0.0126586414300611
700,0.0129139036883399
701,0.0128670678996849
702,0.0131375380051454
703,0.0131811111881854
704,0.0134737332332478
705,0.0134749794816665
706,0.0137000417778129
707,0.0138982797367456
708,0.0139271777905704
709,0.0140837826527244
710,0.013916785007532
711,0.013826356720934
712,0.0136474861330181
713,0.0128872939016816
714,0.0123607896724356
715,0.0114711702683357
716,0.010741603386134
717,0.0103402847802219
718,0.0101479464437274
719,0.0102247138839483
720,0.0103423624977016
721,0.0102293759786711
722,0.0103946710016141
723,0.0102954126959281
724,0.0102338554589405
725,0.0102397137679249
726,0.0101844780710423
727,0.0104090074742656
728,0.0106460307814063
729,0.0109816923612563
730,0.0113983800690098
731,0.0118731000128309
732,0.0122912585126893
733,0.0127254791967972
734,0.0129655937450969
735,0.0131684720547715
736,0.013450244619411
737,0.0136098691372501
738,0.0137694936550891
739,0.0139291181729282
740,0.0142147780765277
741,0.0143356896208805
742,0.0144285499941516
743,0.0145214103674226
744,0.0146142707406937
745,0.0146623743333675
746,0.0146393111701469
747,0.0147127618159254
748,0.014516427739448
749,0.0146072002623929
750,0.0145472980278802
751,0.0145250712786384
752,0.0146991766993592
753,0.0144623741924703
754,0.0140134481806355
755,0.0126960873878007
756,0.0113787265949658
757,0.010061365802131
758,0.00811602569462676
759,0.00649011971912947
760,0.00560988460094317
761,0.00534535736292496
762,0.0056213753628784
763,0.00654147352126431
764,0.00771824684996093
765,0.00894031024119669
766,0.0103088821921913
767,0.011632688729231
768,0.0125063079525434
769,0.0130889205572933
770,0.0135774180493538
771,0.0138403414453176
772,0.0140872675920878
773,0.0143181801823538
774,0.014253878233874
775,0.0142847048865474
776,0.0143522559611685
777,0.0141849560821525
778,0.0143747207088489
779,0.0142496667519271
780,0.0144407110490874
