"wavelength","measurement"
380,0.00143424728067256
381,0.00141865491148503
382,0.00148937131064714
383,0.00145489418083724
384,0.00153595453012723
385,0.00165676251203773
386,0.00171194529429832
387,0.00183094233890009
388,0.00197302282587174
389,0.00206772820580728
390,0.00204048081850757
391,0.00210801255172822
392,0.00215816756551728
393,0.0021759663664436
394,0.00226678215071312
395,0.00244273158736528
396,0.00268016845271681
397,0.00305109878502231
398,0.00342202911732781
399,0.00379295944963332
400,0.00397918917795821
401,0.00428191815553792
402,0.00451084347923118
403,0.00466666984411623
404,0.00476415991962016
405,0.00484540527682121
406,0.00502666185455644
407,0.00511712108236115
408,0.00528202369281738
409,0.00548128412143178
410,0.0057265563575957
411,0.00588870657139364
412,0.00610391538768445
413,0.00628598887304211
414,0.0063545967952011
415,0.00647095912351738
416,0.00649367247787787
417,0.00651581786878128
418,0.00666079331328556
419,0.00656822288542467
420,0.0067941814098188
421,0.00682078122663034
422,0.00690015012265865
423,0.00703360737953285
424,0.0070802432064568
425,0.00699577850639615
426,0.00694542593958896
427,0.00681972851859823
428,0.00662117123290161
429,0.0066716210135254
430,0.00669901748415137
431,0.00697491000074425
432,0.00731196837891043
433,0.0075827334246513
434,0.00797321724196435
435,0.00820242035910349
436,0.00823723363426516
437,0.00840795432080784
438,0.00857867500735052
439,0.0087493956938932
440,0.00881963756364443
441,0.00901995762101669
442,0.00934430058919253
443,0.00942274303420623
444,0.00962575484881207
445,0.00982876666341792
446,0.0100317784780238
447,0.0102909305149766
448,0.010392960563679
449,0.0107782919623727
450,0.0107647363032121
451,0.0108076894289726
452,0.0108153000766119
453,0.0108229107242512
454,0.0108305213718904
455,0.0108682050560799
456,0.0109705533053329
457,0.0110478637674527
458,0.0111785000997067
459,0.0113532659432426
460,0.0113720656814851
461,0.0113005978860831
462,0.0115960716462313
463,0.0113602456891064
464,0.0112866652527265
465,0.0112165092861244
466,0.0110953517630188
467,0.0111060608791815
468,0.0110772048333467
469,0.010963869324255
470,0.0112515484461467
471,0.0112358911385522
472,0.0113419455125393
473,0.0115083316117316
474,0.0115884384447433
475,0.0118739294138858
476,0.0115411161757891
477,0.0115948953729955
478,0.011648674570202
479,0.0117024537674084
480,0.0117080534828247
481,0.0114447568201581
482,0.0112729144200489
483,0.0112535689799727
484,0.0110269307636792
485,0.0108520600720465
486,0.0109690385822783
487,0.0110701979298003
488,0.0112088565164391
489,0.0115375700979915
490,0.0116194862355016
491,0.0117128000460174
492,0.0120398552974314
493,0.0119473090742517
494,0.0121793363144586
495,0.0120222591519612
496,0.0121156600126487
497,0.011906765874611
498,0.0120693832791843
499,0.0118032812834359
500,0.0119115377791246
501,0.0118645966882418
502,0.0120905284463039
503,0.0122292870884213
504,0.0120971103420023
505,0.0126070999882252
506,0.0125585048764549
507,0.0127070078702332
508,0.0128282494576266
509,0.0129386470141414
510,0.0128263812836619
511,0.0130510725960945
512,0.0130559820645289
513,0.0127403773514011
514,0.0127490803945215
515,0.0125660038026818
516,0.0126325983430105
517,0.0126492547414004
518,0.0127394349769156
519,0.0130354305669017
520,0.0133958655590068
521,0.0136429718474682
522,0.0138900781359297
523,0.0141371844243911
524,0.0141484813170433
525,0.0142560127282124
526,0.014382520551586
527,0.0143897464333266
528,0.0145587367020181
529,0.0148569526994347
530,0.014902302763685
531,0.0150035414791305
532,0.0150027406120068
533,0.0151835065344434
534,0.0153338619473791
535,0.0151958852506334
536,0.0153748708937656
537,0.0153733948283318
538,0.0153494761670858
539,0.0154127537608574
540,0.0156219607570647
541,0.0157053344428617
542,0.0157821786941886
543,0.0159874622948255
544,0.0161156568964082
545,0.0159569468183124
546,0.0160379651406031
547,0.0159360567560458
548,0.0158341483714885
549,0.0157322399869312
550,0.0155446579163886
551,0.0156791311276747
552,0.0157441571421689
553,0.0155850712431765
554,0.0155490222125758
555,0.015670253890661
556,0.0154746326724782
557,0.0154349549972068
558,0.015292777107156
559,0.015198388737479
560,0.0153720022555087
561,0.0150949682067142
562,0.0153521122778161
563,0.0150757008522601
564,0.0151388092360152
565,0.0149426907316916
566,0.0148426585330288
567,0.014623925921416
568,0.0147020611210887
569,0.0145069228804572
570,0.0144649161301794
571,0.0144858986844036
572,0.01443380789349
573,0.0144169772677283
574,0.0144788800296963
575,0.0142712158154367
576,0.014293500136123
577,0.0143157844568092
578,0.0143380687774954
579,0.0143603530981816
580,0.0143826374188679
581,0.0145248571138537
582,0.0143743235708602
583,0.0144048999683319
584,0.0141644582987358
585,0.0141487952941964
586,0.0137298039088315
587,0.0134847858001782
588,0.0133062549732035
589,0.0131277241462288
590,0.0129491933192541
591,0.0129670254381804
592,0.013099411909099
593,0.0130812142738178
594,0.0132490613330709
595,0.0132035367166753
596,0.0132964659359375
597,0.0133286341790689
598,0.0133593160332523
599,0.0133392141644944
600,0.0134220001052845
601,0.013462078127451
602,0.0135347395064641
603,0.0134672868271743
604,0.0135481189435568
605,0.0134301255033422
606,0.0134635885615149
607,0.0134788818069247
608,0.0134318203761883
609,0.0134667885281108
610,0.0134246268448756
611,0.0133852311062449
612,0.0131998840813418
613,0.0130300377812236
614,0.0127772230758765
615,0.0127753960817759
616,0.0125623155627109
617,0.0126480817948135
618,0.012542350700333
619,0.0125622132577937
620,0.0124573489695733
621,0.0125403984399607
622,0.0122472997387092
623,0.0121778429678934
624,0.0120815464790901
625,0.0119852499902869
626,0.0118889535014836
627,0.0118394670586416
628,0.0117938430935062
629,0.0117414592439155
630,0.0118143352175436
631,0.0116529826718755
632,0.0116414653251882
633,0.0116480687344846
634,0.0116088549917287
635,0.0115932731623675
636,0.0115052168014235
637,0.0115601269252128
638,0.011411712197303
639,0.0114078649646189
640,0.0113120313524921
641,0.0112124541311515
642,0.0110880457509353
643,0.0109621325458388
644,0.0108362193407422
645,0.0107103061356457
646,0.0106626363221126
647,0.0106275959802045
648,0.0103740372559756
649,0.0105151511984376
650,0.0103705705111874
651,0.0104276712466736
652,0.0102538371490289
653,0.0100585393668676
654,0.00982820814924148
655,0.0098398517656886
656,0.00973329946481795
657,0.00976976449407193
658,0.00984796772301034
659,0.0100548135825213
660,0.0100823206456994
661,0.0100953796606965
662,0.0100779545893684
663,0.00997799055147044
664,0.0098889755558637
665,0.00986249384112977
666,0.00980468912504421
667,0.00977280817819728
668,0.0097605604278229
669,0.00956898215128098
670,0.0095459189132653
671,0.00947582456233099
672,0.00942548659350567
673,0.00940169754173627
674,0.0094060826382878
675,0.00938006831631073
676,0.00932089692258207
677,0.00936440308211964
678,0.00921728581718742
679,0.00921720240409365
680,0.00938077873924889
681,0.00923242701398717
682,0.00901565306195816
683,0.00892735047101037
684,0.00861553799722142
685,0.00848105038093674
686,0.00833466795180822
687,0.00822683328038228
688,0.00820750376273575
689,0.00831754231734405
690,0.00856091739660556
691,0.00878498621600682
692,0.00895571420624855
693,0.00910956826781109
694,0.00939282120709898
695,0.00954763947715529
696,0.00986167568900146
697,0.010053717003534
698,0.0100994707210696
699,0.0103078158748902
700,0.0106050751821695
701,0.0107105619321701
702,0.0110696345753097
703,0.0112735752143776
704,0.0116710498225402
705,0.0118484309780798
706,0.0121640893930209
707,0.0124450450053539
708,0.0126318669211858
709,0.0129483778808996
710,0.0129657278033238
711,0.0131290845575388
712,0.0132952801309913
713,0.0129149335212339
714,0.012778429864123
715,0.0122236344926239
716,0.0118290633726141
717,0.0114878140175357
718,0.011554483348233
719,0.0117204289973825
720,0.0119141371722975
721,0.0119240703022107
722,0.0123959964679487
723,0.0123885187208391
724,0.012460721057623
725,0.0125548445730462
726,0.012608250153028
727,0.0129017293532288
728,0.0131195622506224
729,0.0134707092272085
730,0.0138537760748911
731,0.0143331951793712
732,0.0147905864138099
733,0.0153023338677739
734,0.0156621247647312
735,0.0158053391870713
736,0.0160505940716431
737,0.0161879306783556
738,0.0163252672850682
739,0.0164626038917808
740,0.0168059251545186
741,0.0169094328496675
742,0.0170214835978545
743,0.0171335343460415
744,0.0172455850942285
745,0.0173198784805427
746,0.0172426195472115
747,0.0173624049910634
748,0.0170710847552572
749,0.0172683392213111
750,0.0171367225987979
751,0.017045421970062
752,0.0172341229436143
753,0.0169682912166913
754,0.0168251721246179
755,0.0157564998443329
756,0.014687827564048
757,0.0136191552837631
758,0.011949105318387
759,0.0104718149445855
760,0.0094501579035698
761,0.00921578254383089
762,0.00948690738358141
763,0.0101447830962536
764,0.0110715822236831
765,0.0119549328969952
766,0.0130493565771598
767,0.0141133302843865
768,0.0146800413242399
769,0.0150543844872806
770,0.0153465488129309
771,0.0155898812675059
772,0.0157078046368245
773,0.0158153962622555
774,0.015675430721529
775,0.0156211462875333
776,0.015683135283514
777,0.0154063061870376
778,0.0155524293126536
779,0.0153194280616056
780,0.0154634202044632
