"wavelength","measurement"
380,0.00131051851422401
381,0.00128920964582125
382,0.00136739906450688
383,0.00132113957258223
384,0.00136370951332878
385,0.00150238740001035
386,0.00158449417881455
387,0.00168224217952664
388,0.00181348475754725
389,0.00185576458573357
390,0.00189967381944452
391,0.0019308211024117
392,0.00196228225143418
393,0.00204087968333254
394,0.00213667369269115
395,0.0022848040918789
396,0.00253395045472195
397,0.00287187320507205
398,0.00320979595542215
399,0.00354771870577225
400,0.0037304518000928
401,0.00405322585621508
402,0.00428863827785142
403,0.00430123032213757
404,0.00447396279067838
405,0.00460050223394614
406,0.00475508380218446
407,0.00487570952690073
408,0.00498132685115736
409,0.00514617750451983
410,0.00547706379807311
411,0.00554568421123753
412,0.00577615229363784
413,0.00595509494460022
414,0.00602474860093759
415,0.00613693051919716
416,0.00615476584297579
417,0.00614315306226022
418,0.00634120810639643
419,0.00621914562447109
420,0.00645574284631739
421,0.00647405658626965
422,0.00654917092467685
423,0.00667623115290108
424,0.00672984969597077
425,0.00667180219258247
426,0.00661069483419557
427,0.00648021371638564
428,0.00630351298007979
429,0.00632891419412034
430,0.00640794733642559
431,0.00666064385959961
432,0.00695623540618998
433,0.00722776299208937
434,0.00762500227965524
435,0.00780933842193952
436,0.00789703822263607
437,0.00804600345284121
438,0.00819496868304635
439,0.00834393391325149
440,0.00841565454898139
441,0.00862808014165304
442,0.0088788891519969
443,0.00900705528071442
444,0.00920447259138231
445,0.00940188990205019
446,0.00959930721271808
447,0.00982129686440318
448,0.00990959796184513
449,0.0103485489978176
450,0.010343249237378
451,0.010296402618091
452,0.0103141002884375
453,0.0103317979587841
454,0.0103494956291306
455,0.0104006335923645
456,0.0104712619771204
457,0.0105942859910307
458,0.0106673299499636
459,0.0108797383017434
460,0.0108785538093347
461,0.0107940485835749
462,0.0111707282553825
463,0.0108745885841005
464,0.0107874428907145
465,0.0107625539971564
466,0.0106062845304755
467,0.0106618767745983
468,0.0105720515409581
469,0.010519321398016
470,0.010784578759451
471,0.010779043961251
472,0.0108753181036202
473,0.0110364375477099
474,0.0111035357495692
475,0.0113358756283955
476,0.011114643258614
477,0.0111498491046896
478,0.0111850549507652
479,0.0112202607968408
480,0.0112297993260755
481,0.0109555245486109
482,0.0107930301315574
483,0.0107761595110603
484,0.0105841990271729
485,0.0104018837937384
486,0.0105262365090235
487,0.0106334363979985
488,0.0107471554170457
489,0.0110783506663985
490,0.0111940044579018
491,0.0112852962928765
492,0.0115740840813082
493,0.011477486328692
494,0.0116810455610008
495,0.0115558901989991
496,0.0116399188624876
497,0.0114668485969651
498,0.0115587467866998
499,0.011335358467039
500,0.0114516093698787
501,0.0113737687101242
502,0.0116162079101103
503,0.0117338607493048
504,0.0116654770596684
505,0.0120782978971089
506,0.0121006891784838
507,0.0121954786248223
508,0.012315996242868
509,0.0123780593811164
510,0.0122637784640689
511,0.0125167556647948
512,0.0124813978931523
513,0.0122166834819811
514,0.0122111665565282
515,0.0120841214086604
516,0.0120971658902815
517,0.0121501238906055
518,0.0121903230176266
519,0.0124872700997844
520,0.0128244013873475
521,0.0130645638617403
522,0.013304726336133
523,0.0135448888105257
524,0.0135545807949833
525,0.0136647241539331
526,0.0138201231832572
527,0.0137888793657582
528,0.0139909238687052
529,0.014221837887631
530,0.0142960138502366
531,0.0143855161245455
532,0.0144108949438111
533,0.0145905504025525
534,0.0146761728632601
535,0.0145716457743888
536,0.0147821918670735
537,0.0147813061705567
538,0.0147790925771287
539,0.0148142098315298
540,0.0150373941563795
541,0.0151177015748072
542,0.0152110991742741
543,0.0153892439830997
544,0.0155165353943778
545,0.0153795819712807
546,0.0154507271355716
547,0.0153363722896862
548,0.0152220174438008
549,0.0151076625979154
550,0.0149754752364261
551,0.0150387274420316
552,0.0151426916876621
553,0.0150027790069412
554,0.0149055568912992
555,0.0150395437855593
556,0.0148452551575588
557,0.014793582816931
558,0.014692526219946
559,0.0145694538276855
560,0.014742953420443
561,0.0144858795553099
562,0.0147359272493717
563,0.0144881368491358
564,0.0145374626512747
565,0.0143031694792259
566,0.0142483258551527
567,0.0140529173675499
568,0.0141047301383559
569,0.0139466176548045
570,0.013900649695509
571,0.0139160227766829
572,0.013886565527131
573,0.0138445321857353
574,0.0139049764562248
575,0.0137335128366753
576,0.0137514728233111
577,0.0137694328099469
578,0.0137873927965826
579,0.0138053527832184
580,0.0138233127698542
581,0.0139428393679865
582,0.0138488432503511
583,0.0138831835570428
584,0.0136340099412366
585,0.013582341498283
586,0.0131732103493039
587,0.0129781349856187
588,0.0128020051687281
589,0.0126258753518375
590,0.0124497455349469
591,0.0124973427044034
592,0.0126055789558954
593,0.0125825940153538
594,0.0127351199558885
595,0.0126801901978339
596,0.0127696062299696
597,0.0127990256149815
598,0.0128319407777937
599,0.0128264886501438
600,0.0128997727321762
601,0.0129430165359146
602,0.0130064422895221
603,0.0129234171665985
604,0.0130018698830232
605,0.0129532689844545
606,0.0129832141787138
607,0.0129887823156439
608,0.0128970193811289
609,0.0130043765770572
610,0.0129673972057985
611,0.0128902061326293
612,0.0127413178079824
613,0.0125873239691288
614,0.0122842043912391
615,0.0122887168605786
616,0.0120885360792699
617,0.0121460579806274
618,0.0120828112056861
619,0.012094528390751
620,0.0119919918588322
621,0.012056376164117
622,0.0117874859218814
623,0.0117324009042068
624,0.0116310393702596
625,0.0115296778363124
626,0.0114283163023652
627,0.0114275146638718
628,0.0113386532985673
629,0.0113129088299341
630,0.0113790057041484
631,0.0111767704475758
632,0.0111894441582802
633,0.0112109065202375
634,0.0111606008927472
635,0.0111676332379565
636,0.0110633828001201
637,0.0110912835721772
638,0.0109591458512978
639,0.0109805231313471
640,0.0108414408158855
641,0.0107838586180018
642,0.0106636577884563
643,0.0105389632437377
644,0.010414268699019
645,0.0102895741543003
646,0.0103009438993048
647,0.0102196080087225
648,0.00997338141118518
649,0.0101345614881469
650,0.00996637325609571
651,0.0100092136929858
652,0.00986217630684775
653,0.00965794559931651
654,0.00943242382590539
655,0.0094929214789041
656,0.00935723194411285
657,0.0094049415331382
658,0.0094608058800293
659,0.00967329731835532
660,0.00970283674656063
661,0.00970679271566073
662,0.00966723258374507
663,0.00956702213758721
664,0.00947839396705528
665,0.00944665262499781
666,0.00942552904550462
667,0.00938586773085866
668,0.00936552346028785
669,0.00916961284294356
670,0.00916772294227457
671,0.00909240422416511
672,0.00905585633752673
673,0.00903627131627513
674,0.0090314595071358
675,0.00899073336442844
676,0.00895256175090245
677,0.00900293661670211
678,0.00885344394812386
679,0.00883049877966465
680,0.00901760319328008
681,0.00887452716395955
682,0.00865606014124191
683,0.00852702155999838
684,0.00830844863199893
685,0.00810355499617582
686,0.00797759734941284
687,0.00789596794439886
688,0.00786095952579754
689,0.00799259298405568
690,0.00821654809065805
691,0.00846866660812346
692,0.00859729759335463
693,0.0087479757576713
694,0.00904839069718471
695,0.00917459886370952
696,0.00949631468162398
697,0.00965972030804452
698,0.00969200687805735
699,0.00989851223328016
700,0.0101961703102399
701,0.0103049147304723
702,0.0106328281509322
703,0.0107999971682826
704,0.0112034648098468
705,0.0113325640835158
706,0.0116572107700078
707,0.0119418241843599
708,0.0121365131281843
709,0.0124140925688428
710,0.0124285311694398
711,0.0125749057719321
712,0.012747336489589
713,0.0123768228268415
714,0.0122386296398356
715,0.0117018115453442
716,0.011317879140077
717,0.0110200159563481
718,0.0110077159749258
719,0.011238056873578
720,0.0114322694252983
721,0.0114110786112252
722,0.011844047957122
723,0.0118760185078407
724,0.0119117388182356
725,0.012044859186823
726,0.0120756891858081
727,0.0123432604402465
728,0.0125802751859829
729,0.0128940280573635
730,0.0132478878799618
731,0.013721544858089
732,0.014164930694166
733,0.0146198577743586
734,0.0149383068974237
735,0.0150891206797878
736,0.0153001909562685
737,0.0154463017744274
738,0.0155924125925863
739,0.0157385234107452
740,0.0160162028942437
741,0.0161328022095215
742,0.0162372594694551
743,0.0163417167293886
744,0.0164461739893222
745,0.0165212902533992
746,0.0165074643463207
747,0.0165813805202557
748,0.0162966467233019
749,0.0164134641537903
750,0.0164074803235693
751,0.0162611250429785
752,0.0164232782113052
753,0.0162082028625708
754,0.0160721607066748
755,0.0150431280110061
756,0.0140140953153375
757,0.0129850626196688
758,0.0113797992863485
759,0.00994968080958876
760,0.00898312147640735
761,0.00871865473554363
762,0.00904715221594152
763,0.00964349927775271
764,0.0105410969935014
765,0.0113263289736172
766,0.0124652548735683
767,0.0134278768519509
768,0.013987213680633
769,0.0143215778068931
770,0.0146547970048947
771,0.0147926707791433
772,0.0149591974183495
773,0.0150788601473558
774,0.0148680994973272
775,0.0148801780963636
776,0.0148993329209115
777,0.0146884461749347
778,0.0147733264840799
779,0.0145689708977468
780,0.0147258937848493
