"wavelength","measurement"
380,0.0398891538503961
381,0.0382171185442833
382,0.0383591866021442
383,0.0373927127453664
384,0.0373852633856374
385,0.0391702840346138
386,0.0408632424334472
387,0.0430848066026429
388,0.0452709503199245
389,0.0461921511687455
390,0.0466111441529911
391,0.0455754753544372
392,0.0463448572360675
393,0.046179298276152
394,0.0472095325851404
395,0.0507903126216343
396,0.0560444357015085
397,0.062456209543053
398,0.0688679833845975
399,0.0752797572261421
400,0.0794853917164242
401,0.0843131990891521
402,0.0878164419267451
403,0.0891040148896351
404,0.0903959920717451
405,0.0905053791689392
406,0.0927297103054773
407,0.0946969511880354
408,0.0957947501355083
409,0.0977877371375394
410,0.102735066869735
411,0.102957019813892
412,0.106910347515208
413,0.1086651807885
414,0.109722681186717
415,0.110578455510544
416,0.110308302967531
417,0.109033788801637
418,0.111744730161075
419,0.109252631218102
420,0.111949725285717
421,0.111374911899135
422,0.112343610953929
423,0.113339640756307
424,0.113867987248139
425,0.111494611320003
426,0.110363452870516
427,0.10736561535247
428,0.10499475876646
429,0.104241480766689
430,0.104007913876324
431,0.107751438630429
432,0.110962994402257
433,0.115240756053283
434,0.119205996980852
435,0.121855756906798
436,0.123102702167685
437,0.125105214357775
438,0.127107726547866
439,0.129110238737956
440,0.12911275586494
441,0.131877151779358
442,0.134392707481174
443,0.135392264403144
444,0.137414905893039
445,0.139437547382934
446,0.141460188872829
447,0.142974278145151
448,0.143471109514533
449,0.148515185573772
450,0.147617080524713
451,0.146426238748885
452,0.145926971294694
453,0.145427703840504
454,0.144928436386313
455,0.143670136378258
456,0.144788234740747
457,0.146064690007939
458,0.146722212241753
459,0.148266139704192
460,0.148933310246848
461,0.147238080002773
462,0.151389736732992
463,0.147239139203797
464,0.145628240169864
465,0.144906060577696
466,0.143062350967101
467,0.143194484727153
468,0.141311135576704
469,0.140814610520702
470,0.14391164601651
471,0.143450469561234
472,0.144702019034202
473,0.146577914976798
474,0.147873576348089
475,0.149140532143822
476,0.146885242319062
477,0.147160798950438
478,0.147436355581814
479,0.14771191221319
480,0.147188387603867
481,0.14397338108734
482,0.141532000622749
483,0.14055930595937
484,0.137120660800358
485,0.133479706799611
486,0.135386868452842
487,0.135897000515754
488,0.136904355336478
489,0.140926181450313
490,0.14162777319727
491,0.143292491099474
492,0.145999780238423
493,0.144541164977219
494,0.146293134476341
495,0.144839798552005
496,0.145365776909123
497,0.142846248086636
498,0.143610242438821
499,0.140096328733949
500,0.140988303902005
501,0.139512887628179
502,0.142240374131235
503,0.14281491675819
504,0.141460980773655
505,0.146211910310159
506,0.14533423034744
507,0.145778294186977
508,0.146302796804779
509,0.146694714153709
510,0.143746840926312
511,0.146254007638051
512,0.145316582932752
513,0.14103778699551
514,0.140277438395895
515,0.137730623678926
516,0.137246495257811
517,0.1367918839479
518,0.136093011020339
519,0.138908355546561
520,0.14154657403372
521,0.143311676180717
522,0.145076778327713
523,0.14684188047471
524,0.146206919988342
525,0.146710716596937
526,0.147505019359101
527,0.146419777482432
528,0.147664213955054
529,0.149739734984347
530,0.150167972204356
531,0.150334731196223
532,0.150114777186627
533,0.151297276817131
534,0.152331600930597
535,0.150384761148066
536,0.151397256780534
537,0.15043882820442
538,0.149653197428574
539,0.148768920318978
540,0.14971910441516
541,0.1487814535106
542,0.148020633905338
543,0.148583965444848
544,0.149923884957189
545,0.148770165651422
546,0.15004532715225
547,0.149855634156935
548,0.14966594116162
549,0.149476248166305
550,0.148393303583031
551,0.149512322595306
552,0.151202076679694
553,0.149639283240694
554,0.148903510581378
555,0.150262751629606
556,0.148436562779033
557,0.148049578545314
558,0.146580581322359
559,0.145402164686579
560,0.146772274758066
561,0.144737262720752
562,0.146870886757895
563,0.144591333479027
564,0.145185721873644
565,0.143398771056693
566,0.142182474551482
567,0.140554988505014
568,0.141240574371495
569,0.13947239205989
570,0.139136300824006
571,0.139679147022005
572,0.139612363242302
573,0.139546333999228
574,0.140077336175567
575,0.138495800356801
576,0.138842148112438
577,0.139188495868075
578,0.139534843623713
579,0.13988119137935
580,0.140227539134987
581,0.142049937830444
582,0.141260349136085
583,0.141956879090151
584,0.139687463230985
585,0.139287234285623
586,0.135386068651881
587,0.133152543499587
588,0.131871871347078
589,0.130591199194569
590,0.12931052704206
591,0.129727629115294
592,0.130898892411805
593,0.131438204126185
594,0.133710760125453
595,0.133483001283875
596,0.134386126313396
597,0.135081140583711
598,0.135468796748325
599,0.135542136795966
600,0.136795403502411
601,0.137535590757069
602,0.138244269958234
603,0.137918441453224
604,0.139264675420804
605,0.138028301831011
606,0.138385849064034
607,0.137695722505569
608,0.136421403712682
609,0.136178176901057
610,0.13469459236046
611,0.134417670249134
612,0.133301085306909
613,0.132844846482932
614,0.131458197143229
615,0.133227890647825
616,0.131287187322807
617,0.132349845806311
618,0.131987530317929
619,0.132356596624053
620,0.132415555342648
621,0.133082350725396
622,0.130811942065138
623,0.130716172526942
624,0.129974802130207
625,0.129233431733473
626,0.128492061336739
627,0.128345056850414
628,0.128066798707153
629,0.127799787098073
630,0.128786173829029
631,0.127231532855735
632,0.128154104996459
633,0.128856929909013
634,0.129138975438249
635,0.129639187677202
636,0.128330813157982
637,0.129357276876296
638,0.128891545530946
639,0.12917489302593
640,0.128849429446648
641,0.128170204906445
642,0.127336397082979
643,0.126461759567446
644,0.125587122051912
645,0.124712484536378
646,0.124982468790629
647,0.125047484826769
648,0.12256139352553
649,0.124672516076676
650,0.123111502078866
651,0.124289695641587
652,0.123063632815017
653,0.121234140447959
654,0.119255022898161
655,0.11997062821361
656,0.119308430041306
657,0.120734777031715
658,0.121830194151005
659,0.125071971651655
660,0.125967843097533
661,0.126665432036265
662,0.127177012571117
663,0.126599783076013
664,0.126231455103446
665,0.126431773788213
666,0.126557462591087
667,0.126712328010259
668,0.126873680057379
669,0.124901721684341
670,0.125464964840111
671,0.125368389340521
672,0.124758460523186
673,0.12496873697781
674,0.125416473994255
675,0.125348051048612
676,0.125041927390739
677,0.12620106675578
678,0.124735017838629
679,0.124958202648117
680,0.128150332625697
681,0.125751321021164
682,0.123030857460221
683,0.120862142307758
684,0.117260483909103
685,0.114137801635904
686,0.111926755352128
687,0.110021142341257
688,0.109325107043401
689,0.109880510101282
690,0.112047620093552
691,0.114321384954485
692,0.115474930006126
693,0.117291799409253
694,0.119374111084347
695,0.120231415941726
696,0.122647861243676
697,0.124288512213619
698,0.123841260687536
699,0.125460670707791
700,0.128698544592813
701,0.128740181058539
702,0.132240935036741
703,0.133845015926904
704,0.136766972971295
705,0.138871376238416
706,0.142530861228281
707,0.145633949812126
708,0.146861865484893
709,0.150401073468456
710,0.150943901103395
711,0.152696600527755
712,0.154126682191533
713,0.150283203756731
714,0.148644463880145
715,0.14247574637645
716,0.137344308500527
717,0.134378534612739
718,0.134823396035033
719,0.137098357184189
720,0.140021258745171
721,0.141362743559745
722,0.146523617519056
723,0.147493343943634
724,0.149377384683505
725,0.150922411006046
726,0.152269600088446
727,0.156988561301477
728,0.160588533319769
729,0.16631966357488
730,0.171718256980281
731,0.179074608134889
732,0.185962681626999
733,0.193786637707406
734,0.199830625832736
735,0.202902996709294
736,0.207845837000936
737,0.211012303650587
738,0.214178770300239
739,0.21734523694989
740,0.223353663721168
741,0.226266813870141
742,0.229551848966902
743,0.232836884063663
744,0.236121919160423
745,0.237545421132347
746,0.23945783474124
747,0.24228660027237
748,0.240454629771295
749,0.243299177359236
750,0.243577231049783
751,0.244741989433884
752,0.247374171686803
753,0.246777808075991
754,0.244176590096506
755,0.229474358082765
756,0.214772126069023
757,0.200069894055282
758,0.176326243826985
759,0.155011897277293
760,0.140281739981309
761,0.137765921635257
762,0.142207926120898
763,0.152775904743643
764,0.167148912847711
765,0.182348826101702
766,0.200225946454466
767,0.217766739748185
768,0.227472466039762
769,0.23549437981602
770,0.242008698171103
771,0.244554211821382
772,0.248320738578944
773,0.251214929449168
774,0.250337154154827
775,0.250813370950751
776,0.252118236987512
777,0.249013522304533
778,0.2523762859254
779,0.249793498755506
780,0.253788220720774
