"wavelength","measurement"
380,0.0143717000209114
381,0.0137387168065256
382,0.0132540383749098
383,0.012938083089466
384,0.012828097691289
385,0.0134165307643268
386,0.0139126321084518
387,0.014378715093978
388,0.0148112067227476
389,0.0150889351500637
390,0.0149807709721066
391,0.0146913076356962
392,0.0145818342737914
393,0.0146574750311239
394,0.0146718812718865
395,0.0151067758440233
396,0.0166714984172092
397,0.0182222240271292
398,0.0197729496370492
399,0.0213236752469692
400,0.0222306768440973
401,0.0231491679340571
402,0.0238187786969207
403,0.023834688481548
404,0.023522712392903
405,0.0232959313157063
406,0.0235218130615523
407,0.0234342420324878
408,0.0232414742642124
409,0.0235128920460306
410,0.0242655452630775
411,0.0241044793138644
412,0.0244857940234522
413,0.0248853063028277
414,0.0247054410039743
415,0.0247923616279883
416,0.0244675178221551
417,0.0241216991346233
418,0.0243770981483965
419,0.0237311245009727
420,0.0242564089852177
421,0.0239102886031208
422,0.0239592270441578
423,0.0240726412636529
424,0.0241158685809742
425,0.0235044724673064
426,0.0231582585203247
427,0.0224394474067307
428,0.0216847924926835
429,0.0215421201169256
430,0.0214761597431163
431,0.0221997066088497
432,0.0229200189050598
433,0.0234718847157442
434,0.0244238931991473
435,0.024909912852642
436,0.0249931313652173
437,0.0253094129552848
438,0.0256256945453522
439,0.0259419761354197
440,0.025997509605356
441,0.0263990858627726
442,0.0268040100886569
443,0.0270081829202082
444,0.0273106705610166
445,0.027613158201825
446,0.0279156458426334
447,0.0282787973628361
448,0.0282850361126792
449,0.0292943311735328
450,0.0290825689515193
451,0.0288175618589982
452,0.0286658474126259
453,0.0285141329662535
454,0.0283624185198812
455,0.0282557401476315
456,0.0282195660554967
457,0.0284200187898747
458,0.0286079062868231
459,0.0288136496535566
460,0.028816556462161
461,0.028499979115692
462,0.02911784576828
463,0.0283539054228841
464,0.0280057960021067
465,0.0276026877557423
466,0.0272503939427981
467,0.0270635096563941
468,0.0267907993248862
469,0.0264204181270871
470,0.0270089615182619
471,0.0268588324360946
472,0.0269247119030686
473,0.0272274593789845
474,0.0272375781173281
475,0.0276074517734787
476,0.026879201977554
477,0.0268323479794581
478,0.0267854939813622
479,0.0267386399832663
480,0.0266313601604907
481,0.0259480821785902
482,0.0254447797356531
483,0.025279496479245
484,0.02451063656777
485,0.0239228280667797
486,0.0240506270355538
487,0.0242196880618449
488,0.0243317174977086
489,0.0249376270499363
490,0.0251489916230134
491,0.0252591661283948
492,0.0257858528414475
493,0.0254776728276273
494,0.0258083963560566
495,0.0254013542741273
496,0.0255364191559279
497,0.0250611773752986
498,0.0251353636203276
499,0.0246000660157108
500,0.0246708565158351
501,0.0243961037900864
502,0.024799269512012
503,0.0248279520600263
504,0.0245933302193102
505,0.0253996990572641
506,0.0252667264499954
507,0.0254036514757748
508,0.0254838182330482
509,0.0255113769527619
510,0.0250750429598986
511,0.0254923639147011
512,0.0252982503506169
513,0.0246690724422589
514,0.0245267484106255
515,0.0240983457743809
516,0.0240178747548957
517,0.0239569744413621
518,0.0239686043374932
519,0.0244855724029855
520,0.0249849449592892
521,0.0253238548867607
522,0.0256627648142323
523,0.0260016747417038
524,0.0259200398803054
525,0.0259731120257045
526,0.0261992538512599
527,0.0259623629042389
528,0.0262242950962142
529,0.0266355077714785
530,0.0265999014166372
531,0.0267083600898757
532,0.0266474115711126
533,0.0269679650485621
534,0.0269945768715622
535,0.0267347096225188
536,0.0270236444843931
537,0.0268877813191278
538,0.0266219921933728
539,0.0264271325308332
540,0.0265782865348254
541,0.0263069168075805
542,0.0262148047087739
543,0.02628880806886
544,0.0264755273672101
545,0.0261898613156242
546,0.026394240120249
547,0.0263642636602702
548,0.0263342872002914
549,0.0263043107403126
550,0.0260777675180281
551,0.026288995188562
552,0.0264468787120192
553,0.0262129458570612
554,0.0260481268596183
555,0.0262943108118595
556,0.0259199140994301
557,0.0257307688702078
558,0.0255610090585097
559,0.0252821334386291
560,0.0254617361036233
561,0.025001104743963
562,0.0253918742162598
563,0.0249037173789226
564,0.0249554648391811
565,0.0245522876748711
566,0.0243242640514428
567,0.0239829824238593
568,0.0240017435727743
569,0.0236057399535256
570,0.0234727598571505
571,0.0234806372167889
572,0.0234091225870259
573,0.0232396014245745
574,0.0233213451959348
575,0.0229257895952912
576,0.0229198732316454
577,0.0229139568679996
578,0.0229080405043539
579,0.0229021241407081
580,0.0228962077770623
581,0.023111964338699
582,0.0229496871906018
583,0.022964702459119
584,0.0225880969474768
585,0.0225028362447611
586,0.0217832164011145
587,0.0214383799747521
588,0.0211622612341115
589,0.0208861424934709
590,0.0206100237528303
591,0.0205783355220318
592,0.0207550285437554
593,0.020701297126234
594,0.0210067313477928
595,0.0209352165872609
596,0.0210209355412776
597,0.021096567007577
598,0.0210096040987851
599,0.021039568811102
600,0.0211264943862803
601,0.0212474540735268
602,0.0213208849087697
603,0.0211362935872238
604,0.0213108313055493
605,0.0211537781214702
606,0.021175658181722
607,0.0210334334253567
608,0.0206863164860458
609,0.0206625215411978
610,0.020438515519935
611,0.0202596933479311
612,0.0200982424750102
613,0.0199214981937849
614,0.0195939174129603
615,0.0198562036073533
616,0.01954792461296
617,0.0196827281331917
618,0.0196559684222349
619,0.0196670769308257
620,0.0195752613932657
621,0.019629388246031
622,0.0191604160674919
623,0.0191441343012222
624,0.0189889295899153
625,0.0188337248786083
626,0.0186785201673014
627,0.0186149987055124
628,0.0185328558601602
629,0.0184959847033887
630,0.0185941217871126
631,0.0183725376258168
632,0.0184634576747023
633,0.0185298725839749
634,0.0186220617391524
635,0.0185739875686098
636,0.0184700079889992
637,0.0185532011403404
638,0.018391991432734
639,0.0184566702422436
640,0.0182789383380283
641,0.0182337620592947
642,0.0180457401470375
643,0.017871829687415
644,0.0176979192277926
645,0.0175240087681701
646,0.0175330252402564
647,0.0174541349527745
648,0.017150365189371
649,0.0173570895876356
650,0.0171456475349459
651,0.0173524523924659
652,0.0170149664960293
653,0.0167048541639335
654,0.016436950133698
655,0.0165905855573884
656,0.0163132161813326
657,0.0165238955842163
658,0.0166060001024042
659,0.0170515679887636
660,0.0171440444756313
661,0.0171533196325571
662,0.0171918672241607
663,0.0170137640965082
664,0.0169099086889472
665,0.0169448254632877
666,0.0168373585424316
667,0.0168648368532042
668,0.0168369777646119
669,0.016593757513988
670,0.0165597793344718
671,0.0165336894657003
672,0.0164167020359546
673,0.0163939317224262
674,0.0164655606840051
675,0.0164387751697788
676,0.0164317192057824
677,0.0165375773131346
678,0.0164128081613564
679,0.0163456475032855
680,0.0167587587229137
681,0.0164207406287166
682,0.0160861980595024
683,0.0158405604227294
684,0.015308715784402
685,0.0148920862683968
686,0.0145578109638477
687,0.0143311600862438
688,0.0142719830965783
689,0.0144665847817983
690,0.0149025511992172
691,0.0153975658134102
692,0.0156765500434068
693,0.016112979501112
694,0.0166130444952435
695,0.016898254512019
696,0.0174887620631996
697,0.0178955072395299
698,0.018065983022328
699,0.0184970761451244
700,0.0192266398656571
701,0.0194275697996148
702,0.0201639639298016
703,0.0206854650212529
704,0.0214685926839367
705,0.0219158239672952
706,0.0227058374707282
707,0.0234648248442451
708,0.024036869961697
709,0.0247771396934812
710,0.0250808614051952
711,0.0257097368956576
712,0.026261977205195
713,0.0258481324402235
714,0.0258806959208821
715,0.0251620642322038
716,0.0247008297822905
717,0.0245103378287395
718,0.024827867328282
719,0.0257623202039489
720,0.0266362904892793
721,0.0270788333650546
722,0.028533442375176
723,0.0291308267680092
724,0.0295563083507208
725,0.0304735636903019
726,0.030946853351815
727,0.0322992684056331
728,0.0333046517620634
729,0.03493830922571
730,0.0363198405517586
731,0.0382829403949459
732,0.0399756301363436
733,0.0419705562491957
734,0.0436730619005856
735,0.0444864662573661
736,0.0459974575205466
737,0.047031546153296
738,0.0480656347860454
739,0.0490997234187948
740,0.0506574371349254
741,0.0516438845512404
742,0.0526038215846178
743,0.0535637586179953
744,0.0545236956513728
745,0.0552709246459926
746,0.0557505174369463
747,0.0566383114380333
748,0.0563310925005282
749,0.057108747101891
750,0.0578136767915228
751,0.0576250746477425
752,0.0589763401801847
753,0.0587963616250841
754,0.0583351191876059
755,0.0547045692658318
756,0.0510740193440577
757,0.0474434694222836
758,0.0413258344390511
759,0.0358964172427579
760,0.0319129359101114
761,0.0311476500099501
762,0.0324219079136845
763,0.0349371457548133
764,0.0389472194078643
765,0.0428065120949683
766,0.047487904718727
767,0.0519361193693671
768,0.0546119757052072
769,0.0567607262855703
770,0.0585188263071975
771,0.0592017742640467
772,0.0600111128493719
773,0.0609903146807813
774,0.0606121192192251
775,0.0608981831461667
776,0.0612294030327911
777,0.0605235268188942
778,0.0614114789860681
779,0.0609380513122375
780,0.0616172660727088
