"wavelength","measurement"
380,0.00111122559669798
381,0.00118182829888316
382,0.00117143316263009
383,0.00115156426406865
384,0.00117047939709136
385,0.00126248129227346
386,0.00134469239530984
387,0.00141691882941551
388,0.00152043076747268
389,0.00162798382710759
390,0.00160353691338245
391,0.00164556044692204
392,0.00169794904992591
393,0.001733003136094
394,0.00183362961798064
395,0.00189195251247201
396,0.00212148031692082
397,0.00239424080580511
398,0.0026670012946894
399,0.00293976178357369
400,0.00312316860592877
401,0.00335928905296203
402,0.00356218499678994
403,0.00358648478627444
404,0.00373243323725691
405,0.00376674048475565
406,0.00389544935633652
407,0.00397898886422429
408,0.00407657587635066
409,0.00418848491600644
410,0.00442398830455336
411,0.00448114185446122
412,0.00466984108816235
413,0.0048145467142626
414,0.00488586348424909
415,0.00497947916987723
416,0.00495356758435767
417,0.00498570959895067
418,0.00504415287854043
419,0.00499246014213201
420,0.00513127471286845
421,0.00514325702455569
422,0.00521035823238457
423,0.0053039676670013
424,0.00533045277471544
425,0.0052866686358626
426,0.00523321211943623
427,0.00513396823125693
428,0.00494071212658173
429,0.00497470665168418
430,0.00499272092971054
431,0.00519693895365993
432,0.00537031303974367
433,0.00556943292274753
434,0.00582251854325495
435,0.00596503391640275
436,0.00605734072482286
437,0.0061717332659617
438,0.00628612580710055
439,0.0064005183482394
440,0.00643953746295753
441,0.00658020728430211
442,0.00675178114295118
443,0.0068456560264122
444,0.00698564198120533
445,0.00712562793599847
446,0.00726561389079161
447,0.00740174864528411
448,0.00749076889036328
449,0.00778117371456529
450,0.00775495044833285
451,0.0077223492691961
452,0.00771719927363377
453,0.00771204927807143
454,0.00770689928250909
455,0.00773990653681948
456,0.00769411390730554
457,0.00788394041521197
458,0.00789216167906381
459,0.00804598176180684
460,0.00804727678575947
461,0.00802002891080634
462,0.0082337217985257
463,0.00803157107689538
464,0.00799193752923849
465,0.00792670455912753
466,0.00784504336312839
467,0.00782008170413503
468,0.00773111778292049
469,0.00768177129407688
470,0.0078774352185142
471,0.00786072989257541
472,0.00793064456902798
473,0.00802668953232612
474,0.00807659116074963
475,0.00820448194401855
476,0.00806055763276407
477,0.0080593329646638
478,0.00805810829656353
479,0.00805688362846326
480,0.00806673419407402
481,0.00788526300302488
482,0.0077456170723187
483,0.00773114630399387
484,0.00758374183970292
485,0.00741376866762198
486,0.00745914625388301
487,0.00754073239708892
488,0.0075875811066799
489,0.007806075394789
490,0.0079193257902726
491,0.00796845160521381
492,0.00818667770086421
493,0.00811626537663328
494,0.00826305019792094
495,0.00811797882625119
496,0.00818375463010669
497,0.00805833828684104
498,0.00812462559366441
499,0.00792870665859367
500,0.00801503623900207
501,0.00793137286652088
502,0.00806495107486956
503,0.00808657715713758
504,0.00805252613226762
505,0.00833462602519002
506,0.00828484781049543
507,0.00832424136054774
508,0.00838923377875568
509,0.00837318973296251
510,0.00824371140879875
511,0.00840158684238656
512,0.00832828305206168
513,0.00809561545422256
514,0.00805901405886342
515,0.00791025791242142
516,0.00787235492335083
517,0.00783429889824488
518,0.00780185526385497
519,0.00791693329575159
520,0.00808485466357968
521,0.00818442166097808
522,0.00828398865837647
523,0.00838355565577487
524,0.00831827405947221
525,0.00835965856666035
526,0.00835850645931497
527,0.00832385369232504
528,0.0083497918037552
529,0.00843972127638407
530,0.00846806040062602
531,0.00848341306544012
532,0.00846017500966968
533,0.00852955330932842
534,0.00855083240359416
535,0.00846537346150235
536,0.0085532841990658
537,0.00850646931630257
538,0.0084443468099208
539,0.0083901763275538
540,0.00844573538619485
541,0.00838218852421745
542,0.00833522000424737
543,0.00838030670254618
544,0.00843124238083714
545,0.00833952881744463
546,0.0084263233159269
547,0.00840029585325494
548,0.00837426839058299
549,0.00834824092791103
550,0.00828356569253272
551,0.00835431888521551
552,0.00838560264201218
553,0.00832457195259547
554,0.00829264016404832
555,0.00836121295311868
556,0.00827999925952855
557,0.00823955695224523
558,0.00818157863201034
559,0.00810224686836343
560,0.0082112773676294
561,0.00807445585532899
562,0.00821660873846812
563,0.00808393855798541
564,0.00811652956500576
565,0.00799245159868594
566,0.00796595167255602
567,0.00786183598962127
568,0.00791867384178788
569,0.00780621695676515
570,0.00780694021603037
571,0.00781022520242315
572,0.00780298457434246
573,0.007797672206513
574,0.00784851997875882
575,0.00776451265328216
576,0.00778904625582237
577,0.00781357985836258
578,0.00783811346090279
579,0.007862647063443
580,0.0078871806659832
581,0.00796937402284997
582,0.00795659237789958
583,0.00798862333174406
584,0.00787222220457626
585,0.00786848812006317
586,0.00765006566966442
587,0.00753235605791736
588,0.00743808725514374
589,0.00734381845237012
590,0.0072495496495965
591,0.00727379656606848
592,0.00732961193522068
593,0.00732698631080571
594,0.00742253929058465
595,0.00738528375821652
596,0.00744449864648726
597,0.00747949825871008
598,0.00747761936028819
599,0.00746424358598778
600,0.00754039449625109
601,0.00755768382825148
602,0.00761131698775672
603,0.00754589817718729
604,0.00762122779458957
605,0.00756317752713095
606,0.00757315101609419
607,0.00753663026701087
608,0.00743899415544954
609,0.00745025362850461
610,0.00738329358826531
611,0.0073381633771566
612,0.00727806681316134
613,0.00723844172156398
614,0.00709783371052308
615,0.00716206668490489
616,0.00709273817839705
617,0.00715364553246033
618,0.00713743514891199
619,0.00712890885406469
620,0.00708913835041443
621,0.00713904154065899
622,0.00699004976442282
623,0.00697495065772123
624,0.00689518414342959
625,0.00681541762913795
626,0.00673565111484632
627,0.00671031532113616
628,0.00667355183397909
629,0.00666986185452303
630,0.00672136421927095
631,0.00660160308600249
632,0.00664603915488625
633,0.00669382620721699
634,0.00669796770789353
635,0.00671664513894968
636,0.00667433819269154
637,0.00671604423179735
638,0.00663081799701793
639,0.00669021165856357
640,0.00664177027359616
641,0.0066208071490429
642,0.00658982888507531
643,0.0065315650729374
644,0.00647330126079949
645,0.00641503744866157
646,0.00640676637193033
647,0.00639947886609642
648,0.00627005990382322
649,0.00638442207930608
650,0.00626793830822824
651,0.00633255620602172
652,0.00625663486815221
653,0.00613227674032953
654,0.00601307940661196
655,0.00604851297125845
656,0.00598574667892672
657,0.00600899457233638
658,0.00605607386581591
659,0.00621232892321005
660,0.00627561378397634
661,0.00627425369334276
662,0.00630283849841505
663,0.00624547952757982
664,0.00620789326745074
665,0.00622709912816336
666,0.00619252202938067
667,0.0062331677332615
668,0.00622988628765196
669,0.00610475092102651
670,0.00610626393457206
671,0.00604648475811423
672,0.00605205004213137
673,0.00603310230150832
674,0.00605367020192117
675,0.00601945452158365
676,0.00599633430124586
677,0.00603422701310365
678,0.00595973897884412
679,0.00591551127266409
680,0.00605725973170709
681,0.0059264562768337
682,0.00578689911216058
683,0.00566875554264565
684,0.00543050977865423
685,0.00522918050910289
686,0.00506044738645363
687,0.00492118431099804
688,0.00480845201400086
689,0.00481941272527625
690,0.00492688519714203
691,0.0050256287211136
692,0.0050857656201942
693,0.00510434904132785
694,0.00522842445717958
695,0.00521152440422789
696,0.0052855541912227
697,0.00530198043496514
698,0.00521909269248799
699,0.00523687367555299
700,0.00530136321964232
701,0.00525271640156693
702,0.00530194511512406
703,0.00532021887459274
704,0.00542814615425917
705,0.00538397640156342
706,0.00546771174098604
707,0.00551842450017753
708,0.00550586017689882
709,0.00555238006708676
710,0.00548247135896438
711,0.00551636648630518
712,0.00548723992028197
713,0.00529763870538158
714,0.00515583802892978
715,0.00492203540031442
716,0.00468428342029563
717,0.00450707161572554
718,0.0044348267930883
719,0.00442136943763187
720,0.00441353971554614
721,0.00438737705455711
722,0.00450008251264299
723,0.00449309491755521
724,0.00445766324397036
725,0.0044385906533724
726,0.0044183651360434
727,0.00445635928954848
728,0.00449124166844975
729,0.00454807470562024
730,0.00465349638646158
731,0.00479488790190695
732,0.00489200197097639
733,0.00501786446512013
734,0.00511891230809128
735,0.00512163657585036
736,0.00520061159242096
737,0.00521894967166791
738,0.00523728775091486
739,0.00525562583016181
740,0.00532295734160635
741,0.005340121908853
742,0.005353188011958
743,0.005366254115063
744,0.005379320218168
745,0.00538565109140047
746,0.0053599582794305
747,0.0053712928860295
748,0.00529689278189091
749,0.00531426976471535
750,0.00526416883829099
751,0.00520357685878379
752,0.005287572205977
753,0.00512449702876643
754,0.00511295329756103
755,0.00477865236831141
756,0.0044443514390618
757,0.00411005050981218
758,0.00353263343605456
759,0.00300759832402193
760,0.00260514412226921
761,0.0024499325104325
762,0.00249524263243967
763,0.00267430653968736
764,0.00296928301639292
765,0.00326538611773219
766,0.00366098598568402
767,0.0040757679971297
768,0.0042656279954995
769,0.00448097215333251
770,0.00456479934145459
771,0.00463592679357199
772,0.00469531828285325
773,0.00477692491752811
774,0.00473321233225469
775,0.00468932297699243
776,0.00472902131324785
777,0.00466683296435402
778,0.00467612996826135
779,0.00462403482916063
780,0.00467149642495539
