"wavelength","measurement"
380,0.000725911229206436
381,0.000770217588620802
382,0.000796658691039089
383,0.000774201446118645
384,0.000791325178032276
385,0.000837207033309232
386,0.00089006409404456
387,0.000946146133308165
388,0.00102020350402897
389,0.00106697234214268
390,0.00109166419145514
391,0.0010934274626185
392,0.00109722959354616
393,0.00112296418394102
394,0.00124345551389121
395,0.00127551869394467
396,0.00142353068750596
397,0.00161398355557254
398,0.00180443642363911
399,0.00199488929170569
400,0.00211280373054957
401,0.00227935185420212
402,0.00240544707863187
403,0.00250063632598669
404,0.00254870085013616
405,0.00257637022263834
406,0.00267098467685575
407,0.00274030051667165
408,0.00284315184350188
409,0.00291159472575334
410,0.00309233533038613
411,0.00312705504075878
412,0.00325384117703802
413,0.00339139946869144
414,0.00342390693381658
415,0.00348860898523126
416,0.00351566109327047
417,0.00348921538066213
418,0.00356932522626168
419,0.00348977041813398
420,0.00361459959249068
421,0.00363346427566886
422,0.00364804033479575
423,0.00374729230509987
424,0.0037352729217248
425,0.00369866546342947
426,0.00365648263303909
427,0.00361716560590848
428,0.00345456571034908
429,0.00349234870301474
430,0.00350261752518099
431,0.00362559271088763
432,0.00376910894302242
433,0.00389092551684451
434,0.00408673096776246
435,0.0042087297280592
436,0.0042281055791681
437,0.00431592884278144
438,0.00440375210639479
439,0.00449157537000813
440,0.00450045206065923
441,0.00461082503227038
442,0.00472847241543403
443,0.00480712744145072
444,0.00489887428461865
445,0.00499062112778659
446,0.00508236797095452
447,0.00519070046575404
448,0.00524448561843279
449,0.00543722957025265
450,0.00542203235989886
451,0.00538578227359625
452,0.00539421368883386
453,0.00540264510407146
454,0.00541107651930907
455,0.00540400114157375
456,0.00538480140972139
457,0.00553675397922303
458,0.00554832518865065
459,0.00565836906428491
460,0.00566426813776769
461,0.00562723164980029
462,0.00580196009468745
463,0.00563269609700232
464,0.0056186351506332
465,0.00557370855773119
466,0.00550831139504981
467,0.0054972528459688
468,0.00547798567889988
469,0.00540526694560785
470,0.00554572179759655
471,0.00553351356729078
472,0.00559099594536367
473,0.00563632700091637
474,0.00568044881827915
475,0.00576628613549485
476,0.00565917422728918
477,0.00565505410057486
478,0.00565093397386055
479,0.00564681384714623
480,0.00569033303098299
481,0.00552643404095261
482,0.00544886881114716
483,0.00543323180317777
484,0.00531019735339302
485,0.00521080669462663
486,0.00525053277397932
487,0.00528767199656707
488,0.00534633904509721
489,0.00549701408642891
490,0.00558512695970094
491,0.00560428230234693
492,0.00576462383135428
493,0.00569698679073405
494,0.00580260616515151
495,0.00572534386860405
496,0.00576951716525953
497,0.00567625581409877
498,0.00571587944111255
499,0.00557437908839683
500,0.00562175039386303
501,0.0055713504496789
502,0.00567128570399371
503,0.00568462860519226
504,0.00565597899371207
505,0.00585835737973882
506,0.00583638362418035
507,0.00586398117684497
508,0.0058937174286615
509,0.00590296140142288
510,0.00578537528484679
511,0.00591252177046718
512,0.00586885891218325
513,0.00569504318937885
514,0.00566096568462549
515,0.00558343178700656
516,0.00552518912246239
517,0.00554103362564738
518,0.0055121052615985
519,0.00558373295337359
520,0.00572753905337528
521,0.00579561584877206
522,0.00586369264416884
523,0.00593176943956562
524,0.00588605987911554
525,0.0059179991530549
526,0.00593151289656957
527,0.00588370322250997
528,0.00592838642415483
529,0.00598815166929888
530,0.00600999588151705
531,0.00601615617471532
532,0.0059831590580603
533,0.00607193737270818
534,0.00606644726669978
535,0.00601406636011855
536,0.00606712579204768
537,0.00602982386236407
538,0.00598885390752447
539,0.00595662512678384
540,0.00599837055556884
541,0.00593868853932861
542,0.00593340584595823
543,0.00591610042153761
544,0.00597438523958157
545,0.00591268159387527
546,0.00597327519744456
547,0.00596421457831317
548,0.00595515395918179
549,0.0059460933400504
550,0.00589970667525941
551,0.00595056735919351
552,0.00594139194628807
553,0.00592889494440062
554,0.00588224579999409
555,0.00594584651874817
556,0.00587839619024662
557,0.00585856273447652
558,0.00582132175703561
559,0.00576932927591318
560,0.00584631559700262
561,0.0057184286107665
562,0.00582460611217806
563,0.00574812933701439
564,0.00575651386177167
565,0.00567172802181719
566,0.00565371613717827
567,0.00558073416894554
568,0.00560493872715366
569,0.00553061303441378
570,0.00551649591519606
571,0.00552317146882993
572,0.00552918798888661
573,0.0055103422554701
574,0.00555062941070045
575,0.00548420287367493
576,0.00550115607000017
577,0.00551810926632541
578,0.00553506246265066
579,0.0055520156589759
580,0.00556896885530114
581,0.0056263065555432
582,0.00560119198769997
583,0.00562529919917082
584,0.00554131241058474
585,0.00552551749194272
586,0.00537916074919288
587,0.00528736127940621
588,0.00521633099592628
589,0.00514530071244636
590,0.00507427042896643
591,0.00510593052661091
592,0.00514715621041668
593,0.00515509723648658
594,0.00520898218222251
595,0.00519712400303522
596,0.00523116224771662
597,0.00524893068471249
598,0.00526476757792903
599,0.00525580363317
600,0.00529621850976768
601,0.00531057992182662
602,0.00534418591959391
603,0.00530182076271633
604,0.00534521058428868
605,0.00533899320885533
606,0.00530537360163166
607,0.00529500054397276
608,0.00521905988888601
609,0.00521777260486056
610,0.00517207144374168
611,0.00513499436935435
612,0.00507884013751475
613,0.00506786279902806
614,0.00497246417351834
615,0.00500870200777262
616,0.00496004706011227
617,0.00501465835652703
618,0.00499547890617383
619,0.00499972293631103
620,0.00496333640279575
621,0.00499359250035504
622,0.00490189232061709
623,0.00489642628078732
624,0.00483385905127708
625,0.00477129182176683
626,0.00470872459225659
627,0.00470622641740461
628,0.00467580537947461
629,0.00465238885152744
630,0.0047076480597932
631,0.00462080927427715
632,0.00464426583889042
633,0.00468111361207468
634,0.00468425376762054
635,0.00470757404460885
636,0.00468889905876102
637,0.00470406832359189
638,0.00464725007174428
639,0.00468069719846867
640,0.00465032490959421
641,0.00463195731809935
642,0.00460784380981722
643,0.00456329685146025
644,0.00451874989310328
645,0.00447420293474631
646,0.00446802545619524
647,0.00446593488577976
648,0.00436116658077692
649,0.00446372010711856
650,0.00436928191550296
651,0.0044175344216595
652,0.00436930368312721
653,0.00426553347562103
654,0.00419464086525705
655,0.00422129240820182
656,0.00417604928136191
657,0.00419059768522352
658,0.00424047495374453
659,0.00433998977974481
660,0.00437292616538699
661,0.00438531552489572
662,0.00437441216520991
663,0.00435074502920925
664,0.00429999788035823
665,0.00433955023946097
666,0.00432178664716413
667,0.00433821766089239
668,0.00430791446731241
669,0.0042142422310318
670,0.00423758838903925
671,0.00420495950551706
672,0.00419056558062979
673,0.00419342113690163
674,0.00419353564709006
675,0.00418096955446259
676,0.00416433625555979
677,0.00420422340252823
678,0.00410844675978475
679,0.00409730071850731
680,0.00418651254467715
681,0.00411008280407724
682,0.00402292274469368
683,0.0039230679178322
684,0.00375523100612596
685,0.0036160918595489
686,0.00350919371940425
687,0.00340569173895151
688,0.00335445488114448
689,0.00337499985165864
690,0.00343943692995128
691,0.00352689900550574
692,0.00356237676312843
693,0.0035780234032201
694,0.00366953014924198
695,0.00367795044623266
696,0.00374037280616631
697,0.00374067898825516
698,0.00370557020629075
699,0.00372026285191075
700,0.0037773109553139
701,0.0037574376577999
702,0.00380724096791069
703,0.00380385406538869
704,0.00391424756021457
705,0.00388983066314139
706,0.00393959784156662
707,0.00398932844102181
708,0.00397803397353997
709,0.00401225128992205
710,0.00396370058678993
711,0.00399575073163382
712,0.00397834968279553
713,0.00384912374708796
714,0.00375047711091403
715,0.00357579649345163
716,0.00341498832946191
717,0.00329302084902733
718,0.00324537086063138
719,0.00322761587068414
720,0.00325623105020063
721,0.00321559442587231
722,0.00334228952050948
723,0.00331867247005049
724,0.00330325243027473
725,0.00329495241928684
726,0.00327664228910572
727,0.00332509200512593
728,0.00337302038586793
729,0.00339813645738808
730,0.00349996287679936
731,0.00359866255060334
732,0.00367198494622676
733,0.00378553674542293
734,0.00385433139365915
735,0.00387998448773902
736,0.00391711624548387
737,0.00393756651375963
738,0.00395801678203539
739,0.00397846705031115
740,0.00403665712786375
741,0.00405514413502443
742,0.00406438604345441
743,0.00407362795188439
744,0.00408286986031437
745,0.00409765002701737
746,0.00409586140857944
747,0.00410106462401848
748,0.00403694144101685
749,0.00406400174161543
750,0.00402107786231065
751,0.00400061405352701
752,0.00405856616171453
753,0.00389919237353248
754,0.00391731834264667
755,0.00364599417455066
756,0.00337467000645464
757,0.00310334583835863
758,0.00266843883668429
759,0.00223697494411821
760,0.00197347519351735
761,0.00186658341011596
762,0.00192471941183337
763,0.00204585188481425
764,0.00228577365834843
765,0.00257254964835017
766,0.00287280239977072
767,0.00314653524348225
768,0.00331895201329151
769,0.00344856254706942
770,0.00353518803682968
771,0.00358373672740822
772,0.00363869717052076
773,0.00366978437337382
774,0.00365954509395103
775,0.00362530333738893
776,0.00364190286966495
777,0.00356521029943239
778,0.00362211680856878
779,0.00358566217733882
780,0.00359440932795009
