"wavelength","measurement"
380,0.000796724030739377
381,0.000847577399324537
382,0.000842312584420717
383,0.000850575920994001
384,0.000866136800802062
385,0.00092084014878699
386,0.000986055510445383
387,0.00104241125410576
388,0.00110402273849653
389,0.00117880138975833
390,0.0011870841130755
391,0.00119114540635417
392,0.00121524545534646
393,0.0012713229151675
394,0.00132771267539361
395,0.00140970829595904
396,0.00157308714917272
397,0.00177142124410956
398,0.00196975533904639
399,0.00216808943398323
400,0.00231512602064369
401,0.00254495186378604
402,0.00266051768007196
403,0.00272768835573798
404,0.00280405391451371
405,0.00282099626429759
406,0.00294041928503845
407,0.00299643856525914
408,0.00309516133496846
409,0.00318929301708339
410,0.00338732736032184
411,0.00345842347984312
412,0.00357705322509855
413,0.00373437023715496
414,0.00373645983784921
415,0.00382575806117544
416,0.00378726781954596
417,0.00381897443789345
418,0.00387024678824907
419,0.0038539505403034
420,0.00395715925695025
421,0.00395798572556354
422,0.00402140871356481
423,0.0040839706094816
424,0.00411071871686536
425,0.00405740653182622
426,0.00402200719120545
427,0.0039470013003709
428,0.00381516030492078
429,0.00384109408684137
430,0.0038502877981371
431,0.0039984175127247
432,0.00415434240739156
433,0.00428048351068265
434,0.00450584356236408
435,0.00462378164423031
436,0.00464611788209469
437,0.00474302083289697
438,0.00483992378369924
439,0.00493682673450151
440,0.00497417087205211
441,0.00507574588953341
442,0.00521380505179075
443,0.00528884717977005
444,0.00538985617972476
445,0.00549086517967947
446,0.00559187417963418
447,0.00570281234029097
448,0.00576615962977536
449,0.00601769090675157
450,0.00597588962903151
451,0.00593789878276543
452,0.00594600029297013
453,0.00595410180317482
454,0.00596220331337952
455,0.00593511904942255
456,0.00593251675219047
457,0.00610139082231816
458,0.00612158043579135
459,0.0062192441141508
460,0.00624977932038706
461,0.00620249260276054
462,0.00639973049723825
463,0.00621178453224703
464,0.00617143865783827
465,0.00614673170354342
466,0.00608657214819868
467,0.00606435740790523
468,0.00602091009960786
469,0.00597238245572016
470,0.006106465469352
471,0.0061136530274191
472,0.00616525514023173
473,0.00624385879707367
474,0.00625513170755341
475,0.00638409169988939
476,0.00621790343468438
477,0.00622952313548045
478,0.00624114283627652
479,0.00625276253707259
480,0.00626936672534834
481,0.0061055837859822
482,0.0060179987856197
483,0.00603231598683308
484,0.00586128473403034
485,0.00576605876136524
486,0.00581659725920802
487,0.00586189287281958
488,0.00589880808552943
489,0.00608231451666277
490,0.00613494435193723
491,0.00620913836432138
492,0.0063772749945488
493,0.00631901835101476
494,0.00642969140341423
495,0.00634853155625672
496,0.00637372509522242
497,0.00628173373246268
498,0.00632876708490588
499,0.00617394225474649
500,0.006248813735774
501,0.00619648472300141
502,0.00629855870347261
503,0.00632788210958111
504,0.00627349990553397
505,0.00649921980251746
506,0.00646141498464968
507,0.00650593622757553
508,0.00654733447632974
509,0.00653877014621952
510,0.00643274092409274
511,0.00654593943365362
512,0.00649701050277578
513,0.00633622310925774
514,0.00629427605568839
515,0.00619640263693651
516,0.00613038238825366
517,0.00614773500266487
518,0.00612900650666611
519,0.00621478581057191
520,0.00635284630787656
521,0.0064306607758321
522,0.00650847524378765
523,0.0065862897117432
524,0.00654915147818245
525,0.00657683410134321
526,0.00657237531934821
527,0.00654749112556227
528,0.00659546972814427
529,0.00667631021183979
530,0.00666788490741011
531,0.0066849233081537
532,0.00666942575581072
533,0.00673550193297271
534,0.00677352425714559
535,0.00667621203679021
536,0.00675371874543904
537,0.00671938650846041
538,0.00665834143093515
539,0.00661755993520419
540,0.00665870759358663
541,0.00661146708440608
542,0.00658436248688984
543,0.00660347069541581
544,0.00664075253286905
545,0.00659217739225833
546,0.00662317643422221
547,0.00661746303739376
548,0.0066117496405653
549,0.00660603624373684
550,0.00657476025128285
551,0.00662320138834949
552,0.00664522827667609
553,0.00659003612593613
554,0.00657230056659583
555,0.00661480196081153
556,0.00656291993839839
557,0.00653270487485871
558,0.00649576661448063
559,0.00644404345848463
560,0.00651286244037438
561,0.00639996569654069
562,0.00650433893856873
563,0.00640838316889556
564,0.0064286092406748
565,0.00631353636699108
566,0.00630958194017038
567,0.00621213736777173
568,0.00625173506125432
569,0.00617740936851444
570,0.00615877722156757
571,0.00615825325474874
572,0.00617106859202124
573,0.00614866908071705
574,0.00617833212608227
575,0.00612175456807021
576,0.00613754857153424
577,0.00615334257499828
578,0.00616913657846231
579,0.00618493058192634
580,0.00620072458539038
581,0.00627662820227429
582,0.00625239824704144
583,0.006277394450393
584,0.00617982754445667
585,0.00617110952669759
586,0.00601056394801907
587,0.00588605132873017
588,0.00581520169015212
589,0.00574435205157406
590,0.005673502412996
591,0.00569728967737172
592,0.00574147793756816
593,0.00575169399458403
594,0.00580902980535446
595,0.00579745627873981
596,0.0058256613353172
597,0.00586273797527898
598,0.00586266935859029
599,0.00586099689896127
600,0.00589868567976709
601,0.00593288737613927
602,0.00597230028638848
603,0.0059156214843773
604,0.00596498682033998
605,0.00597004606605365
606,0.00593160926144679
607,0.005908591060657
608,0.00581591064466366
609,0.00582025072303585
610,0.00578070681602676
611,0.00573383221905256
612,0.00568111680925402
613,0.00565361210447262
614,0.00556573487578621
615,0.00558812764683415
616,0.00553869756832214
617,0.0056057750051923
618,0.00558061949303997
619,0.00558983508984015
620,0.00555995724688011
621,0.00558573006642026
622,0.00546306078159633
623,0.00547051577892938
624,0.00540496042728478
625,0.00533940507564017
626,0.00527384972399556
627,0.0052588848612794
628,0.00522666941732416
629,0.00519865903478156
630,0.00525523202415183
631,0.0051882006784214
632,0.00518832886988897
633,0.00523753932326664
634,0.00525785059784841
635,0.00525673454629288
636,0.00523237088826254
637,0.00526251944731997
638,0.00519750758065058
639,0.0052362952275648
640,0.00521542157607591
641,0.00518197615677167
642,0.00515586296416672
643,0.00510402178363576
644,0.00505218060310481
645,0.00500033942257385
646,0.00499498305721311
647,0.00498753444952641
648,0.00487573960524963
649,0.00499319140931638
650,0.00489217993290789
651,0.004940452145781
652,0.00487573345438715
653,0.00477368758458063
654,0.00468629278872645
655,0.0047131238817555
656,0.00467318405130746
657,0.0047010016443246
658,0.00473775423961157
659,0.00483604724918466
660,0.00490128951218668
661,0.00489150881555685
662,0.0049149017116042
663,0.00486136795182775
664,0.00483402362371835
665,0.0048694616583288
666,0.00482951487208236
667,0.00484260012326447
668,0.00481415811958254
669,0.00474326903728926
670,0.00473530779157631
671,0.00470029001607909
672,0.00468741569800269
673,0.00470908678932625
674,0.0047011861399596
675,0.00469463169070284
676,0.0046453969136917
677,0.00466575470454164
678,0.00461045565762802
679,0.00457754245308407
680,0.00470182128656838
681,0.00458580294201932
682,0.0044862845817127
683,0.00439650207665244
684,0.00419952550004823
685,0.0040335020128026
686,0.00392006781166302
687,0.003815946164456
688,0.00374713091547066
689,0.00374940119082112
690,0.00383507554066812
691,0.00394228374622332
692,0.00396097795023593
693,0.00401520596209664
694,0.00409830450904967
695,0.00410654087668571
696,0.00417908154075924
697,0.00418884037789502
698,0.00412764428246545
699,0.00415984853539095
700,0.00421722179961746
701,0.00419925567434017
702,0.00425934041641132
703,0.00424874414007833
704,0.00436491170285852
705,0.00433188516028047
706,0.00441056647118073
707,0.00445933363115929
708,0.00443799749676867
709,0.00449356813536933
710,0.00444908796402601
711,0.00446997096948159
712,0.00444219761882322
713,0.0043075567153299
714,0.0042124857533954
715,0.00400014122130195
716,0.00381549011990061
717,0.00366247580233134
718,0.00363366324533885
719,0.00361638559585958
720,0.00365719704329624
721,0.00360320364440543
722,0.00372612380800232
723,0.00371240828780097
724,0.00369775899960652
725,0.00368708980336016
726,0.00366326617181046
727,0.00372381362216801
728,0.00374206806702954
729,0.00381048855338943
730,0.00390049970140083
731,0.00407158214515765
732,0.00412874065392528
733,0.00426296917807122
734,0.0043061407154992
735,0.00434624540172865
736,0.00440196716210228
737,0.00442162478244498
738,0.00444128240278769
739,0.0044609400231304
740,0.00454657498795616
741,0.00453354438641971
742,0.0045577692384682
743,0.0045819940905167
744,0.00460621894256519
745,0.00461289526948855
746,0.00459284837815073
747,0.00459698195680719
748,0.00453427765739843
749,0.00452737452681031
750,0.004514074221777
751,0.00445813832317166
752,0.00453152735933715
753,0.00438666647308955
754,0.0043875556341126
755,0.00408940551561933
756,0.00379125539712606
757,0.00349310527863279
758,0.00298301058434751
759,0.00253027110161152
760,0.00220754938327225
761,0.00209934162913116
762,0.00214137505377767
763,0.0022973725402282
764,0.00259484504245411
765,0.00284348634626235
766,0.00319333871364841
767,0.00351191966499746
768,0.0037229397029275
769,0.00385028396430013
770,0.00397065392172966
771,0.00402109007782834
772,0.00407604395203536
773,0.00410856098665716
774,0.00407168479534048
775,0.00406913800792462
776,0.00407919928957054
777,0.00405127865320764
778,0.00404832053668198
779,0.00400760925467342
780,0.00402011600887876
