"wavelength","measurement"
380,0.0323487485033364
381,0.030881289695598
382,0.0303382247520539
383,0.0299340652401301
384,0.0297865784755163
385,0.0311495126139011
386,0.0324888134072247
387,0.0338599600453846
388,0.0349726532405068
389,0.0361514607890942
390,0.0354488441746738
391,0.0351934278591131
392,0.0350952160483492
393,0.0348918489907693
394,0.035701463892214
395,0.0375152341605401
396,0.0413201075679333
397,0.0454019928995773
398,0.0494838782312214
399,0.0535657635628654
400,0.0555982904878351
401,0.0581016081108043
402,0.0599294151815796
403,0.059755914210288
404,0.05975148678664
405,0.0595082760659731
406,0.0601208620251787
407,0.0600224425128523
408,0.0600661267346533
409,0.061124787142832
410,0.0637311524030483
411,0.0629897311784395
412,0.0650403860670703
413,0.0658331329041908
414,0.0656257640552835
415,0.0660554764982147
416,0.065572150825322
417,0.0649476402048701
418,0.065725441559446
419,0.0644501222576482
420,0.0658666260513433
421,0.0655604784190811
422,0.0666933109398416
423,0.066686537197939
424,0.0665445716114176
425,0.065542651363284
426,0.0646420428037554
427,0.0630403510462298
428,0.0612843120628035
429,0.0610618593406355
430,0.0611780660090599
431,0.0635733299005382
432,0.0662207349094943
433,0.0681057542866747
434,0.0706052881215937
435,0.0719950125603246
436,0.0727606251752247
437,0.0739125525960315
438,0.0750644800168384
439,0.0762164074376452
440,0.0765691005149824
441,0.0775916426119677
442,0.078642862483282
443,0.0797647543434152
444,0.0809457929438987
445,0.0821268315443822
446,0.0833078701448658
447,0.0843951036046126
448,0.0850573613087062
449,0.087916891199437
450,0.0870013569701861
451,0.0863107598480826
452,0.0861034982923305
453,0.0858962367365784
454,0.0856889751808263
455,0.0856218738558015
456,0.0856170525378948
457,0.0863783463999178
458,0.0871039572007151
459,0.0883061117483625
460,0.0882547838249015
461,0.0874768066180356
462,0.0900057732523432
463,0.0869873128574082
464,0.0862983258449802
465,0.0854628627234449
466,0.0843862912284969
467,0.0839808952953493
468,0.0833114410015485
469,0.0827368397564952
470,0.0844934446123795
471,0.0843213777522634
472,0.0850536682202094
473,0.0859027082933307
474,0.0860569589064545
475,0.0869945943997414
476,0.0855144080084409
477,0.0852954125559424
478,0.0850764171034438
479,0.0848574216509453
480,0.0846903399705484
481,0.0823701616535546
482,0.0810046910095593
483,0.0805490494022141
484,0.0788478407113254
485,0.07740643308471
486,0.0782733701445466
487,0.0791019256844316
488,0.0799566800481161
489,0.0820430838247476
490,0.0823805726712595
491,0.0831852321234394
492,0.0850773593961273
493,0.0841615470467541
494,0.0853289316017891
495,0.0840646259703077
496,0.0842067137076193
497,0.0827306890235974
498,0.083141304478907
499,0.0814035682511326
500,0.0820780395360177
501,0.0811177152447226
502,0.0830052652891175
503,0.0831242796610961
504,0.0823811188208598
505,0.084842592214294
506,0.0845830971660875
507,0.0848228675367303
508,0.0852694043974181
509,0.0851038355222516
510,0.0835520042389496
511,0.0845780707921385
512,0.0836836474344508
513,0.0812234421249063
514,0.080630437071344
515,0.0794544088731293
516,0.0789516016072904
517,0.0787680009821762
518,0.0786933916086415
519,0.0800479489265813
520,0.0816518042733958
521,0.0823922835793939
522,0.083132762885392
523,0.0838732421913901
524,0.0831496624698125
525,0.083313208413023
526,0.0832887713138814
527,0.0830625379545701
528,0.0833887994823311
529,0.0843516880030716
530,0.0842381107470594
531,0.0843755951363564
532,0.084111579395789
533,0.0848960229515423
534,0.0851534910709591
535,0.0841887142700513
536,0.0850515287957724
537,0.0844709636972212
538,0.0836028849862288
539,0.0832555232378101
540,0.083616186566701
541,0.0830761258852327
542,0.0824462085927223
543,0.0830430774043779
544,0.0834685021088501
545,0.0831017165069478
546,0.0834976763359778
547,0.083482671081565
548,0.0834676658271522
549,0.0834526605727394
550,0.0830146924870329
551,0.0837215893987208
552,0.0844697987048844
553,0.0837544315839155
554,0.0835816314424701
555,0.084461911994435
556,0.0831912606903776
557,0.0831478150696743
558,0.0828987546173434
559,0.0822300389989389
560,0.0830816760658053
561,0.0819366957286617
562,0.0834177902529582
563,0.0820664454687861
564,0.0827022188419148
565,0.081519840281446
566,0.0810034450842012
567,0.0800592139928333
568,0.080865661597641
569,0.0799658838496259
570,0.0798839331412041
571,0.0803142264417801
572,0.0802275359450848
573,0.0801914888913097
574,0.0808176236367724
575,0.0799154273162515
576,0.0803174375775317
577,0.0807194478388119
578,0.0811214581000921
579,0.0815234683613722
580,0.0819254786226524
581,0.0830904421820051
582,0.0828498975653001
583,0.0832289881459918
584,0.0819953989243436
585,0.0815392393782295
586,0.0792978518269974
587,0.0780600209319048
588,0.0772872381500775
589,0.0765144553682501
590,0.0757416725864228
591,0.0765167127762638
592,0.0770652921590704
593,0.0771742983442036
594,0.0786493268036428
595,0.0787363179216051
596,0.07904810106287
597,0.0797792911715114
598,0.0797160671596103
599,0.0801673660677291
600,0.0807628122667271
601,0.0813937962014509
602,0.0819152358621076
603,0.081614906123831
604,0.0825273512607365
605,0.0819036320848035
606,0.0822056535536164
607,0.0817234860342594
608,0.0810744981546912
609,0.0809230351174297
610,0.0803791620669372
611,0.0798829509547978
612,0.0793270520433718
613,0.07907575636528
614,0.0782300419034689
615,0.0798436249457572
616,0.0785455757593009
617,0.0794927000102143
618,0.07924225242796
619,0.0795818697778114
620,0.0793005052007598
621,0.0798611275003081
622,0.0783264886544158
623,0.0781713196748741
624,0.0775378820915614
625,0.0769044445082486
626,0.0762710069249359
627,0.0762278016790095
628,0.0757818901628782
629,0.0756611228857838
630,0.0764962837807289
631,0.0755453972663993
632,0.0762175846635021
633,0.0769364611703614
634,0.0772369259544581
635,0.0778390817052282
636,0.0772733473929623
637,0.0782261118733469
638,0.0780084511042494
639,0.0784398026516468
640,0.0778842911532658
641,0.0780088329888676
642,0.0775498405348597
643,0.0770004063451425
644,0.0764509721554253
645,0.0759015379657081
646,0.0763379032673523
647,0.0764319172037045
648,0.0751679436724445
649,0.0762435053562195
650,0.0757174423151806
651,0.0761598197603735
652,0.0752680702704867
653,0.0744323560889724
654,0.0730425290140488
655,0.0739967097840862
656,0.0736075091589051
657,0.0744943552534413
658,0.0752450344938544
659,0.0775008162329925
660,0.0778344605625556
661,0.0783424301713569
662,0.0784383415937682
663,0.078216124995577
664,0.0778298558114552
665,0.078306211118345
666,0.0782835092404651
667,0.0784304498373921
668,0.078713160955932
669,0.0773539862835544
670,0.0775903039147372
671,0.0775547444454289
672,0.0774000304368845
673,0.077528744617029
674,0.0777232221732242
675,0.0778401293787343
676,0.0777724304993256
677,0.0786511189583465
678,0.0777120967304131
679,0.077727320978788
680,0.0791883677304237
681,0.0776129600462856
682,0.0755727225280567
683,0.0737850431038183
684,0.0704245759271445
685,0.068071496001065
686,0.0661539911760867
687,0.0648516036002867
688,0.0646700746644387
689,0.0651971344205635
690,0.066149030352006
691,0.0680262032161846
692,0.0690652690306569
693,0.0697417489586082
694,0.0710984836801968
695,0.0708671409861139
696,0.0721857327801161
697,0.0725170749486317
698,0.0717196361093531
699,0.0717865279974871
700,0.0729653717684165
701,0.0726598365382306
702,0.0735842864477232
703,0.0740429255503049
704,0.0751078839935992
705,0.0753196856008606
706,0.0763291350864719
707,0.0769526889686464
708,0.0769331616466936
709,0.0779568534888317
710,0.0769826928993289
711,0.0766819186561951
712,0.0761334179327376
713,0.0730569767657494
714,0.070763888802968
715,0.0669173676360748
716,0.0636782914266535
717,0.0617334641873869
718,0.0609770317603435
719,0.0609654288492837
720,0.0620843768774728
721,0.0610997872984329
722,0.0627930252996535
723,0.0620293723643728
724,0.0615974013365682
725,0.0621745690599664
726,0.0615754840158809
727,0.0625363513413695
728,0.0635269777644671
729,0.0652296644782166
730,0.066486559977282
731,0.0685784032937567
732,0.0703755216482184
733,0.072425948418228
734,0.0733646206092589
735,0.0737155543652605
736,0.0749153647978452
737,0.0754298201984861
738,0.075944275599127
739,0.0764587309997679
740,0.077415211145149
741,0.0776761291613802
742,0.0781840179390501
743,0.07869190671672
744,0.0791997954943899
745,0.0794456414121606
746,0.0793409501154056
747,0.0792030779533661
748,0.0785214775557335
749,0.0788112288780339
750,0.0789418724988228
751,0.0782514791074921
752,0.0798845596897533
753,0.0787723462459874
754,0.0763979076104095
755,0.0705002247648901
756,0.0646025419193707
757,0.0587048590738513
758,0.0495438336268787
759,0.0423420567886576
760,0.0382511594728266
761,0.0375844396245896
762,0.039173161749893
763,0.0432103551082867
764,0.0488848280816496
765,0.0541482702655527
766,0.060232251642735
767,0.0662605172145891
768,0.0698210002626586
769,0.0719593126296425
770,0.0744249695381294
771,0.0750980359967352
772,0.0756946892842443
773,0.077457276495398
774,0.0769155708172268
775,0.0770415725303692
776,0.0773833287805166
777,0.076747258410948
778,0.0775939999709845
779,0.0770048335843357
780,0.0776599877390163
