"wavelength","measurement"
380,0.00274158661191842
381,0.00263716641611455
382,0.00265843907179648
383,0.00263528363049235
384,0.00265446223915373
385,0.00284109902934457
386,0.00294659813699312
387,0.00311275604686932
388,0.003241972712618
389,0.00336208777964483
390,0.0033047649489699
391,0.00334542986386748
392,0.00338734533758368
393,0.00341401302859897
394,0.0035037713865057
395,0.00380879787173791
396,0.00426255094815265
397,0.00479165143591662
398,0.00532075192368059
399,0.00584985241144456
400,0.00610721495085099
401,0.00645231583419578
402,0.00673375512183907
403,0.00686429910927358
404,0.00694891398048853
405,0.00695891325682327
406,0.00707688573407852
407,0.00714890072200258
408,0.0072961500830473
409,0.00747497596073202
410,0.00783406656910487
411,0.00790331468922192
412,0.00812413768643269
413,0.00827733788488068
414,0.00824686152297749
415,0.00835016052162036
416,0.00825258783364351
417,0.00824396580253318
418,0.00837599325939058
419,0.00822296233650471
420,0.00844698963057576
421,0.00844778372267352
422,0.00852075084885645
423,0.00863093763995379
424,0.00868910455190668
425,0.00849453194494719
426,0.00848145183590374
427,0.00823141372022418
428,0.00802498738102642
429,0.00803709281775647
430,0.0081191053485969
431,0.00851426889934654
432,0.00882608181632749
433,0.00923447158567437
434,0.00968625244456173
435,0.00989350346338445
436,0.0100718712760718
437,0.0103022304833325
438,0.0105325896905932
439,0.0107629488978539
440,0.0108914985257249
441,0.0112278126519184
442,0.0115759456842327
443,0.0118321711918448
444,0.0121747249501781
445,0.0125172787085114
446,0.0128598324668447
447,0.0131975641262478
448,0.0134409371998002
449,0.013940395960516
450,0.0139535723153366
451,0.0139098036045669
452,0.0138783298276061
453,0.0138468560506452
454,0.0138153822736844
455,0.0137970739418401
456,0.0137090357829938
457,0.0137468446923625
458,0.0137528532693404
459,0.0138643788323272
460,0.0137646771615059
461,0.0135356136677367
462,0.0137924379650519
463,0.0134133592930649
464,0.0131637618172545
465,0.0130109237177004
466,0.01282845869998
467,0.0127545207474981
468,0.012582850791519
469,0.0124868261106298
470,0.0127379848706427
471,0.0126224229709564
472,0.0127104378622211
473,0.0127630599407089
474,0.0127748311365498
475,0.0129397730801203
476,0.0126713476694258
477,0.012657159663968
478,0.0126429716585102
479,0.0126287836530524
480,0.0125460824697246
481,0.0123065266879226
482,0.0120916166878268
483,0.0120693608530684
484,0.011760670098447
485,0.011570910762202
486,0.011725171491304
487,0.0118605788134064
488,0.0119940425705625
489,0.0123168275228178
490,0.012461452972328
491,0.0125811344434929
492,0.0128693467890371
493,0.0127360344702643
494,0.0130088915730398
495,0.0127946952859326
496,0.0129331425026201
497,0.0127332737483326
498,0.0128527357636224
499,0.0125833450638403
500,0.0127525714009385
501,0.012666655660228
502,0.0129220042819991
503,0.0130722362897849
504,0.0128732378366816
505,0.0133814987460898
506,0.0133455285880621
507,0.0134512691857048
508,0.0135388906617907
509,0.013554669908277
510,0.0133850587819208
511,0.0135461060520573
512,0.0134730043353465
513,0.0131425610266151
514,0.0131024106966004
515,0.0129503629495836
516,0.01287316387655
517,0.0128638965589681
518,0.0128790853019484
519,0.0131922403735186
520,0.0134019715028292
521,0.013559907081378
522,0.0137178426599268
523,0.0138757782384756
524,0.013768600161686
525,0.0138549770597943
526,0.0138767008236101
527,0.0138248639205851
528,0.0139461754481384
529,0.0140998234837071
530,0.014149604276437
531,0.0141857616206841
532,0.0141817233076075
533,0.0143282844350962
534,0.0143279246419045
535,0.0142369759671298
536,0.0144020206724487
537,0.0142978966488317
538,0.0142389067598934
539,0.014172149802288
540,0.014292507761173
541,0.0142595126939193
542,0.0141788392619105
543,0.014298373042479
544,0.0143577242350748
545,0.0142361774199053
546,0.014397433281477
547,0.0143704355880139
548,0.0143434378945507
549,0.0143164402010876
550,0.0142697341344977
551,0.0143662846403906
552,0.0145570814495456
553,0.0144050504800651
554,0.0143556658155375
555,0.0145501661725846
556,0.0143653232071279
557,0.0143941032427296
558,0.0143160447950107
559,0.0142418131708514
560,0.0144536762633934
561,0.0141949010162077
562,0.014478644479458
563,0.0142671361760211
564,0.0143524952928629
565,0.0141657489276746
566,0.0141422230925059
567,0.0140188231368022
568,0.0141501525080964
569,0.0140011435505816
570,0.0139992360280248
571,0.0140667988653636
572,0.01408923990886
573,0.0140936983749616
574,0.0142521521539315
575,0.0140898553850484
576,0.0141547530717017
577,0.014219650758355
578,0.0142845484450084
579,0.0143494461316617
580,0.014414343818315
581,0.0146000310379941
582,0.0145441377329206
583,0.0146095231773197
584,0.0144062892959256
585,0.0143979735657756
586,0.0139862045500773
587,0.0138081401956213
588,0.0136903449638047
589,0.0135725497319882
590,0.0134547545001717
591,0.0135599752601299
592,0.0136914518174986
593,0.0137139157495278
594,0.013941725140638
595,0.0139138683461487
596,0.0140588723671917
597,0.014151125836592
598,0.014182683851242
599,0.0142619400472013
600,0.0143619256568248
601,0.0144543608684185
602,0.0145515791995452
603,0.0144750207751719
604,0.0145927895903203
605,0.014556772372647
606,0.0145556114780871
607,0.0145382177440334
608,0.0143551290602472
609,0.0143858352176634
610,0.0143185978721066
611,0.0141952679048137
612,0.0140853052125012
613,0.0140387017913408
614,0.0138573507614954
615,0.0139655318469129
616,0.0137735203226661
617,0.0139142252355169
618,0.013869717224069
619,0.0138729368317023
620,0.0138113581392696
621,0.0138610639390444
622,0.0136173771079422
623,0.0136145088581245
624,0.0134897567462462
625,0.013365004634368
626,0.0132402525224897
627,0.0132010407936178
628,0.0131318745115576
629,0.0131365179217013
630,0.0132054130435379
631,0.013021940549096
632,0.0130422692569018
633,0.0131023239154637
634,0.0131085934635853
635,0.0131412548205649
636,0.0130135871425403
637,0.0130791733847196
638,0.012980301012678
639,0.0130304016315556
640,0.0129323954908959
641,0.0128949384595293
642,0.01279329632547
643,0.0126919789996299
644,0.0125906616737899
645,0.0124893443479498
646,0.0124424329849749
647,0.0124209783675327
648,0.0122213790653447
649,0.0124151672366094
650,0.0122390822544428
651,0.0123391837377997
652,0.0121772926764157
653,0.0119651397729484
654,0.0117648269345941
655,0.0118657202275463
656,0.0117406658716102
657,0.0118464819803483
658,0.0119751285001111
659,0.0122584641586765
660,0.012333734126623
661,0.0123437783798063
662,0.0123989202818736
663,0.012323336938957
664,0.0122124258710468
665,0.0122375085021248
666,0.0122448277422477
667,0.0122520626373524
668,0.0122038673973463
669,0.0120195174850157
670,0.0120592485162375
671,0.0119907682265175
672,0.011975108331169
673,0.0120054351192947
674,0.0119905333854777
675,0.011998479074821
676,0.0119148300913574
677,0.012019929224751
678,0.0118761127476209
679,0.0118382994146402
680,0.0121004381214578
681,0.0118738546506162
682,0.0115076441057377
683,0.0113157413073735
684,0.0109212799002357
685,0.0105713840311993
686,0.0102708577500537
687,0.0100757645526474
688,0.0100165722815134
689,0.010075853006553
690,0.0101974001612811
691,0.0104211949062752
692,0.0104763773200231
693,0.0105779715949956
694,0.0107712827180922
695,0.0107936341098074
696,0.0109567084615112
697,0.0110509066437777
698,0.0108997557766767
699,0.0109536903694518
700,0.01117945142841
701,0.0111109408101933
702,0.0113671193174421
703,0.011395879338122
704,0.0116507258894937
705,0.0117141627917529
706,0.0119731011476588
707,0.0121415093357212
708,0.0121194176263847
709,0.012309596692708
710,0.0122315136238977
711,0.0122565554433798
712,0.0122801861857171
713,0.0118156414416256
714,0.0115017053905676
715,0.0108482626424945
716,0.0103919086902388
717,0.0100564711353789
718,0.0100178637088962
719,0.0101089116049173
720,0.0103136334611519
721,0.0102888543634833
722,0.0105520960368759
723,0.0106107175463296
724,0.010575750046041
725,0.0106722050758693
726,0.0106475241101346
727,0.0109310758507438
728,0.0111528555595091
729,0.0115011441389191
730,0.0118719099625761
731,0.012371011955192
732,0.0128251651511792
733,0.0133056267737375
734,0.013625720077034
735,0.0137763777750401
736,0.0140447426205786
737,0.0142445658225333
738,0.0144443890244881
739,0.0146442122264429
740,0.0149976888836006
741,0.0151692505860714
742,0.0153213192089801
743,0.0154733878318888
744,0.0156254564547974
745,0.0157590167289574
746,0.0158151215180265
747,0.0158911987251411
748,0.0157602587203503
749,0.0159135139613651
750,0.0159481265413697
751,0.0159350052085865
752,0.0161873490235093
753,0.0160925395122413
754,0.0158397325086868
755,0.0147115392870299
756,0.013583346065373
757,0.0124551528437161
758,0.0106986504088275
759,0.00919693874400836
760,0.0082818738629041
761,0.00821934648088149
762,0.00860990944066926
763,0.00948025708880521
764,0.0106051259163294
765,0.0116899435314196
766,0.0129385961528837
767,0.0142177942020722
768,0.0149158999989446
769,0.0153609756618941
770,0.0158844896576031
771,0.0160540559260879
772,0.0162633674699098
773,0.0164420012977278
774,0.016411459256627
775,0.0164779437247422
776,0.0165406952546897
777,0.0163872923527855
778,0.016551877964958
779,0.016424755031023
780,0.0166674221015568
