"wavelength","measurement"
380,0.0240846405500554
381,0.0232185678210183
382,0.0223798038246252
383,0.0220763905799192
384,0.0220981288170867
385,0.0232030184873841
386,0.0243196806318066
387,0.0252165068019247
388,0.0260917295011591
389,0.0270631715983548
390,0.0265991552824983
391,0.0267209270028115
392,0.0267077228273069
393,0.0265220065251008
394,0.0268048249247548
395,0.0289202828043368
396,0.0321852121289875
397,0.0354923831083841
398,0.0387995540877808
399,0.0421067250671774
400,0.0445104389996979
401,0.0464571637913636
402,0.0483290093620631
403,0.0487597195203667
404,0.0490826968970723
405,0.0488119876143943
406,0.0501893360720143
407,0.0499887625850587
408,0.0506712434585865
409,0.0513781341934921
410,0.0536913937167786
411,0.0538451192086862
412,0.0552363174393672
413,0.0559706914097778
414,0.0558438450336594
415,0.0566991744749201
416,0.0558817603720147
417,0.0555474632594789
418,0.0556243552330879
419,0.0544737047809253
420,0.0556886401210117
421,0.0553968060620113
422,0.0557570476924572
423,0.0556067134760255
424,0.055739295516584
425,0.0543160365781873
426,0.0537233572113291
427,0.0523161786796836
428,0.0506934596827839
429,0.0501342302405438
430,0.0501093430255341
431,0.0520955987395881
432,0.0537265336575352
433,0.0553982174735091
434,0.0572129495507545
435,0.0584685272992911
436,0.0588521974300189
437,0.0597104308844564
438,0.0605686643388939
439,0.0614268977933313
440,0.061741629731162
441,0.0624935589186571
442,0.0639084431248397
443,0.0644276275184576
444,0.0653826943917681
445,0.0663377612650786
446,0.0672928281383892
447,0.0682183065271801
448,0.0682154240049913
449,0.0704213260482813
450,0.0699713812574574
451,0.0692273913787503
452,0.0689471085298722
453,0.0686668256809942
454,0.0683865428321162
455,0.0683145115231878
456,0.0683781158888533
457,0.069052089578609
458,0.0692836374776185
459,0.0702502672618396
460,0.0704053696847085
461,0.0694447279919029
462,0.0716237084142772
463,0.0691655082774702
464,0.0683847094928082
465,0.0677909751535325
466,0.0670784688994879
467,0.0667256276686567
468,0.0662625944851586
469,0.0658948186769679
470,0.0670610486372679
471,0.0670330539157624
472,0.0677090395978595
473,0.0683250757244418
474,0.0683893532656932
475,0.0695248366191272
476,0.0681149316491625
477,0.0680761654408751
478,0.0680373992325878
479,0.0679986330243004
480,0.0678661370863218
481,0.066159854044304
482,0.0646955267850848
483,0.0647340203324888
484,0.0629991829307682
485,0.061793123516128
486,0.062571415552373
487,0.0628217204364697
488,0.0635981854922107
489,0.0653329427283461
490,0.0653831478272689
491,0.0659420052789927
492,0.0675168702034935
493,0.0664252774044879
494,0.0676096373573446
495,0.066504433934749
496,0.0667911420819134
497,0.06564893188583
498,0.0656371180557777
499,0.0643278649740854
500,0.0646508850298937
501,0.0637833580285291
502,0.0649623579365217
503,0.0650942344896723
504,0.0642279950164436
505,0.0664436820945596
506,0.0660397543412446
507,0.0662280224388262
508,0.0665505048625065
509,0.0663752561036256
510,0.0652324781197997
511,0.0661929389032885
512,0.0656629959738928
513,0.0635320236279053
514,0.0630202833594827
515,0.061887699499315
516,0.0615341216316021
517,0.0614411815860405
518,0.0614067496312157
519,0.0624150471915097
520,0.0634889229322194
521,0.0640814848627607
522,0.064674046793302
523,0.0652666087238432
524,0.0648658462834068
525,0.0649778591101503
526,0.0649801837247211
527,0.0647888961575552
528,0.0650928750141439
529,0.0656868630209435
530,0.0657943903162473
531,0.0660129134080103
532,0.0655473509074199
533,0.0662159887363791
534,0.0665480823108423
535,0.065590465130947
536,0.0661124303889035
537,0.065567864368799
538,0.0650874211085111
539,0.0645331169256141
540,0.0650941295276542
541,0.0644917602765054
542,0.0639147460567559
543,0.0642797232347859
544,0.0645442366663212
545,0.0641070087203633
546,0.0645097269233729
547,0.0644999865904406
548,0.0644902462575083
549,0.064480505924576
550,0.0640995926139487
551,0.0644811905133567
552,0.0650438590902899
553,0.0641899163289472
554,0.0640828091239462
555,0.0646860835527915
556,0.0637028221802884
557,0.0635914063344364
558,0.0630630513758829
559,0.0623840993534731
560,0.0632718539345471
561,0.0618994077085052
562,0.0631495676066499
563,0.062069471867625
564,0.0620776439924637
565,0.0612182007145709
566,0.0608337258248707
567,0.0601718434257678
568,0.0602516299578647
569,0.0594406944791138
570,0.0595135348284527
571,0.0595077965566876
572,0.0594850797599906
573,0.0594877544601988
574,0.05981141593391
575,0.0589579053628122
576,0.0592094038677386
577,0.059460902372665
578,0.0597124008775913
579,0.0599638993825177
580,0.0602153978874441
581,0.0611543529836604
582,0.0607525985682485
583,0.0608732101346054
584,0.059872506613735
585,0.0592389032157248
586,0.0573243676083854
587,0.0565278113044305
588,0.0558135547302257
589,0.0550992981560208
590,0.054385041581816
591,0.0548080581853827
592,0.0552201524145283
593,0.0553212997441847
594,0.056407676363328
595,0.0563705806304281
596,0.0571388852053099
597,0.0573856756293839
598,0.057468334612736
599,0.0577063338878037
600,0.058390218469918
601,0.058806048494949
602,0.0593014247109989
603,0.0590100670776461
604,0.0596443245761918
605,0.0591098817058446
606,0.0593030828981857
607,0.05884394411522
608,0.0581041678506218
609,0.0579828492252742
610,0.0575621089945667
611,0.0571881170720497
612,0.0568111262147779
613,0.0565812184974494
614,0.055750696491005
615,0.0566670985696019
616,0.0557685434717312
617,0.0565432470799677
618,0.0561812526294685
619,0.0563727914118672
620,0.0562160139757572
621,0.0565883966119979
622,0.0554619866816948
623,0.0550903091862886
624,0.054728908287695
625,0.0543675073891013
626,0.0540061064905077
627,0.0538437253068818
628,0.0536598236205955
629,0.0535768351447341
630,0.0540892735876359
631,0.0533221906362556
632,0.0538121363252235
633,0.0540950392869835
634,0.0541766587229632
635,0.05449028272353
636,0.0541732439263094
637,0.0546185006115231
638,0.0543281241698821
639,0.0546414503506643
640,0.0541586287096589
641,0.0540970589524232
642,0.0540414115003314
643,0.0534199323644405
644,0.0527984532285495
645,0.0521769740926585
646,0.0523458012876425
647,0.0522138854276048
648,0.0513836273105158
649,0.0522886749360878
650,0.051583841919719
651,0.0520747444311235
652,0.0514727605401859
653,0.0508631866571744
654,0.0500076557113335
655,0.0505581678832201
656,0.0500864273147813
657,0.0509100782713976
658,0.0515683449500842
659,0.0527790956387334
660,0.0531349547475492
661,0.0535181101471583
662,0.0535385637854075
663,0.0535209707814509
664,0.0532292228675604
665,0.053185784131978
666,0.0531882277069596
667,0.0532511462977477
668,0.0536030722106986
669,0.0524651010328331
670,0.052665494726331
671,0.0529311846392596
672,0.0525594388148159
673,0.0526511400831775
674,0.0527937543849341
675,0.0526902566760609
676,0.0525625468630191
677,0.0532508483583771
678,0.0524079174480848
679,0.052271225471495
680,0.0534112901267479
681,0.0525966619451835
682,0.0511014366122085
683,0.0501066403404057
684,0.0481222954714243
685,0.0466499783238915
686,0.0454682907072181
687,0.0444572146978981
688,0.0442914984118023
689,0.0443320827269248
690,0.0452553490008057
691,0.0459593481657748
692,0.0463178786624326
693,0.0471165135318204
694,0.0477835528417103
695,0.048183894048983
696,0.04906264132514
697,0.0496375238396968
698,0.0489643023468913
699,0.0495482803342552
700,0.0505735115053915
701,0.0505428290184663
702,0.0517716245094459
703,0.0520178679311616
704,0.05354845355904
705,0.0536374552366139
706,0.0549837638973042
707,0.0558306599144579
708,0.0566905483188108
709,0.0570941808108256
710,0.0571197232687868
711,0.0572346691675552
712,0.0571107282847653
713,0.0547888315768373
714,0.0532455593332207
715,0.050296352547133
716,0.0478680012912957
717,0.0465350356180192
718,0.0461852941095623
719,0.0469223685604966
720,0.0476842392626209
721,0.0475822083174312
722,0.0487562138880246
723,0.0488796789878151
724,0.048834997155582
725,0.0494713047890464
726,0.0496052863328432
727,0.0505998676610294
728,0.0518799933064373
729,0.0539094233703728
730,0.0558468374981569
731,0.0579872646467798
732,0.0604184165184251
733,0.0627787384452997
734,0.0644367449043862
735,0.0650551551074265
736,0.0668009522213046
737,0.0678267021824443
738,0.068852452143584
739,0.0698782021047238
740,0.0712839231522392
741,0.0720776277620977
742,0.0728285928194301
743,0.0735795578767626
744,0.0743305229340951
745,0.0749897550824827
746,0.0750659179983837
747,0.0755779984145841
748,0.0748456580075175
749,0.0757543249447023
750,0.0755958901361807
751,0.0752342169287975
752,0.0767092946204788
753,0.0760756107520913
754,0.0742284481573716
755,0.06871390608472
756,0.0631993640120684
757,0.0576848219394168
758,0.0495326342972809
759,0.0424573435175824
760,0.0384863425731009
761,0.0376579583276343
762,0.0390684061051155
763,0.0433546474934996
764,0.0483619620819443
765,0.0535192376252268
766,0.0593858219678112
767,0.0650024494096074
768,0.0684927633407648
769,0.0706605794039964
770,0.0730037907534383
771,0.0734495655577835
772,0.0748637832786027
773,0.0757016827915791
774,0.0749505564462605
775,0.0756166900824704
776,0.0759736743479742
777,0.0750020894244898
778,0.0763010517629719
779,0.0750516127645625
780,0.0764715352623515
