"wavelength","measurement"
380,0.0025860112461585
381,0.00253765822924075
382,0.0025718789065606
383,0.00262799813777849
384,0.00267987771870406
385,0.00288950239855999
386,0.00309476831945715
387,0.00331661819141004
388,0.00354871836045303
389,0.00371527081657459
390,0.00369732064082592
391,0.00375953518021685
392,0.00384073475450828
393,0.00393607126637096
394,0.00415902268392274
395,0.004426399178561
396,0.00499500357906225
397,0.00561408701735509
398,0.00623317045564793
399,0.00685225389394077
400,0.00724653155720411
401,0.00783126011547034
402,0.00821630690876708
403,0.00836380300922449
404,0.00860284279532054
405,0.00867185310905441
406,0.00900220318670291
407,0.00917350593368466
408,0.00939510485869986
409,0.00972436895581354
410,0.0102834466338772
411,0.0104003113517785
412,0.0108716712597512
413,0.0111802564554549
414,0.0112968184592694
415,0.0115177283392309
416,0.0115167487270535
417,0.0115258952033801
418,0.0117782075864767
419,0.0116153093168674
420,0.011993715686276
421,0.012011582971485
422,0.0121888979136915
423,0.0123873829802012
424,0.0124800747782383
425,0.0122693283841571
426,0.0122339554959955
427,0.0119685548293572
428,0.0116289857393545
429,0.0116429728830993
430,0.0117223195596739
431,0.0122289303886064
432,0.0127359265806358
433,0.0131975256042315
434,0.0138415636032002
435,0.0141803401689368
436,0.014376467554012
437,0.0146663499210775
438,0.014956232288143
439,0.0152461146552085
440,0.0153713046757299
441,0.0157328477432751
442,0.0161559273346765
443,0.0163892718089984
444,0.0167336578151455
445,0.0170780438212926
446,0.0174224298274396
447,0.0177958108185759
448,0.0179597961101877
449,0.0186913763791751
450,0.0186805716044222
451,0.0186025961855171
452,0.0186386618039803
453,0.0186747274224436
454,0.0187107930409069
455,0.0187721364595818
456,0.0188281630310857
457,0.0191790763458328
458,0.0192976419763894
459,0.0197197453255519
460,0.0197863094849415
461,0.0196287660718581
462,0.0202489467049818
463,0.0197526377699592
464,0.0195649751328845
465,0.0195177261087688
466,0.0192937283445063
467,0.0193216040614551
468,0.0191726224644469
469,0.0191118650049776
470,0.0195457760539145
471,0.0195840613072331
472,0.019745606479217
473,0.0200509739157674
474,0.020158426953
475,0.0205161242662241
476,0.0200975912201687
477,0.0201574576492553
478,0.020217324078342
479,0.0202771905074287
480,0.020266601176284
481,0.0197771952878314
482,0.0194640028908131
483,0.0194506015977693
484,0.0190297712341354
485,0.0186295718557252
486,0.0188452843831508
487,0.0190544909234275
488,0.0192768435409142
489,0.0198159123280531
490,0.0199928674050353
491,0.0202184767290703
492,0.0207412426419197
493,0.0205682568159865
494,0.0209047044941643
495,0.020680636764797
496,0.0208276295471332
497,0.0205157637923391
498,0.0206460352288804
499,0.0202325996608246
500,0.0203937169985497
501,0.0202458458713805
502,0.0206616428995639
503,0.0208119593499843
504,0.0205768583622509
505,0.0213198701808592
506,0.0212704920889711
507,0.0213849259059022
508,0.0215577170586268
509,0.0215931153007293
510,0.0213142115760815
511,0.021650668716148
512,0.0215002361719269
513,0.020931621028285
514,0.0208888608441644
515,0.0205598552325124
516,0.020479062800072
517,0.02044527397214
518,0.0204593438116644
519,0.020893357657029
520,0.0213063292928339
521,0.0215810317586858
522,0.0218557342245377
523,0.0221304366903895
524,0.0220113685051455
525,0.0221063668593631
526,0.022207024935645
527,0.0220902056576057
528,0.0222969976455301
529,0.0225930665298767
530,0.0226152744148056
531,0.0226899757160609
532,0.0226415547181959
533,0.02287401390564
534,0.0229580261466033
535,0.0227259755358882
536,0.0229747457484634
537,0.0228298272904086
538,0.0226844592457036
539,0.02256693124969
540,0.022715373331324
541,0.0225726199676139
542,0.0224631228595268
543,0.0225841713086972
544,0.0227341777402611
545,0.0225609155004964
546,0.0227661141127089
547,0.0227523221711566
548,0.0227385302296043
549,0.022724738288052
550,0.0226122373033856
551,0.0227488073530523
552,0.0229480074072302
553,0.0227569216977216
554,0.0226788658259124
555,0.0229138103603502
556,0.0226252608382692
557,0.0225951359205354
558,0.0224678813486119
559,0.022285004545162
560,0.0225471990475599
561,0.0221575420745841
562,0.0225468966128461
563,0.0222201042340308
564,0.0223028657831503
565,0.0219812644115774
566,0.0218530942641378
567,0.0216258822127119
568,0.0217357924571197
569,0.0214564015957856
570,0.0214324698616343
571,0.0214630527581684
572,0.0214701639330449
573,0.0214092784401876
574,0.0215727999933999
575,0.0212675842706297
576,0.0213162086582301
577,0.0213648330458305
578,0.0214134574334309
579,0.0214620818210313
580,0.0215107062086317
581,0.0217788946508946
582,0.0216462077271788
583,0.021747595604187
584,0.0213530535025918
585,0.0212237734253436
586,0.0205644741097674
587,0.0202576395098819
588,0.0199959907845641
589,0.0197343420592463
590,0.0194726933339284
591,0.0195204844779971
592,0.0197071541180642
593,0.0197270472199951
594,0.0200276432909698
595,0.0199781068147971
596,0.0201099285060966
597,0.0201902832075662
598,0.0202279461686652
599,0.0202681367703742
600,0.0204019624242702
601,0.0205326358398263
602,0.0206326815885203
603,0.0205289638974766
604,0.0206832457238678
605,0.0205508625768716
606,0.0205071847621884
607,0.0204027710758454
608,0.0201363635393869
609,0.0200702330396531
610,0.0199013480852586
611,0.0197592869101649
612,0.0195501449905912
613,0.0194462978928405
614,0.0191815079817976
615,0.019383573804403
616,0.0191289282601059
617,0.0193041841617749
618,0.0192051143332673
619,0.0192570456743044
620,0.0191299337509775
621,0.019220503448215
622,0.0188258409999217
623,0.0187901054824883
624,0.0186036937889094
625,0.0184172820953304
626,0.0182308704017515
627,0.0181678337079106
628,0.0180547653610302
629,0.0179922766608586
630,0.0181158996600622
631,0.0178395273168819
632,0.0179198378365615
633,0.0180014994582751
634,0.0180075351298436
635,0.0180660830921506
636,0.0178941347818319
637,0.0180165307248207
638,0.0178260562754708
639,0.0178954706785381
640,0.017752515635213
641,0.0176669307270024
642,0.0175050344922214
643,0.0173220977490594
644,0.0171391610058975
645,0.0169562242627356
646,0.016925140726162
647,0.0168795356178753
648,0.0165009763770699
649,0.0167459579103845
650,0.0165020768646865
651,0.0166266485030474
652,0.016417548443707
653,0.0161212729950935
654,0.0157636981772582
655,0.0158903733664895
656,0.0157121979053015
657,0.0158259726631346
658,0.0159746057756673
659,0.0163496697892718
660,0.0164359409082272
661,0.0165005429615769
662,0.0164968741351964
663,0.0163548460136188
664,0.0162177186172842
665,0.0161992089859788
666,0.0162003543796144
667,0.0162064219236454
668,0.0161200823693212
669,0.0157984760686852
670,0.0158327880382101
671,0.0157087785338949
672,0.0156262927569669
673,0.0156474435016868
674,0.0156363908108595
675,0.0155883807737495
676,0.0154925819132334
677,0.0155561540222292
678,0.0153398712470068
679,0.0152652542404559
680,0.0156035510569457
681,0.0152695147448632
682,0.014887201070118
683,0.0145215096746703
684,0.0139593732768463
685,0.0135107717647197
686,0.0131342558196008
687,0.0128329240956252
688,0.0126891189385985
689,0.0127559305324358
690,0.0129939873531129
691,0.0132914022801782
692,0.0133393955042225
693,0.0134491584856675
694,0.0137187104108445
695,0.0137626723334881
696,0.0140245912513301
697,0.0141132170749302
698,0.0139586785305021
699,0.0140277256357063
700,0.0142636654236502
701,0.0142095137587801
702,0.0144469625715904
703,0.014548515190121
704,0.0148608378918991
705,0.0148550389872709
706,0.0151355868949516
707,0.0153467720346791
708,0.0153568224710396
709,0.0155624703584649
710,0.0154098574905063
711,0.0154423547395586
712,0.0154607705674917
713,0.0148177167591713
714,0.0144310487378252
715,0.0136249761912289
716,0.0129356849339358
717,0.0124383494739489
718,0.012305860525162
719,0.0123297482080936
720,0.0124820520160662
721,0.0123927092138897
722,0.0127380280359092
723,0.0126618574166646
724,0.0126065107140364
725,0.0126193812017482
726,0.0125601797143525
727,0.0127730883574556
728,0.0129462161027127
729,0.0132372396357277
730,0.0135899869878624
731,0.0140512474184361
732,0.0144597967109133
733,0.0149143162123771
734,0.0152326612331114
735,0.0153089949080411
736,0.0155071085331579
737,0.0155965419374793
738,0.0156859753418006
739,0.015775408746122
740,0.0160882171495117
741,0.0161280134141072
742,0.0161777994711071
743,0.016227585528107
744,0.0162773715851069
745,0.0163689373291669
746,0.0162585597445821
747,0.0163190257425109
748,0.0159905514343118
749,0.0160969040438883
750,0.0160678405741477
751,0.0159131273281442
752,0.0160492105802797
753,0.0157831531593574
754,0.0156039150314916
755,0.0144791795223276
756,0.0133544440131635
757,0.0122297085039994
758,0.0105127158325341
759,0.00895933602414883
760,0.0079439309357612
761,0.00766863092461752
762,0.00799585211482995
763,0.00866388174701094
764,0.00964475674596749
765,0.0106233971524801
766,0.0116940826658131
767,0.0127857257357418
768,0.0134093420908583
769,0.0137997775588432
770,0.0141061320408721
771,0.0142355172144337
772,0.0144087291276064
773,0.0145041025699271
774,0.0143668954659984
775,0.0143201981713178
776,0.0143748265211646
777,0.0141664478756995
778,0.0142329428654289
779,0.0140232914588025
780,0.0142409876327374
