"wavelength","measurement"
380,0.0180412897853256
381,0.0173297109621413
382,0.0167646004970466
383,0.0166664662831785
384,0.0168958669283653
385,0.017651557891138
386,0.0185388691940796
387,0.0193582965908383
388,0.0198708751054127
389,0.020548916059199
390,0.0201260326337315
391,0.0202898274311039
392,0.0205563111521072
393,0.0206387120770023
394,0.0207041669676122
395,0.0226832339112981
396,0.0251542471131563
397,0.0278926844601875
398,0.0306311218072187
399,0.0333695591542498
400,0.0351476840202561
401,0.0372636852649548
402,0.039036080711443
403,0.0394263939785432
404,0.0396464850935922
405,0.0399164719173138
406,0.0405718207574744
407,0.0409788025365456
408,0.0416027562164819
409,0.0425403822274992
410,0.0444076983948762
411,0.0447658115096484
412,0.045731811478195
413,0.0467472027323751
414,0.0466408950471433
415,0.0473045470739205
416,0.0468016027887879
417,0.0463860757225107
418,0.0466886589756077
419,0.0459889551563366
420,0.0471681187306362
421,0.0466724274336013
422,0.0470059592589045
423,0.0471063471720927
424,0.0476353963589452
425,0.0462865380511764
426,0.0456636290072634
427,0.044241342581137
428,0.0430208087170927
429,0.042821901653555
430,0.0425617650657292
431,0.0443238251253183
432,0.0459167188867199
433,0.0472375990068618
434,0.0491798829248295
435,0.0500100566401515
436,0.0503638102890551
437,0.0511026137153134
438,0.0518414171415716
439,0.0525802205678299
440,0.0528763409251418
441,0.0536164260227152
442,0.0544724855949341
443,0.0548405016620281
444,0.0557189976270417
445,0.0565974935920552
446,0.0574759895570688
447,0.0580650560899326
448,0.0584387520653044
449,0.0602823408475528
450,0.0600033681918759
451,0.059431183829549
452,0.0591770459635156
453,0.0589229080974822
454,0.0586687702314488
455,0.0584903113477398
456,0.0587661571973709
457,0.0591239190140853
458,0.0596091014444515
459,0.0602080573973905
460,0.0602730176398842
461,0.0594773232222065
462,0.0607684657810455
463,0.0597328853648377
464,0.0588227953394383
465,0.0582122770436189
466,0.0577101278725218
467,0.057454349535235
468,0.0569696585528433
469,0.0564804151855368
470,0.0576518058172168
471,0.0577262874391009
472,0.0579627811990685
473,0.0587906537967294
474,0.0588025764452734
475,0.0596365874667131
476,0.0586168782121322
477,0.0586395678421528
478,0.0586622574721734
479,0.058684947102194
480,0.0584860453716763
481,0.0570568753863501
482,0.0560947698417418
483,0.0558801956642555
484,0.0546131128502971
485,0.0534669445085812
486,0.0539275942548488
487,0.054146526435386
488,0.0546738188801631
489,0.0563770119126179
490,0.0564657742237449
491,0.057091817460159
492,0.0582292165335763
493,0.0575796806319497
494,0.0583341041420296
495,0.057325797067297
496,0.0576243660160149
497,0.0565937073734653
498,0.0568440234018385
499,0.0553644712850808
500,0.0558889964264515
501,0.0551326477814181
502,0.0561492422324473
503,0.0563399149344762
504,0.0555448382143601
505,0.0573090500661015
506,0.056955342337897
507,0.057075792816697
508,0.0573784082281822
509,0.0573804126189399
510,0.0564391316689556
511,0.0572170368724592
512,0.0566005295984466
513,0.0549637058712294
514,0.0546042715267029
515,0.0536022012860809
516,0.053075469667047
517,0.053017406300778
518,0.0530781790666827
519,0.0541356533660793
520,0.054845741590786
521,0.055421098011119
522,0.0559964544314521
523,0.0565718108517851
524,0.0562009932139402
525,0.0562485270242149
526,0.0563406703900128
527,0.0560698184128412
528,0.0564518427615534
529,0.0570471825199272
530,0.0569865888247737
531,0.0572048745803889
532,0.0569317782742103
533,0.057287847888589
534,0.0574574566227453
535,0.0569207808300439
536,0.0572815608375566
537,0.0568130940278361
538,0.0565412759258435
539,0.0561021745289519
540,0.0564149251513874
541,0.0559822590360587
542,0.0554474458898
543,0.0557426189169984
544,0.0560314185315107
545,0.055564406739995
546,0.0560634103482933
547,0.0559672646699627
548,0.0558711189916321
549,0.0557749733133014
550,0.0555679550601564
551,0.0559190171702377
552,0.0564029935340678
553,0.0557895681542509
554,0.0554396143393494
555,0.0559521835903252
556,0.0551980538965781
557,0.0551101356410641
558,0.0545814498906045
559,0.0542789806868546
560,0.0546651834049435
561,0.0537715937151865
562,0.054350981548149
563,0.0536345480310525
564,0.0537698930157023
565,0.0528906591846973
566,0.052594941150683
567,0.051743238930379
568,0.05217010447028
569,0.0513040789254489
570,0.051270665277027
571,0.0513692414063532
572,0.0513158677530701
573,0.0513100390751665
574,0.0515706035905579
575,0.0507949624820223
576,0.050992467189399
577,0.0511899718967757
578,0.0513874766041524
579,0.0515849813115291
580,0.0517824860189059
581,0.0525598911851177
582,0.0520432114197439
583,0.0524657052916243
584,0.0515587873048783
585,0.0511719167167308
586,0.04964804020964
587,0.0485989249761627
588,0.0480358275716575
589,0.0474727301671522
590,0.046909632762647
591,0.0471957770617983
592,0.0476547609444886
593,0.0478198806025167
594,0.0485225612148369
595,0.0485730408385979
596,0.049119451658238
597,0.0494363484205105
598,0.0496107124973095
599,0.0497056814828694
600,0.050339517105155
601,0.0505820029458518
602,0.0510848774689804
603,0.0508047035232945
604,0.0511359410991102
605,0.0510465771516061
606,0.0510245604421085
607,0.050772036763915
608,0.050211791683912
609,0.0500518368779826
610,0.0499008749603567
611,0.0493185936741948
612,0.0490643881423661
613,0.0486616690579872
614,0.04841522316582
615,0.0489057040199152
616,0.0480605805709547
617,0.0487134965436513
618,0.0484897144238432
619,0.0485789913469674
620,0.0483636768509772
621,0.0489334191637911
622,0.0476576820417937
623,0.0478461361359124
624,0.0474102998141236
625,0.0469744634923348
626,0.046538627170546
627,0.0464148939753008
628,0.0462359452594237
629,0.0462213451592074
630,0.0466212844796778
631,0.0459513405069799
632,0.0463382458736036
633,0.0465245092079859
634,0.0466453886631059
635,0.0470989426466919
636,0.0467640461346214
637,0.0471731469353052
638,0.0467442779779181
639,0.0470562637163223
640,0.0467177029620483
641,0.0467375405688278
642,0.046504990444972
643,0.0459895818937041
644,0.0454741733424362
645,0.0449587647911683
646,0.0452524759144054
647,0.0449412332384746
648,0.0441888558699755
649,0.0449191860161214
650,0.0444637791169011
651,0.0448386859325064
652,0.0443873411229588
653,0.0436804289654915
654,0.0430120531136247
655,0.0435802604235715
656,0.0434711472739641
657,0.043871630237835
658,0.044299558822444
659,0.0455477482874999
660,0.0459054787631038
661,0.0459687397255932
662,0.0461624547059328
663,0.0460831002820804
664,0.0458554560153464
665,0.045882149633406
666,0.0460809289672744
667,0.0458492812227109
668,0.0461357799933457
669,0.0453129652248865
670,0.0456804539748553
671,0.045365432421194
672,0.0453566654068555
673,0.0454841574295426
674,0.0455756136016589
675,0.0456691808227801
676,0.0454913867601376
677,0.0457109196558727
678,0.0453891420226152
679,0.0450924010910739
680,0.0461724368444997
681,0.0453944824216352
682,0.0441140837231366
683,0.043291623104653
684,0.0414979112581366
685,0.0402516067060453
686,0.0390818273123275
687,0.03844730048143
688,0.0382598715473577
689,0.0384888313593078
690,0.0389590241035465
691,0.039950981388251
692,0.0404190479369863
693,0.0408426389849792
694,0.0416777188743579
695,0.0419841372777807
696,0.0428898644785828
697,0.0431808475129707
698,0.0429116596832508
699,0.0433549984655195
700,0.0443328124919253
701,0.0442814376005732
702,0.0454499980504705
703,0.0460590667105553
704,0.0471826792720914
705,0.0477050330537703
706,0.0487706261398734
707,0.0497149602686488
708,0.0499539323057397
709,0.0511478107572776
710,0.0508935072648914
711,0.0509017096791113
712,0.0510450870343528
713,0.0492242513187612
714,0.0477565437631905
715,0.0451483550542032
716,0.0431520297818406
717,0.0416758493349177
718,0.0418582189555974
719,0.0424408961433358
720,0.0433307082721908
721,0.0432541066875271
722,0.0443324119432125
723,0.0445433387453697
724,0.0447842771303764
725,0.0450283220049661
726,0.0453005012670462
727,0.0464488514616803
728,0.0477174676101921
729,0.0492406560527813
730,0.0513464120340021
731,0.053595270872622
732,0.0557207492094106
733,0.0579432482490366
734,0.0592904732572198
735,0.0606424960619355
736,0.0618023970379647
737,0.0627241265632328
738,0.0636458560885008
739,0.0645675856137688
740,0.0664117211607057
741,0.0672970595617942
742,0.0680038859315439
743,0.0687107123012935
744,0.0694175386710431
745,0.0698085849829892
746,0.0698685627038336
747,0.0707365643229017
748,0.0700547069903591
749,0.0705143091897512
750,0.070642330627303
751,0.0705216203480471
752,0.0713031984315296
753,0.0708633481738891
754,0.0694751116738279
755,0.0643826826082075
756,0.0592902535425871
757,0.0541978244769668
758,0.0463764115191023
759,0.0396643742343884
760,0.0359430116742893
761,0.0350607958719181
762,0.0369344182403961
763,0.040533162701947
764,0.0454122680607074
765,0.050242418280143
766,0.0555526460115842
767,0.0607916897674865
768,0.0638522831713816
769,0.0664943026372095
770,0.068318782164485
771,0.0692183733597134
772,0.0698795796194087
773,0.0709172317963224
774,0.0704407704395197
775,0.0711347980164908
776,0.0710602398761421
777,0.0703617635471211
778,0.0712538839902166
779,0.0704898777950138
780,0.0715744594288153
