"wavelength","measurement"
380,0.00267113998023344
381,0.00257702863934748
382,0.00263800502901563
383,0.0027701383194065
384,0.00274998575842222
385,0.00296671765258483
386,0.00317188369312342
387,0.00342447389465356
388,0.00374226170593414
389,0.00381932277403369
390,0.00385449563080419
391,0.00389787510872287
392,0.00402137560548572
393,0.00405863918010018
394,0.00414461896015468
395,0.00459319951927141
396,0.00520419881719349
397,0.00586421616147284
398,0.00652423350575219
399,0.00718425085003154
400,0.00761579720660054
401,0.00816921795805685
402,0.00863907850445642
403,0.00885016508505719
404,0.00905199635008345
405,0.00929917164728698
406,0.00956765377740365
407,0.00983344876876726
408,0.0100786920746185
409,0.0104965298255159
410,0.0110995991748418
411,0.0113007376842689
412,0.011810828402629
413,0.0122749894891074
414,0.0123465023543125
415,0.012654032542607
416,0.0126652584376927
417,0.0128067935798083
418,0.0130623226643238
419,0.0129155956044104
420,0.0133812497148682
421,0.0134394425380686
422,0.0136579757140219
423,0.0138867504203429
424,0.0140927445914639
425,0.0137687183926165
426,0.0137668170833671
427,0.0134454037836886
428,0.0131441713416412
429,0.0131862491413215
430,0.0132221554137282
431,0.013853275046986
432,0.0143933723218383
433,0.0149632626550497
434,0.0156351044576952
435,0.0159668564270752
436,0.0162626013272177
437,0.016583069512547
438,0.0169035376978763
439,0.0172240058832056
440,0.0173299502009235
441,0.0177813656427343
442,0.0182135652630321
443,0.018475534482971
444,0.0188557993065583
445,0.0192360641301457
446,0.019616328953733
447,0.0200700758056422
448,0.0202276702995104
449,0.0209246797372767
450,0.0209808916705357
451,0.0209404598856559
452,0.0209773841822019
453,0.0210143084787478
454,0.0210512327752938
455,0.0210754422847705
456,0.0211073743681496
457,0.0214658286783341
458,0.0216586939087005
459,0.0221042784571647
460,0.0221663190850286
461,0.0220137897007828
462,0.0226513173451998
463,0.0221966905943562
464,0.0219877142835953
465,0.0218598996045841
466,0.0216852748639252
467,0.0216580875484877
468,0.0215984912147926
469,0.0214530853395166
470,0.0219154506542506
471,0.0220031753813058
472,0.0221599180262483
473,0.0225143019340054
474,0.0225634391979471
475,0.0230253021091827
476,0.0226103641186797
477,0.022647743656129
478,0.0226851231935782
479,0.0227225027310275
480,0.0226885899188242
481,0.0221517359327919
482,0.0218795754980058
483,0.02184954540654
484,0.0212893483970493
485,0.0208642916188917
486,0.0211522330017528
487,0.0213327914182623
488,0.0215487207753377
489,0.0221823371651768
490,0.0224634590848235
491,0.0226839936956955
492,0.0232895426359799
493,0.0230421783684865
494,0.0235054425417867
495,0.0232467429001757
496,0.0233967954913506
497,0.0230187009215206
498,0.0231512459453716
499,0.0227264529027488
500,0.0228948311139801
501,0.0227783867964971
502,0.0231858613102653
503,0.0233853412362422
504,0.0230958104442928
505,0.0240271153907322
506,0.0239240727408013
507,0.0240527398329247
508,0.0242816507295661
509,0.0242670351965094
510,0.0239618094775563
511,0.0242950542485365
512,0.024157264523251
513,0.0235335182024287
514,0.0234052794470701
515,0.0230463399776035
516,0.0229866195752246
517,0.0229455952396922
518,0.0228617819235562
519,0.023359043010385
520,0.0238283937882745
521,0.0241477803983557
522,0.024467167008437
523,0.0247865536185183
524,0.0246755928603768
525,0.0247457432135323
526,0.0248523629698565
527,0.0247940259118341
528,0.0249343159452357
529,0.0252837768683498
530,0.0252984003370379
531,0.0254005995354501
532,0.0253359009251416
533,0.025599382978218
534,0.0256931161916119
535,0.025479838267212
536,0.0257249565511999
537,0.0255446075369913
538,0.0253882183500122
539,0.0252128752409443
540,0.0253634468086573
541,0.0252108628988515
542,0.0251028914783611
543,0.0252558856781902
544,0.0253871954809615
545,0.0251471975701327
546,0.0253753906837659
547,0.0253521953834813
548,0.0253290000831968
549,0.0253058047829122
550,0.0252003710808051
551,0.0253418289431272
552,0.0255959526805148
553,0.0253768797440449
554,0.0252750631775541
555,0.0255025929255456
556,0.0251946773343993
557,0.0251773572820504
558,0.0249943034993185
559,0.0248273651135864
560,0.0250796726844401
561,0.0246370306170747
562,0.0251164650072151
563,0.0247662923123759
564,0.0248559132618564
565,0.0245162905583209
566,0.0243515692401023
567,0.0240590163269841
568,0.0242902373409387
569,0.0239381728912415
570,0.0238988814169214
571,0.0239320803484804
572,0.023941330211977
573,0.0239144559510423
574,0.024085109977013
575,0.0237702798436878
576,0.02382816019746
577,0.0238860405512323
578,0.0239439209050045
579,0.0240018012587767
580,0.024059681612549
581,0.024350147290262
582,0.0241328444454663
583,0.0242984884355379
584,0.0239005000912904
585,0.0237654615851842
586,0.0230541342318928
587,0.0226108070138189
588,0.0223490194593859
589,0.0220872319049529
590,0.0218254443505199
591,0.021862555914063
592,0.0220757129631354
593,0.0220461332195782
594,0.022326209458243
595,0.0223367582561247
596,0.0225003166644628
597,0.0226123430272973
598,0.0225754120202585
599,0.0226387999340611
600,0.0227728752154749
601,0.0230006406657424
602,0.0230606923346206
603,0.0229356255999618
604,0.0230959832075013
605,0.0229943668313864
606,0.0229591066347106
607,0.0228150055443112
608,0.0225172571972795
609,0.0224885415744746
610,0.0222859202913207
611,0.022078254881267
612,0.0218873189218981
613,0.0217563282033508
614,0.0214601272542657
615,0.0216985609859215
616,0.0213266050417721
617,0.0215972738704436
618,0.0214925867480207
619,0.0215368037242132
620,0.0214242635400842
621,0.0215099063862131
622,0.0210666623068542
623,0.0210561338386994
624,0.0208437934362496
625,0.0206314530337999
626,0.0204191126313501
627,0.0203560814301001
628,0.020229609348575
629,0.02014787369711
630,0.0202800547757142
631,0.0200171692318439
632,0.0200929635896679
633,0.0201484487150794
634,0.0201933030821835
635,0.0202745363573489
636,0.0199944897106691
637,0.0201563004094599
638,0.0199936737605877
639,0.0200765584120822
640,0.0198545810710522
641,0.019813065255633
642,0.0196564251005337
643,0.0194553021898463
644,0.0192541792791589
645,0.0190530563684715
646,0.0189773032966067
647,0.018923699628238
648,0.0185255339266504
649,0.0188234643037517
650,0.0185435045092604
651,0.018690650828986
652,0.0184853195751249
653,0.0181033508598375
654,0.017738298765834
655,0.0178373503293427
656,0.0176424575306289
657,0.0177451667272149
658,0.017982650034241
659,0.0184291749066283
660,0.0185017431629146
661,0.0184997646455783
662,0.0185387550537262
663,0.0184357010822538
664,0.0182267856479527
665,0.0182069884797364
666,0.0182260879311846
667,0.0181597518229068
668,0.0181610795649565
669,0.0177918867528405
670,0.017856890946419
671,0.0177356837766072
672,0.0176600195053646
673,0.0176428892743566
674,0.0175990639752231
675,0.0175234229233124
676,0.0174512866108829
677,0.017516762540228
678,0.0173321062998401
679,0.0171703013352435
680,0.0175132873821483
681,0.0172705695900264
682,0.0167471383677394
683,0.0163744907418224
684,0.0157677385937908
685,0.0152148441471734
686,0.0147748381244681
687,0.0144566689656054
688,0.0143529800727333
689,0.0143681190908402
690,0.0146506813087283
691,0.0149478747898197
692,0.014926546730509
693,0.0150447111795149
694,0.0153588378708584
695,0.0153432013109322
696,0.0156706000201668
697,0.0157392513518444
698,0.0155022557759239
699,0.0155930574828943
700,0.0158263143960146
701,0.0157338773211665
702,0.0159504453214646
703,0.0160623324186043
704,0.0163902371548025
705,0.0163656834039291
706,0.0166761918823068
707,0.0167746455991798
708,0.0168714562323563
709,0.0170602732425414
710,0.016892145250126
711,0.0169181199914177
712,0.0168665029251316
713,0.0162055568596753
714,0.0158177996509773
715,0.0149022765604978
716,0.0141378804790872
717,0.0136166789707446
718,0.0135095733903646
719,0.0134357983688045
720,0.013704072878738
721,0.0135580600152735
722,0.0138681823266734
723,0.0137258441318492
724,0.0137070786717027
725,0.0137458292121042
726,0.0136570180960507
727,0.0138300778887935
728,0.0139752893985923
729,0.0143375676652583
730,0.0147110572230077
731,0.0151847132236913
732,0.0155907349420893
733,0.0160547886367999
734,0.0163492798715118
735,0.0164371723745428
736,0.0167135968095586
737,0.0167926056377971
738,0.0168716144660357
739,0.0169506232942743
740,0.0172703397645965
741,0.0173036693566295
742,0.0173705383180142
743,0.0174374072793988
744,0.0175042762407835
745,0.0175551297790588
746,0.0173662318950469
747,0.0174704304119647
748,0.0171505187492949
749,0.0173273107233978
750,0.0171619545120585
751,0.0170044738963286
752,0.0171456418611039
753,0.0168949763489684
754,0.0166854213582564
755,0.0155414505565748
756,0.0143974797548932
757,0.0132535089532117
758,0.0113777109281327
759,0.0097296745336288
760,0.00868138036352855
761,0.00841509603553596
762,0.00865673010917935
763,0.00935490238160116
764,0.0103823018086702
765,0.011385542468372
766,0.0126885839398074
767,0.0137987115231638
768,0.0142745994025608
769,0.0148083670691884
770,0.0152053387359869
771,0.0153492375681955
772,0.0154363895069377
773,0.0156172580131888
774,0.0154394654690321
775,0.0153847527489534
776,0.0154327354245563
777,0.0152473587114615
778,0.015372617846739
779,0.0150655147589622
780,0.0152451726237707
