"wavelength","measurement"
380,0.00392510282334392
381,0.00382557877832085
382,0.00369389145001953
383,0.00368390730954472
384,0.00375960501752726
385,0.00391353152871841
386,0.00414592470950727
387,0.00433576995924078
388,0.00442881771056979
389,0.00465425768107016
390,0.00455077710216547
391,0.00465411738081019
392,0.00466146073413652
393,0.00471032101547749
394,0.00479987149824457
395,0.0051423088998964
396,0.00574884630476892
397,0.00637639469808213
398,0.00700394309139534
399,0.00763149148470855
400,0.00802980345506195
401,0.00847121658125756
402,0.00879165338273024
403,0.00894422063610336
404,0.00899857821245038
405,0.00898841076307721
406,0.00917290721380037
407,0.00927560932024845
408,0.00941131545474135
409,0.00959311601172067
410,0.00990846668778451
411,0.010023675453777
412,0.0103050978986643
413,0.0104855960445741
414,0.0104152729810789
415,0.0105645356033091
416,0.0104395833291535
417,0.0103701468978112
418,0.0104512256599554
419,0.0102884571308241
420,0.010563796553282
421,0.0105116637424698
422,0.0105997657902296
423,0.0107063171415911
424,0.0108074931855899
425,0.0105279487533073
426,0.0104286677375542
427,0.0101750337871563
428,0.00989384710821619
429,0.00992973702602336
430,0.0099715542111809
431,0.0104397770133506
432,0.01081931282198
433,0.0112726951356112
434,0.0117625583339325
435,0.0120323138852775
436,0.0121981548368905
437,0.0124607924004375
438,0.0127234299639845
439,0.0129860675275315
440,0.0131522198378438
441,0.0134859931111995
442,0.0139240600782289
443,0.0141762984687245
444,0.0145377508121571
445,0.0148992031555896
446,0.0152606554990222
447,0.0156021881265194
448,0.0158092718110801
449,0.0164485785266445
450,0.0164632572368703
451,0.016393142996853
452,0.0163553005548051
453,0.0163174581127572
454,0.0162796156707094
455,0.0162437326649292
456,0.016134242028724
457,0.0163167569806254
458,0.0162508909695413
459,0.0164175478086122
460,0.016358950481643
461,0.0160796001319922
462,0.0164257117266926
463,0.0159828876764714
464,0.0157044459123077
465,0.0155804099011785
466,0.0153178237829747
467,0.0152735933323466
468,0.0151096879340224
469,0.0149423219734175
470,0.0152529548595389
471,0.015185724332675
472,0.0152403411195622
473,0.0153983442002283
474,0.0153657963720919
475,0.0155597341742765
476,0.0152295502381731
477,0.0152205943772954
478,0.0152116385164177
479,0.0152026826555399
480,0.0151667722325216
481,0.0147987974410544
482,0.014538345394797
483,0.014491955237565
484,0.0142027178919198
485,0.0138999794979834
486,0.0140959416566305
487,0.0142410305259436
488,0.0143972962642573
489,0.0148098487835103
490,0.0149505172331535
491,0.0150603219492736
492,0.0154357610968907
493,0.0153060921635897
494,0.0155523556685224
495,0.0153512442117179
496,0.0154330222272179
497,0.015226457431045
498,0.0153757625366736
499,0.0150388362037087
500,0.0152253816258346
501,0.0151108820637363
502,0.0154219199889662
503,0.0155540606688473
504,0.0153884373579219
505,0.0159112072342628
506,0.0158610398015248
507,0.015967693923305
508,0.0161001526171702
509,0.0160909820142753
510,0.0158465433045826
511,0.0161506841840744
512,0.0160207155594086
513,0.0155732474889744
514,0.015525409943649
515,0.0153302642374842
516,0.0152325672205458
517,0.0152561462844389
518,0.0152525187111993
519,0.0155720192138804
520,0.015870182229902
521,0.0160583321245985
522,0.0162464820192951
523,0.0164346319139917
524,0.0163221462261018
525,0.0164156846435173
526,0.0164292736297596
527,0.0163851045980718
528,0.0165110846612123
529,0.0167321161564548
530,0.0167737674301931
531,0.01679643293285
532,0.016765586172136
533,0.0169226931431683
534,0.0170208063908103
535,0.0168507962333606
536,0.0170381271219824
537,0.0169474805432467
538,0.0168283497968897
539,0.0167905846013105
540,0.0168782954661069
541,0.0168301054761039
542,0.0167263427687864
543,0.0168750312273596
544,0.0169993184248111
545,0.0168695266227131
546,0.0169870209544402
547,0.0169751241656745
548,0.0169632273769088
549,0.0169513305881432
550,0.0168478721403473
551,0.0169974196756838
552,0.0171313625257981
553,0.0169914395749403
554,0.0169547612260785
555,0.0171596367122771
556,0.0169615936860459
557,0.0169567306623125
558,0.0169126573920464
559,0.0167725095259872
560,0.0169854089489593
561,0.0167176175493925
562,0.0170461145599649
563,0.0168038538934442
564,0.0168942875076379
565,0.0166386647145585
566,0.0166298284301192
567,0.0164513584002919
568,0.0165858731084207
569,0.0163756640183939
570,0.0163985673558692
571,0.0165148178898033
572,0.016484367096967
573,0.0164890277784946
574,0.0166390208660635
575,0.016453659038453
576,0.0165324324596806
577,0.0166112058809083
578,0.0166899793021359
579,0.0167687527233636
580,0.0168475261445912
581,0.0170503002925515
582,0.0169680399668165
583,0.0170387592393441
584,0.016803458402948
585,0.0167474067942806
586,0.0162969962370236
587,0.0160815950105709
588,0.0159225314181288
589,0.0157634678256867
590,0.0156044042332446
591,0.0157095715124177
592,0.0158783552960144
593,0.0158719837364433
594,0.0161288775778712
595,0.0161569213423084
596,0.0163161893453328
597,0.0164242426774243
598,0.0164415308272215
599,0.0164845500936725
600,0.0166746399711748
601,0.016792711241061
602,0.0168828529341329
603,0.0168025694944033
604,0.0169536615282479
605,0.0168730029353074
606,0.0168812122889787
607,0.0168480887127715
608,0.0166445067473703
609,0.0166577497066939
610,0.016572420967437
611,0.0164477333439741
612,0.0163075778028207
613,0.016220174492274
614,0.0160342752648566
615,0.0162326014036002
616,0.0159553914079496
617,0.0161322919131963
618,0.0160791317797317
619,0.0160888148328601
620,0.0160110626985231
621,0.0161061952575618
622,0.0157841395314191
623,0.0157502908741129
624,0.0156299748836348
625,0.0155096588931567
626,0.0153893429026786
627,0.0153263076816604
628,0.0152791832904836
629,0.0151892444797795
630,0.0153495120757557
631,0.0151210660594734
632,0.0152007143627901
633,0.0152593680003196
634,0.0152631457748529
635,0.0152761678977393
636,0.0151537780931233
637,0.0152851080066858
638,0.0151310552483299
639,0.0152093663161756
640,0.0150855567644608
641,0.0150264428140516
642,0.0149548962651285
643,0.0148116485754541
644,0.0146684008857798
645,0.0145251531961054
646,0.0145760745848186
647,0.0145019956978873
648,0.0142395870611678
649,0.014492165106203
650,0.0143182086331286
651,0.0143915311787897
652,0.014229075430936
653,0.0139519088624286
654,0.0137530905589905
655,0.0138681909481119
656,0.0137582581000943
657,0.013909453340897
658,0.0140401215853279
659,0.0143803796484117
660,0.0144710082380668
661,0.0144939776458034
662,0.0145232629035793
663,0.0144317912841089
664,0.0143422930641442
665,0.0143306298602719
666,0.0143482983246379
667,0.0144005314229436
668,0.0144177682682814
669,0.014118754901266
670,0.01418117827526
671,0.0141292288211961
672,0.0140660238846985
673,0.014100254220326
674,0.0141233276681328
675,0.0140896892556926
676,0.014070970665005
677,0.0141929511499271
678,0.0139518101263261
679,0.0138652498143058
680,0.0142512137641889
681,0.0139500395805525
682,0.0135824830033581
683,0.0132909029417875
684,0.0128354643198803
685,0.0124194460681584
686,0.0121136805142583
687,0.0118885531542427
688,0.0118033482617223
689,0.0118627360023085
690,0.0120317831493278
691,0.0123074762338641
692,0.0123366321775274
693,0.012502577823294
694,0.0126837449138368
695,0.0127252115563863
696,0.0129575410006196
697,0.0130507039604893
698,0.0129032245705527
699,0.0129639017460861
700,0.0132638151714624
701,0.0132167219389937
702,0.013475126067882
703,0.0135577321533026
704,0.0138873902407416
705,0.0139369029038756
706,0.0142388421864956
707,0.0144688791992135
708,0.0144752621233268
709,0.0147068474131232
710,0.0146002930718422
711,0.0146687336341583
712,0.0146315187317835
713,0.0140755577237696
714,0.0137220261813245
715,0.0129394112338222
716,0.0123954638728708
717,0.0119924864475152
718,0.0119364400241691
719,0.0120644488927656
720,0.0123192697646715
721,0.0122818048588979
722,0.0126539855714545
723,0.0126275211627022
724,0.0125794412032892
725,0.0127507538338072
726,0.0127417604116801
727,0.0130544002441838
728,0.0133418473358275
729,0.013797846590468
730,0.014202005156771
731,0.0148504315724663
732,0.0154019692624351
733,0.0159276387675058
734,0.0163676474802997
735,0.0165437968350537
736,0.0169364380266019
737,0.0171584599188418
738,0.0173804818110817
739,0.0176025037033216
740,0.0179905070342153
741,0.0182357615713289
742,0.0184222681139802
743,0.0186087746566316
744,0.0187952811992829
745,0.0189124005816248
746,0.0188843424539859
747,0.0190867885841589
748,0.0189453527989573
749,0.0191369244480729
750,0.0191293444283147
751,0.0191437606280988
752,0.0194271584466095
753,0.0191856648197122
754,0.0189179604122174
755,0.0175566659829967
756,0.016195371553776
757,0.0148340771245553
758,0.0127691734793558
759,0.0109922347420878
760,0.00988981750482749
761,0.00979069479726515
762,0.0102044992457201
763,0.0112584266925561
764,0.0126037422417353
765,0.0139000519901712
766,0.015411995711576
767,0.0168879627843693
768,0.0177153403051105
769,0.0183351698307634
770,0.0189053485753075
771,0.0190797689620471
772,0.019364553033711
773,0.0196107049827146
774,0.0194913104217644
775,0.0196029673143504
776,0.0196321973247442
777,0.0194678762004946
778,0.0197201897999721
779,0.019502502697907
780,0.0197574348273356
