"wavelength","measurement"
380,0.00432779374890461
381,0.00425733437277908
382,0.00424118754966156
383,0.00416807472742967
384,0.00418740412342425
385,0.0044281685151216
386,0.00458252712913178
387,0.00480309996081269
388,0.00505052502163802
389,0.00511834537943681
390,0.00511707382778646
391,0.00512044647069492
392,0.00518291707434379
393,0.00525781422340591
394,0.00547230720035941
395,0.00589182890564424
396,0.00650905791216656
397,0.00727033273017394
398,0.00803160754818133
399,0.00879288236618871
400,0.00908874153261651
401,0.00960466077360237
402,0.0100580215250914
403,0.0101860493849473
404,0.0102296726429882
405,0.0103047370122979
406,0.0105381331708577
407,0.0106674610072292
408,0.0107755934105798
409,0.0109714575973854
410,0.0114906334623336
411,0.0115842996405486
412,0.0118321222430186
413,0.0119775950810837
414,0.0119969881011453
415,0.0120211251462349
416,0.0119122619462767
417,0.0117273571250625
418,0.0119292025435497
419,0.0115461462515278
420,0.0118538174262257
421,0.011709463771854
422,0.0118004299423188
423,0.0117848985366973
424,0.0117592162457083
425,0.0114609357803194
426,0.0113205895830249
427,0.0109657800682141
428,0.010679760346389
429,0.0105780223015692
430,0.0107178057279802
431,0.0110559110940315
432,0.0115026900167439
433,0.0117980025774057
434,0.0122973067277119
435,0.0124804524749342
436,0.0126246656869048
437,0.0127693892469301
438,0.0129141128069555
439,0.0130588363669809
440,0.01314650883268
441,0.0133188164891719
442,0.0135656104624156
443,0.0136674707706017
444,0.013852011772894
445,0.0140365527751863
446,0.0142210937774786
447,0.0143945225828511
448,0.0143951002011011
449,0.014838351425636
450,0.0146993477746087
451,0.0145933981410175
452,0.0145370482453784
453,0.0144806983497394
454,0.0144243484541003
455,0.0144001113773899
456,0.0144502203286837
457,0.0146093799012197
458,0.0147117768064104
459,0.0149230979958054
460,0.0149496377551774
461,0.014768823447838
462,0.0151986301946267
463,0.014757230850083
464,0.0146497154674798
465,0.0145821671098607
466,0.0143798763494257
467,0.0144363681237273
468,0.0143260150751553
469,0.014272410762884
470,0.0146303454669627
471,0.0146401430773413
472,0.0147335521163298
473,0.0149086638873983
474,0.0149183528643954
475,0.0151794992174891
476,0.0148454614496876
477,0.0148611420829417
478,0.0148768227161958
479,0.0148925033494498
480,0.0148030804403735
481,0.0144757005243842
482,0.0141932342340047
483,0.0141584865144316
484,0.0138600728916633
485,0.01363207583011
486,0.0137843004032933
487,0.0139387803969242
488,0.0140957262492775
489,0.0144533723058037
490,0.0144407827305969
491,0.0145876866115506
492,0.014887726272185
493,0.0147060862587663
494,0.0148610128786019
495,0.0146002695062519
496,0.0146165920455145
497,0.0143480540021941
498,0.0144161363665797
499,0.0140922275725461
500,0.0141668047725018
501,0.0139953442697888
502,0.0142748571070624
503,0.0143232632886724
504,0.0141360777068497
505,0.0145608248760252
506,0.0143982472533329
507,0.0144381572239341
508,0.0144765354796827
509,0.0143878070189273
510,0.0141072660672831
511,0.0142514435418622
512,0.0140182343725305
513,0.0136113298411962
514,0.013474679899748
515,0.0132637990189514
516,0.0131470421748599
517,0.0131288241157656
518,0.0130928950420037
519,0.0133112079972624
520,0.0134781721376667
521,0.0135596028920055
522,0.0136410336463443
523,0.0137224644006831
524,0.0136001851367162
525,0.0135675541198554
526,0.0135537025759011
527,0.0134691640474228
528,0.0135435693915187
529,0.0136305580612121
530,0.0136047068885432
531,0.0135967336474692
532,0.0135146403613731
533,0.0136541787663673
534,0.0136595864678688
535,0.0135224315915895
536,0.0135938919951403
537,0.0135059574611513
538,0.0134051693241314
539,0.0132849396349794
540,0.0133652713832815
541,0.0132241541757013
542,0.013154061292501
543,0.0131955994308229
544,0.0132095337626183
545,0.0131206801087777
546,0.0131714853317444
547,0.0131415907116813
548,0.0131116960916182
549,0.0130818014715551
550,0.0129664113771627
551,0.013107947836058
552,0.0131586455647934
553,0.0130016428036114
554,0.0129368361820366
555,0.0130391122550603
556,0.0128378359175053
557,0.012765521510956
558,0.0126629513057023
559,0.0125435202049153
560,0.0127020825893254
561,0.0124087488380883
562,0.0125982992863248
563,0.0123579048769266
564,0.0124095462343492
565,0.0122183591479661
566,0.0121136643799007
567,0.0119857648778009
568,0.012055778000471
569,0.0118956459713826
570,0.011875409355387
571,0.0119149756082727
572,0.0118961741020114
573,0.0118383559127778
574,0.0119447070514531
575,0.011837706540939
576,0.011908221624801
577,0.0119787367086629
578,0.0120492517925248
579,0.0121197668763868
580,0.0121902819602487
581,0.012349888351532
582,0.0123360640394996
583,0.0124282648449325
584,0.0122279670330686
585,0.0122423597971504
586,0.0119353109200484
587,0.0118123636763451
588,0.0117307794311658
589,0.0116491951859864
590,0.011567610940807
591,0.0116462503789185
592,0.0117444728503302
593,0.0117291080565931
594,0.0118986939108665
595,0.0118506486378707
596,0.0119340111744088
597,0.0119812020766827
598,0.0119375317971133
599,0.0119781569435325
600,0.0120234310872015
601,0.0121221920678838
602,0.0121609506788041
603,0.0120727835817385
604,0.0121790850472054
605,0.0121301150408593
606,0.0121662478050364
607,0.0120499037542444
608,0.0119606889830161
609,0.0119416025657873
610,0.0118981466248242
611,0.0118205729472042
612,0.0117079355343809
613,0.0117043916589047
614,0.0116223560300128
615,0.0117583802933835
616,0.0116030924715997
617,0.0117291362579243
618,0.0116857162680011
619,0.0117377336316346
620,0.0116737270352168
621,0.0117347826599456
622,0.0114845047789224
623,0.0114672355184555
624,0.0113557035699868
625,0.011244171621518
626,0.0111326396730492
627,0.0111167204166331
628,0.0110719365526025
629,0.0110650174469737
630,0.0111647000455288
631,0.011082086632249
632,0.0111877731488885
633,0.0112589003161268
634,0.0113556049181547
635,0.0114041410572623
636,0.011350270733786
637,0.0114619076532776
638,0.0114087819378196
639,0.0115121132048911
640,0.0114718466865109
641,0.0114478607361019
642,0.0114322953852877
643,0.0113761863096672
644,0.0113200772340467
645,0.0112639681584262
646,0.011351693699327
647,0.0113991321413387
648,0.0112099771286982
649,0.0114220706319195
650,0.0112871938687085
651,0.0113764326075705
652,0.0112361279503519
653,0.0110896377293411
654,0.0109429896426692
655,0.0110608105619687
656,0.0110402363462006
657,0.0111708972593269
658,0.0113170155298403
659,0.0115600564022659
660,0.0116562771482601
661,0.0117222477945661
662,0.0117775296078965
663,0.0117487755820071
664,0.0117036784101649
665,0.0117484267389227
666,0.0117786840971565
667,0.0118375892345068
668,0.0118780889987107
669,0.0116668669527426
670,0.0117554530757034
671,0.0117455406237783
672,0.0117541679537493
673,0.0117901991922858
674,0.011876451724954
675,0.0118516592993873
676,0.0118546514407992
677,0.0119693812707678
678,0.0118061625540216
679,0.0118023026005608
680,0.0121188668914544
681,0.0119119915910742
682,0.0114677788555512
683,0.0111824771174582
684,0.010642226138667
685,0.0102310947315546
686,0.00992989481928633
687,0.00978605312127415
688,0.00975563056280337
689,0.0099853991023007
690,0.0102607242971693
691,0.0106358086795899
692,0.0108222268884514
693,0.0110397966802995
694,0.0112799460211884
695,0.0113006753290051
696,0.0115144987191881
697,0.0116106756522082
698,0.0114880001508761
699,0.0115407538860498
700,0.0117955435033161
701,0.0117572309483707
702,0.0119486660528756
703,0.0120053295606092
704,0.0122423068899436
705,0.0122299406767643
706,0.0124258140634571
707,0.0125567104364497
708,0.0126078208297606
709,0.0127155752801351
710,0.0125441709154711
711,0.0126009704975238
712,0.0125288133122772
713,0.0120871142507178
714,0.0118407657418151
715,0.0113585892817668
716,0.0109814346653734
717,0.0108099436878597
718,0.010750105849933
719,0.0108787892889643
720,0.010984997363395
721,0.0108665907786388
722,0.0111440618188565
723,0.0111062676516705
724,0.0111753073344089
725,0.0111924190400831
726,0.011150229877398
727,0.0114192388324329
728,0.0115494069228465
729,0.0118765845431111
730,0.0120610038700196
731,0.012374750353434
732,0.012673006947821
733,0.0129720061146799
734,0.0131308143195247
735,0.0131801528387785
736,0.0133922562348975
737,0.0134634940059652
738,0.0135347317770329
739,0.0136059695481006
740,0.0137908766845845
741,0.0138804901818229
742,0.013942302371252
743,0.0140041145606811
744,0.0140659267501102
745,0.0141096199867194
746,0.0140820672356176
747,0.0141229575482801
748,0.014000446836572
749,0.0140876489423496
750,0.0141304348230331
751,0.0140365630619114
752,0.0142353053144711
753,0.0140333466407566
754,0.0136011289120513
755,0.0124053163214914
756,0.0112095037309315
757,0.0100136911403717
758,0.00831739707307276
759,0.00696145321961732
760,0.00632506701465044
761,0.00624233644569753
762,0.00657553442199389
763,0.00744427517430502
764,0.0085246413831912
765,0.00959581195154311
766,0.010755563379712
767,0.0118782096446452
768,0.0124959870202356
769,0.0129891299475597
770,0.0133955832775573
771,0.0136505195704632
772,0.0138092120430444
773,0.0140058514911819
774,0.01395525242123
775,0.0139561724848719
776,0.0140178432560658
777,0.0138823818679199
778,0.0140692171857248
779,0.0138944305890423
780,0.0141055644200256
