"wavelength","measurement"
380,0.00308312940574791
381,0.00301071378593335
382,0.00301488108821449
383,0.00294771933035396
384,0.00290007292498641
385,0.00315381383171116
386,0.00328789128426095
387,0.0034775129412967
388,0.00360498688484902
389,0.00368320938286528
390,0.00369277674033954
391,0.00373835833020335
392,0.00378637244437913
393,0.00388172393506638
394,0.00406812625788131
395,0.0043838674993504
396,0.00492466243501718
397,0.00550309570392274
398,0.00608152897282831
399,0.00665996224173387
400,0.00699911918129559
401,0.00733467492324433
402,0.00773313355646306
403,0.00784504456534764
404,0.00794139860784786
405,0.00801491179201063
406,0.00826978059723153
407,0.0083138864658754
408,0.00844367339013819
409,0.00870948522132834
410,0.00912962687545955
411,0.00919540319394931
412,0.00939543301549713
413,0.00956955073973684
414,0.00951617129467701
415,0.00961814326889166
416,0.00951647818124597
417,0.0094267724767873
418,0.00957226075020944
419,0.00930418576756567
420,0.00953216051382388
421,0.00948127315976159
422,0.00955243800164806
423,0.00952057098771303
424,0.00961912443520488
425,0.00931930308685223
426,0.00918187735215614
427,0.00889693078283286
428,0.00868848955089997
429,0.0086370280169762
430,0.00868768988251929
431,0.009042179528867
432,0.00933759892224632
433,0.00962232868976473
434,0.00994133313217306
435,0.0101435102231717
436,0.0102054880630142
437,0.0103464413901217
438,0.0104873947172291
439,0.0106283480443366
440,0.0106823881590024
441,0.0108499205455802
442,0.0111232902024966
443,0.0111229695092723
444,0.0112980699288879
445,0.0114731703485035
446,0.011648270768119
447,0.0117665502049288
448,0.0117815445593935
449,0.0121809893133955
450,0.012032827419396
451,0.0119723816910057
452,0.0119259603341244
453,0.0118795389772432
454,0.0118331176203619
455,0.0118716932896248
456,0.0118486045708875
457,0.0119768939845681
458,0.0120004866314454
459,0.0121727647209487
460,0.0121996194028924
461,0.0120184974207906
462,0.012356709276318
463,0.0119541096630807
464,0.0118380964144941
465,0.011775000417826
466,0.0116111641129391
467,0.0116243744327573
468,0.011577982569495
469,0.0114622707928982
470,0.011737095787665
471,0.0117753918431315
472,0.0117750532277242
473,0.011970561876551
474,0.0119432610228578
475,0.0120605221629037
476,0.0118563179314508
477,0.0118652326924651
478,0.0118741474534794
479,0.0118830622144937
480,0.0118737056016862
481,0.0115942099314574
482,0.0113467507063563
483,0.0113659022417933
484,0.0110856362481829
485,0.0109394749957145
486,0.0110583930288127
487,0.0111459103739395
488,0.0113046151705602
489,0.0115811171421958
490,0.0115884652415639
491,0.0117192286770978
492,0.0119513443708439
493,0.0117779173169428
494,0.0119585265518488
495,0.0117451141891532
496,0.0117438028920734
497,0.011537302583066
498,0.011571537977005
499,0.011315738521039
500,0.0113826796355204
501,0.0112749085708507
502,0.0114754418533989
503,0.0115240382414153
504,0.0113790103499881
505,0.0117221325255715
506,0.0116400358442295
507,0.0116221962878449
508,0.0116868107516063
509,0.01165304367486
510,0.0114194075919899
511,0.0115478192050496
512,0.0114289236464456
513,0.0110324987512748
514,0.01098731751012
515,0.0107896468124543
516,0.0106936792823012
517,0.0107123172548569
518,0.0106863365596794
519,0.0108404649987796
520,0.0110397593671654
521,0.0111117214255746
522,0.0111836834839839
523,0.0112556455423932
524,0.0111574040607374
525,0.0111393715509684
526,0.0111201294258761
527,0.0110519350418608
528,0.0110810426600977
529,0.0112214252365335
530,0.0111819672639763
531,0.0111934179098304
532,0.0111234407639593
533,0.0112540005461594
534,0.0112735559609549
535,0.011122464596991
536,0.011205876263466
537,0.0110984279864136
538,0.0110414823141893
539,0.0109654636329226
540,0.0110135436063684
541,0.010896394752949
542,0.0108573868608491
543,0.0108781440197208
544,0.0109245396923592
545,0.0108452913649409
546,0.0109020492284182
547,0.0108784972217884
548,0.0108549452151586
549,0.0108313932085288
550,0.0107763687630155
551,0.0108262304649334
552,0.0109046658132258
553,0.0107976018898784
554,0.0107151846546999
555,0.0108135397373846
556,0.010632390993626
557,0.0105941406870037
558,0.0105370000775027
559,0.0103879069189865
560,0.0105272584914778
561,0.0102871774196809
562,0.0104341178297841
563,0.0102742278934576
564,0.010269608068856
565,0.0101152336601691
566,0.0100066205673214
567,0.00988349891547366
568,0.00994343615442026
569,0.00982567366124028
570,0.00978232201136466
571,0.00983232804414342
572,0.00979560109682994
573,0.0097670660465296
574,0.00981456449336576
575,0.00971712134951223
576,0.0097768776207842
577,0.00983663389205616
578,0.00989639016332813
579,0.0099561464346001
580,0.0100159027058721
581,0.0101432156721863
582,0.0101132766301512
583,0.0101907230629846
584,0.0100461100980349
585,0.0100174635881458
586,0.00979505540747335
587,0.009679730047765
588,0.00961999653497612
589,0.00956026302218724
590,0.00950052950939836
591,0.00954763249215365
592,0.0096293039293619
593,0.00962093147454038
594,0.00970333166140678
595,0.00972203924036269
596,0.00975434735673353
597,0.00979741156026414
598,0.00980380456377065
599,0.00978537245373894
600,0.009872411912407
601,0.00990925457644918
602,0.00997381541826997
603,0.00989225432891943
604,0.00998397115050168
605,0.00992125014033838
606,0.00996835993401739
607,0.00988636528971569
608,0.00976088294106893
609,0.00977512831212159
610,0.00972562767710204
611,0.00969264965571476
612,0.00958251797575483
613,0.00955919648096184
614,0.00947462292280751
615,0.00960562493641725
616,0.00953286564574191
617,0.00959469971097323
618,0.00957233506165772
619,0.00962271162671499
620,0.00954676428063318
621,0.00960914296912864
622,0.00940371778196942
623,0.00936195273636459
624,0.00928293807605062
625,0.00920392341573665
626,0.00912490875542268
627,0.00910770390967203
628,0.00909142294911585
629,0.0090901664156135
630,0.00919214992617655
631,0.00909132989896363
632,0.00917896137724556
633,0.00924913480791563
634,0.00931150014348095
635,0.00935732155216865
636,0.00931558170924872
637,0.00941985802515281
638,0.00935295740760986
639,0.00943783127668497
640,0.0093858995619138
641,0.00939109766961338
642,0.0093438808823303
643,0.0092902356558051
644,0.00923659042927989
645,0.00918294520275468
646,0.00930216474627549
647,0.00927264603942701
648,0.00917646749133045
649,0.00931812824882695
650,0.00920375730584526
651,0.00926837284131897
652,0.00913889283300768
653,0.00901860901433098
654,0.00888488480038127
655,0.00894791511456873
656,0.00895881941893832
657,0.00904067965707684
658,0.00914659652544651
659,0.0093446282816097
660,0.00942107963903801
661,0.00943251195750197
662,0.0094801211450631
663,0.00943454596714482
664,0.00936967629174635
665,0.00939767523932248
666,0.00944334930099831
667,0.00941986330097349
668,0.00945079547821732
669,0.00932651570734754
670,0.00935599248019258
671,0.00934221530775421
672,0.00935677202912866
673,0.00936483161747376
674,0.00940694688915612
675,0.00939499232820758
676,0.00938586653085288
677,0.0094610375458415
678,0.00939200664733006
679,0.00935600326491037
680,0.00958924263372101
681,0.00938518317392714
682,0.00904219391178734
683,0.00884951635665558
684,0.00840441418124558
685,0.00811328981492812
686,0.00783974820216486
687,0.00774151979916949
688,0.00774683624514093
689,0.0078923118476831
690,0.00814659859340654
691,0.00843823478810837
692,0.00860785853272416
693,0.0087549011590136
694,0.00900029636745691
695,0.00905361844861509
696,0.00924792151944996
697,0.00932190858904748
698,0.00925194175263503
699,0.00931561362103193
700,0.00954307992276854
701,0.00953492299436953
702,0.00976266223557588
703,0.00976414956222205
704,0.0099665426385295
705,0.00998438979546826
706,0.0101810053334451
707,0.0103102352737542
708,0.0103792715579025
709,0.010452884816653
710,0.0104478822602637
711,0.0104199124272958
712,0.010441274656847
713,0.0100591487902814
714,0.00988003367342667
715,0.00948123946309461
716,0.00918860344717475
717,0.00906190777476593
718,0.00903421778680164
719,0.00916557505184689
720,0.00929650795355625
721,0.0091952436235123
722,0.00941995436270915
723,0.00945776696247809
724,0.00943456345157984
725,0.00952842652479435
726,0.00952454931063387
727,0.00974513132221439
728,0.00985477483149537
729,0.0101409432629117
730,0.0103142863170149
731,0.0106242650947117
732,0.0108560286242556
733,0.0111695521981531
734,0.0113260635944364
735,0.0114225248471439
736,0.0115442318258778
737,0.0116069344569302
738,0.0116696370879827
739,0.0117323397190351
740,0.0119328443362719
741,0.0119975958478079
742,0.012073399030001
743,0.0121492022121941
744,0.0122250053943871
745,0.0122423669321251
746,0.0122571788611739
747,0.0123167207335732
748,0.0121871746118205
749,0.0122977196709145
750,0.0122317943610563
751,0.012238388993527
752,0.0123743102788262
753,0.0122861634960223
754,0.0118596301232124
755,0.0108167319741706
756,0.00977383382512887
757,0.0087309356760871
758,0.00721369570903659
759,0.0060689787412445
760,0.00556106960571191
761,0.00542574646776069
762,0.00574042378242235
763,0.00649384002801007
764,0.00746977306799828
765,0.00839497873865349
766,0.00941026084349579
767,0.0103419963324566
768,0.0109330923204452
769,0.0114259496003122
770,0.0117662730981827
771,0.0119276357206092
772,0.0120408067356586
773,0.0122465836889417
774,0.0121782610034876
775,0.0122152060441723
776,0.0122181513144392
777,0.012174515744364
778,0.0122865789536346
779,0.0121693992011101
780,0.0123527204601845
