"wavelength","measurement"
380,0.0159024330204919
381,0.0154147256006872
382,0.0153238658792147
383,0.0150225255988365
384,0.0150871681287584
385,0.0158993032610083
386,0.0164718971882215
387,0.0172936544542908
388,0.0181420594926431
389,0.0185645198591611
390,0.0185741646367378
391,0.0183963914298876
392,0.0183600884967089
393,0.0184528467443472
394,0.0188183781420756
395,0.0198991423437864
396,0.0220079566584088
397,0.0241173081538623
398,0.0262266596493157
399,0.0283360111447692
400,0.0296879431339096
401,0.0314890678806775
402,0.032227511797042
403,0.0325446156537408
404,0.0329347704455555
405,0.0329528340209914
406,0.0335340566013169
407,0.0338521057996139
408,0.0346613542441941
409,0.0355373408024125
410,0.0375415926284558
411,0.0379916817121222
412,0.0400694155579369
413,0.0411730315746662
414,0.0420959291395128
415,0.043047501237988
416,0.043437606960649
417,0.0437666985216591
418,0.0456394564750281
419,0.0453362766224084
420,0.0469306583954302
421,0.0476325619622266
422,0.048308002002422
423,0.0493532429482504
424,0.0499246203326586
425,0.0493947043406826
426,0.0491170599303062
427,0.0484382795978685
428,0.047349910890177
429,0.0476504310673812
430,0.0475656718391954
431,0.0497384997588308
432,0.0515536895327671
433,0.0533279278834166
434,0.055655531475419
435,0.0569090062560846
436,0.0573215230752789
437,0.0583832398099219
438,0.0594449565445649
439,0.0605066732792079
440,0.0608825545829148
441,0.0617428434553192
442,0.0629315203085575
443,0.0634022933091946
444,0.0641155288371011
445,0.0648287643650076
446,0.0655419998929141
447,0.0663719675221751
448,0.0662257033359369
449,0.0681575663146022
450,0.0674693155638701
451,0.0672227230873221
452,0.0668829214958842
453,0.0665431199044463
454,0.0662033183130084
455,0.0662176799359958
456,0.0661770500461014
457,0.066360591016086
458,0.0668665570202251
459,0.067988547184527
460,0.0678309684983318
461,0.0674615540534507
462,0.0688446549077924
463,0.0673854303473554
464,0.0663789277803918
465,0.0662681237064981
466,0.06523513199224
467,0.0654377440873789
468,0.0646365388217975
469,0.064112847827195
470,0.0653778082009259
471,0.0654830163178961
472,0.0656892317558913
473,0.0665635192381852
474,0.0669360951113464
475,0.067383428880587
476,0.0662252155346062
477,0.0661242338235437
478,0.0660232521124812
479,0.0659222704014188
480,0.0657959451783956
481,0.06397684447369
482,0.0629113254216707
483,0.0624622281225766
484,0.0610239725013928
485,0.0596026045293823
486,0.0600457896646706
487,0.0605304704761141
488,0.0610286910917943
489,0.0625981423575195
490,0.0629460617974854
491,0.0635275888277088
492,0.0650524069127503
493,0.064283783867399
494,0.0653980062494878
495,0.0646773542572495
496,0.06485186273531
497,0.0638666221718761
498,0.0641484310089383
499,0.0629547440621405
500,0.063532255845544
501,0.0631956766433388
502,0.0641826003666962
503,0.0649369107380002
504,0.0640959514960934
505,0.0666792681879562
506,0.0663780826026535
507,0.0670218232295737
508,0.0675553246708505
509,0.0678899654414179
510,0.067044950417413
511,0.0680473911170978
512,0.0683061174971826
513,0.0663590271527895
514,0.0664573227170315
515,0.0656277511650419
516,0.0657125212973477
517,0.0658677313323416
518,0.0662827057922464
519,0.0680714104348229
520,0.0697818609605123
521,0.0709966919128791
522,0.0722115228652459
523,0.0734263538176127
524,0.0736860248472187
525,0.0742869210493714
526,0.0750358746283375
527,0.0749442529535709
528,0.0759732080993648
529,0.0773512703831141
530,0.0777715952167408
531,0.078127528576106
532,0.0783200206752353
533,0.0791483461986541
534,0.0798187144305702
535,0.0792302321911563
536,0.0799885909604452
537,0.079773707398375
538,0.079333742254461
539,0.0791991230394635
540,0.0797794441650959
541,0.0792645414598938
542,0.0790213374276209
543,0.0795152129572641
544,0.0800377118087362
545,0.0799123923735964
546,0.0805464306375237
547,0.0806286130926784
548,0.080710795547833
549,0.0807929780029877
550,0.0804471881339792
551,0.080854584413364
552,0.0818464701583783
553,0.0809769125625994
554,0.0808828799732747
555,0.0817317833089301
556,0.0805845034402934
557,0.0803729794532554
558,0.0798964460765652
559,0.0791125007994312
560,0.0800532906202915
561,0.0786047686675551
562,0.0799549198582526
563,0.0786610134287444
564,0.0791634945151897
565,0.0778775106091444
566,0.0772751516717224
567,0.0760209251289682
568,0.0767005153971259
569,0.0753882185168993
570,0.0751560836006307
571,0.075194853607933
572,0.0750307983442121
573,0.0748553184161952
574,0.0751433428980621
575,0.0740554968555995
576,0.0741475546418761
577,0.0742396124281526
578,0.0743316702144292
579,0.0744237280007057
580,0.0745157857869823
581,0.0753634083759126
582,0.0746228007017682
583,0.0748821056598678
584,0.073617253195476
585,0.073195299513755
586,0.0710373886003126
587,0.0699936729409499
588,0.0691599128152345
589,0.0683261526895192
590,0.0674923925638038
591,0.0677817707814528
592,0.0686955210510747
593,0.0685769936734028
594,0.0696767288746648
595,0.0693418576854295
596,0.0702319887214825
597,0.0707251246641955
598,0.0706369256148986
599,0.0711272650778061
600,0.0717397498905709
601,0.0721229814620716
602,0.0724915671145952
603,0.0721900311625309
604,0.0727413263172423
605,0.07248389028036
606,0.0725623900915896
607,0.0722998344530074
608,0.0712621244871389
609,0.0712769392087277
610,0.0707255428378444
611,0.0702595048020797
612,0.0696467910719066
613,0.0693432661771895
614,0.0684687728860545
615,0.0693181530672956
616,0.0683355059683404
617,0.0688994015113282
618,0.0688178081670031
619,0.0689743516552982
620,0.068969309583528
621,0.0694340384962599
622,0.0679961769755787
623,0.0679046013278659
624,0.0676304032906093
625,0.0673562052533527
626,0.0670820072160961
627,0.0668774472516327
628,0.0667136079699224
629,0.0665827806881135
630,0.0671696038896782
631,0.0664142750338468
632,0.0666260791953543
633,0.0672664041375454
634,0.0673144387626283
635,0.0678657065799466
636,0.0669128980670364
637,0.0675568895609915
638,0.0672733108252298
639,0.0673601561095038
640,0.0671860341028948
641,0.0664336810148948
642,0.0661840610490927
643,0.0655560841008177
644,0.0649281071525427
645,0.0643001302042678
646,0.0643813870316582
647,0.0642541329030373
648,0.0629393379473927
649,0.0641265706681437
650,0.0633947091439955
651,0.0640570628826918
652,0.0631763142943143
653,0.0622346911082224
654,0.0610349014752809
655,0.0618460250537417
656,0.0609840603949562
657,0.0620510276704884
658,0.0624895768328604
659,0.0641201447831546
660,0.0645610650693991
661,0.0648180101673221
662,0.0650673587023663
663,0.0646779227525501
664,0.0644240645465052
665,0.0647270253091766
666,0.0647278824854411
667,0.0648950400961879
668,0.0649303477055458
669,0.0639525750073625
670,0.0640893294432563
671,0.064198415626092
672,0.0638721924027532
673,0.0641299533989721
674,0.064331622648345
675,0.0643312456704637
676,0.0644333028759018
677,0.0649560282697109
678,0.0644116663485021
679,0.0643219273424369
680,0.0661465878049269
681,0.0651821224612264
682,0.0638311373783062
683,0.0631712776305267
684,0.0611761564962256
685,0.0601363729709978
686,0.0590509867042824
687,0.0583752352107599
688,0.0585220905136315
689,0.0591833127102559
690,0.06070069333848
691,0.0624706574293769
692,0.0635488095373915
693,0.0651039046987679
694,0.0667520583855597
695,0.0677986954482638
696,0.0701534553695978
697,0.0719038010721584
698,0.0720746414596725
699,0.0737808819445471
700,0.076402911109565
701,0.0774622281398943
702,0.0800550361344796
703,0.0818438562619029
704,0.0846289368730259
705,0.0864685291125953
706,0.0891445024471031
707,0.0916547158464194
708,0.0937028906475046
709,0.0963985528545308
710,0.0968440141671551
711,0.0985533072894743
712,0.100262890147417
713,0.097736605225151
714,0.0966625675311285
715,0.0929247704818051
716,0.0900389343451267
717,0.0883496750168224
718,0.0887348253199273
719,0.0909311840757159
720,0.0934008623809445
721,0.0941646221228388
722,0.0981532890331816
723,0.0987052719218879
724,0.0998790400078869
725,0.101627631077189
726,0.102829785360554
727,0.105828557065636
728,0.108747962255196
729,0.112910351129008
730,0.117489125655535
731,0.122520065804635
732,0.127953863137445
733,0.133519721762271
734,0.137651339901194
735,0.139977097045785
736,0.143494114941113
737,0.146130916923609
738,0.148767718906105
739,0.151404520888601
740,0.155946369656593
741,0.157824551756818
742,0.160315442755101
743,0.162806333753384
744,0.165297224751667
745,0.166285468194467
746,0.167101574758434
747,0.16890562107697
748,0.167926046878056
749,0.169605860567356
750,0.170778221912902
751,0.170678462293091
752,0.172888335923546
753,0.172617685994233
754,0.170624578091155
755,0.159850354810308
756,0.149076131529462
757,0.138301908248615
758,0.121255910252923
759,0.105921037863691
760,0.0960625786880635
761,0.0945249545290665
762,0.0979131318432858
763,0.106108271655348
764,0.116299850239018
765,0.127358586514486
766,0.139865219246552
767,0.152255359068688
768,0.159026016184888
769,0.164102756150571
770,0.168902696820185
771,0.170697614406163
772,0.173057990716611
773,0.175010766568532
774,0.174545334395728
775,0.174839196734288
776,0.175543831175999
777,0.174080356723668
778,0.176567139825092
779,0.174392294535735
780,0.177244073946997
