"wavelength","measurement"
380,0.00143572157213235
381,0.00142293995150847
382,0.00146472358568389
383,0.00141524575761546
384,0.00146869541049326
385,0.00160707711827528
386,0.00168288439741085
387,0.0017740859744464
388,0.00192241752569113
389,0.00201203237510836
390,0.00203503392636217
391,0.00200931230239902
392,0.00205871618987052
393,0.00214074314757925
394,0.00223746210180225
395,0.00235313549865253
396,0.00263613086131049
397,0.00297709052079983
398,0.00331805018028917
399,0.00365900983977852
400,0.0038534013417665
401,0.00414807731657213
402,0.00434074223980453
403,0.00446077196492843
404,0.00451747987078197
405,0.00458722182633158
406,0.00475892248656165
407,0.00484913949156559
408,0.00495121392768325
409,0.0051104503677365
410,0.00540136685601945
411,0.00547097689734154
412,0.00567591769517082
413,0.00587042624243656
414,0.00587761218839518
415,0.00600165114984846
416,0.00599540280549304
417,0.00598943102466081
418,0.00616099255467749
419,0.00603563078965349
420,0.00621638464551829
421,0.00620055506996292
422,0.00631834665477607
423,0.00636545745796933
424,0.00642635297038201
425,0.00632810341030486
426,0.00630491987747064
427,0.006163394648371
428,0.00600053127235282
429,0.00600177348147539
430,0.00604742336615636
431,0.00629536890255202
432,0.00655010973691889
433,0.00678278257137614
434,0.00710084134970734
435,0.00727163519401409
436,0.00734267768082763
437,0.00749266893436684
438,0.00764266018790605
439,0.00779265144144526
440,0.00787898974906148
441,0.00805412344015535
442,0.00828845895121045
443,0.00838796131687758
444,0.00859783537025272
445,0.00880770942362787
446,0.00901758347700301
447,0.00923448807150597
448,0.00928353642746149
449,0.00968302964136369
450,0.00965776459469995
451,0.00961654552653842
452,0.00959938406334706
453,0.00958222260015571
454,0.00956506113696435
455,0.00960985032205319
456,0.00951662241057485
457,0.00965346516456815
458,0.00971991895920091
459,0.00987476094605093
460,0.0098759047693836
461,0.00977702673858422
462,0.0100778974466997
463,0.00978339562852172
464,0.00970019557390408
465,0.00965206901424605
466,0.00955312153734131
467,0.0095406591558355
468,0.0094528269744142
469,0.00939156666446561
470,0.00959799449681429
471,0.00960957697965441
472,0.00966405079483536
473,0.00977488347452389
474,0.00983519850270451
475,0.0100141259879497
476,0.00980028868981939
477,0.0098183784304816
478,0.00983646817114381
479,0.00985455791180602
480,0.00983607595106699
481,0.00961306120399005
482,0.00949910313578452
483,0.00944921982965385
484,0.00925960480856468
485,0.00903558474949167
486,0.00913555043062083
487,0.00924547033358711
488,0.00933846221046599
489,0.0095843456917387
490,0.00966394073814844
491,0.00975271871683846
492,0.00998698492164158
493,0.00991761602296856
494,0.010094006494069
495,0.00999160384896569
496,0.0100613697216478
497,0.00989627589510667
498,0.0099658608072263
499,0.00976403375492963
500,0.00984447193994849
501,0.00979052368262236
502,0.00998671940366913
503,0.0100903511322458
504,0.00999002883070785
505,0.0103572197326894
506,0.0103484998550484
507,0.0104290573444977
508,0.0105143226813228
509,0.0105751321805556
510,0.0104448700424328
511,0.0106567966719206
512,0.0106252038953149
513,0.0103303085556085
514,0.0103451285518372
515,0.0102022981728686
516,0.0101943337331052
517,0.0102162425260173
518,0.0102214909037275
519,0.0104582040813213
520,0.0107123637983708
521,0.010861550008233
522,0.0110107362180953
523,0.0111599224279575
524,0.0111532511873497
525,0.0112368010749825
526,0.0112894319649459
527,0.0112718986112647
528,0.01137327563365
529,0.0115627751187593
530,0.0115834599450801
531,0.01162398601834
532,0.0116202048984164
533,0.0117280759706061
534,0.0118090515554317
535,0.0116720741220689
536,0.0118132537641893
537,0.0117750238949718
538,0.0116991382257935
539,0.0116593437658674
540,0.0117749089502414
541,0.0116934699404687
542,0.0117120471726074
543,0.0118118559662578
544,0.0118723771233422
545,0.0117756629597192
546,0.011851230646246
547,0.0118037877008615
548,0.0117563447554769
549,0.0117089018100924
550,0.0116113264969416
551,0.011699974311928
552,0.011781139114602
553,0.0116517828955261
554,0.0115784787211993
555,0.011685569763162
556,0.0115368706274984
557,0.0114966705243941
558,0.0113986753113526
559,0.0113140442859388
560,0.0114164303678958
561,0.011237432403609
562,0.0114062166684378
563,0.0112244341495918
564,0.0112587617486938
565,0.011070392943982
566,0.0110199586469777
567,0.0108327526784846
568,0.0108967640265075
569,0.0107393291708958
570,0.0107270160991526
571,0.010719354914297
572,0.0106939932723252
573,0.0106761468455655
574,0.010731737951167
575,0.0105934867444814
576,0.0106096389924281
577,0.0106257912403749
578,0.0106419434883217
579,0.0106580957362685
580,0.0106742479842153
581,0.0107917736110664
582,0.0107100357900381
583,0.0107474682739404
584,0.0105422024543353
585,0.0104521868880753
586,0.0101335234983997
587,0.00993625015497028
588,0.0097875546649877
589,0.00963885917500512
590,0.00949016368502254
591,0.0095133697585098
592,0.00961113499560048
593,0.009579721903818
594,0.0097280194553198
595,0.00972010503968805
596,0.00978397909849226
597,0.0098229960517828
598,0.00983211946408908
599,0.00985451632721589
600,0.00992530401185722
601,0.00996400423207018
602,0.010005761985396
603,0.00994626809622808
604,0.0100319604150485
605,0.00995746739939444
606,0.0099678203529683
607,0.00991929921380632
608,0.00981124782840837
609,0.00980636120139268
610,0.00973750816771271
611,0.00967805348682279
612,0.0095684178450758
613,0.00949454408254149
614,0.00929569264992203
615,0.00931309172136952
616,0.0092047095828745
617,0.00927270962802228
618,0.00921243529593649
619,0.00921082732315033
620,0.00915782424118219
621,0.00917440657326147
622,0.00896937413808217
623,0.00890956466676178
624,0.00882811965449882
625,0.00874667464223587
626,0.00866522962997291
627,0.00863421620624705
628,0.00857529590364328
629,0.0085305509576985
630,0.00859376873739326
631,0.00845457047501445
632,0.00846677781888259
633,0.00849413025494675
634,0.00847535686771833
635,0.00851794864470671
636,0.00841589730013897
637,0.00844906940667128
638,0.00833255804709029
639,0.00837566513101229
640,0.00827254012076796
641,0.00821964118766451
642,0.00813291441091442
643,0.00802492602311327
644,0.00791693763531213
645,0.00780894924751098
646,0.0078097663049609
647,0.00772988913494959
648,0.00752010902204156
649,0.00766332942122686
650,0.00755200275810411
651,0.00759256637748974
652,0.00747086051431266
653,0.00731401384021835
654,0.00715407403539956
655,0.0072089801263593
656,0.00712068992298671
657,0.0071767532927036
658,0.00722573460613324
659,0.00740510496768964
660,0.00741131862056389
661,0.00742747203706133
662,0.00744231296316952
663,0.0073423797043655
664,0.0072849511198204
665,0.00728660575654797
666,0.00725765633248161
667,0.00724149445683263
668,0.00721400216620338
669,0.00709029234211577
670,0.007056792381283
671,0.00701046588151187
672,0.00695371717637871
673,0.00697057648327082
674,0.00695158676867658
675,0.00692585500985361
676,0.00688069438730815
677,0.00691469525836185
678,0.00679902310155731
679,0.00678290120381643
680,0.00691791800765155
681,0.00680793364808665
682,0.00662875472292463
683,0.00647739148813133
684,0.00626376131374629
685,0.00607293880674232
686,0.00598151681421461
687,0.00588865882758294
688,0.00580396993391284
689,0.00586909247552764
690,0.00597650326452803
691,0.00612282383760536
692,0.00616200610721419
693,0.00623275839137248
694,0.00639887047362106
695,0.00646525029437544
696,0.00663412247311461
697,0.00668731522524729
698,0.00667727667613715
699,0.00674867994188594
700,0.00692970459959973
701,0.00694352584231544
702,0.00711711123763311
703,0.00721461554182467
704,0.00742235239447687
705,0.00749433134825974
706,0.00768679204086176
707,0.00781407182553838
708,0.00787596609956849
709,0.00802341850272844
710,0.00798813250697016
711,0.00805063159506436
712,0.00810462458066187
713,0.00779459542246683
714,0.00760358276652641
715,0.00722148896848083
716,0.00686374207635651
717,0.00663789341008232
718,0.00657860392605607
719,0.00665766886070253
720,0.00679127892759193
721,0.00675054742452437
722,0.00697727677721073
723,0.00694920573145756
724,0.00695897729953833
725,0.00699610586716132
726,0.00697417731564528
727,0.00714270288794926
728,0.00726438894837193
729,0.0074503261702586
730,0.00768719105427815
731,0.00800822629651033
732,0.00826973107967288
733,0.00856190996479422
734,0.00876010909955563
735,0.00885750619136244
736,0.00901305555689475
737,0.00910897060523463
738,0.00920488565357452
739,0.0093008007019144
740,0.0094777276893627
741,0.0095348774313711
742,0.00960125779445822
743,0.00966763815754534
744,0.00973401852063246
745,0.00977819050859031
746,0.00973748961827227
747,0.00979085140163007
748,0.00963672002097889
749,0.00968829646624294
750,0.00962017292926282
751,0.00956319227620471
752,0.00968461874261128
753,0.00949517688023534
754,0.00942552006207519
755,0.00878120519898277
756,0.00813689033589035
757,0.00749257547279793
758,0.00649030150672731
759,0.00561843621949376
760,0.00503046888381603
761,0.00486940612549954
762,0.00505689562227498
763,0.00541597627205751
764,0.00600031926959873
765,0.0064772291172118
766,0.00717017629647247
767,0.00774585786802114
768,0.00807616809381776
769,0.00837294040008827
770,0.00853673325440893
771,0.00856952300078787
772,0.00865861623932294
773,0.00872631765230509
774,0.00866417899805608
775,0.00864936297968655
776,0.00868325309974673
777,0.00851794273006172
778,0.0086050576431107
779,0.00847623810856197
780,0.00853026650525858
