"wavelength","measurement"
380,0.0440720730743083
381,0.0430259942211754
382,0.041942630342722
383,0.0418499210051686
384,0.0408962827524052
385,0.0422202546717608
386,0.0442806697921154
387,0.0462394053274754
388,0.0483457268622983
389,0.0487363704279197
390,0.0480755167438414
391,0.0475505838110106
392,0.0473515432846296
393,0.0468973969485043
394,0.0476776151380069
395,0.0501513904053007
396,0.055287665116202
397,0.0603237601537346
398,0.0653598551912672
399,0.0703959502287999
400,0.0743670154143165
401,0.0768569873873778
402,0.0788990009651234
403,0.0793030596410915
404,0.0789151026485778
405,0.0785799044651935
406,0.0787834643294072
407,0.0785762847170597
408,0.0787581202547081
409,0.0795716219812299
410,0.0824967310040023
411,0.082500444771953
412,0.0835948956208251
413,0.0852053068534567
414,0.084293283914044
415,0.0848247911125508
416,0.0828320637482282
417,0.0826491319105322
418,0.0829429927537581
419,0.0814906849956573
420,0.0828686948410885
421,0.0822924049036349
422,0.0828403894628845
423,0.0829381992870555
424,0.0830600765735332
425,0.0809213192205448
426,0.0805138066830773
427,0.0775415617800346
428,0.0756119556503706
429,0.0747428531246848
430,0.0748855552570317
431,0.0780035882086254
432,0.0806973585618772
433,0.0834232600980277
434,0.0859909416567222
435,0.0878549067070704
436,0.0882111896535828
437,0.0895879496830362
438,0.0909647097124896
439,0.0923414697419429
440,0.092427203997629
441,0.0944738315244579
442,0.0955133592088343
443,0.096513353823005
444,0.0979596283226797
445,0.0994059028223544
446,0.100852177322029
447,0.102500333832625
448,0.102435112585262
449,0.106332769571332
450,0.105604481347151
451,0.104707907575579
452,0.104462958815332
453,0.104218010055085
454,0.103973061294838
455,0.104152597681762
456,0.10375857427846
457,0.104782148077071
458,0.105787240613731
459,0.106834671640466
460,0.10693019815304
461,0.105738641715024
462,0.108748459252367
463,0.105562008659473
464,0.104613420302535
465,0.104041093014027
466,0.102080592119337
467,0.101945061743385
468,0.101360504132199
469,0.100027896047785
470,0.102375113903054
471,0.102291540067459
472,0.102886820127024
473,0.103532471333286
474,0.10373910691613
475,0.105612170538042
476,0.103541825713219
477,0.103585334543359
478,0.1036288433735
479,0.103672352203641
480,0.103116734611043
481,0.100785602196431
482,0.099313752394799
483,0.0984768451674368
484,0.0961141463332491
485,0.0937193745184293
486,0.0948207306472426
487,0.0953435869205855
488,0.0963669798606234
489,0.098368585942041
490,0.0995964163793357
491,0.100279381538783
492,0.102820901107406
493,0.101472544417656
494,0.103168889791439
495,0.101527321176408
496,0.10177437905723
497,0.100833438784312
498,0.100506907826237
499,0.0984413371980545
500,0.0988945131492774
501,0.0981113575804831
502,0.0994119485703001
503,0.100027851710564
504,0.0993077271679064
505,0.102277574329759
506,0.101804018545483
507,0.102186520520948
508,0.103011692630405
509,0.102877039623182
510,0.101518279826379
511,0.103121603435463
512,0.102712637842019
513,0.0995306249405248
514,0.0991358240251498
515,0.09735075522551
516,0.0967954177689919
517,0.0965804320319179
518,0.0966012140672208
519,0.0985782086293478
520,0.100681994625148
521,0.101818046876956
522,0.102954099128764
523,0.104090151380572
524,0.103749284656161
525,0.104316773940942
526,0.104782747582041
527,0.104290810844675
528,0.105049977021484
529,0.106461476683116
530,0.106306791291806
531,0.106835022412124
532,0.106516854643316
533,0.107700727588965
534,0.108132149505637
535,0.106941074287472
536,0.107855119680278
537,0.1073327825766
538,0.10666386756383
539,0.105716141728805
540,0.106236898035783
541,0.10546779309081
542,0.105120645055398
543,0.105604218301513
544,0.106349155456632
545,0.105590176700674
546,0.106523745362566
547,0.106460957737011
548,0.106398170111456
549,0.106335382485901
550,0.105807925758527
551,0.106846936118856
552,0.107710737121861
553,0.107042987459348
554,0.10646985916168
555,0.107743039221145
556,0.105865164010556
557,0.106139995395318
558,0.105041433435102
559,0.104302639899877
560,0.105850001691777
561,0.103634228000587
562,0.105694429984051
563,0.104050001205184
564,0.104637336755063
565,0.103084802668754
566,0.102407669795921
567,0.101298161840264
568,0.101612457282993
569,0.100313311741804
570,0.100147761067445
571,0.10026569120494
572,0.099827163359905
573,0.100034773541819
574,0.100845471401163
575,0.0993691307156348
576,0.0997537536778826
577,0.10013837664013
578,0.100522999602378
579,0.100907622564626
580,0.101292245526874
581,0.102667542141717
582,0.102114248540087
583,0.102422767687799
584,0.100678557640933
585,0.0996447710971571
586,0.0968390772702348
587,0.0945609335996427
588,0.0931507521962381
589,0.0917405707928334
590,0.0903303893894288
591,0.0909042047972707
592,0.0919235997129836
593,0.0922997093626768
594,0.0939198635865041
595,0.0941122538403321
596,0.0949894481851237
597,0.0957733510513842
598,0.0961463090835982
599,0.096901329644922
600,0.0980344459680871
601,0.0984509540253133
602,0.099512122799822
603,0.098980681338559
604,0.0997975388315855
605,0.0994646171734395
606,0.0995305482918678
607,0.099483829314311
608,0.0977229784732525
609,0.0980877007251637
610,0.0970118949635687
611,0.0966677640475989
612,0.0957543619201137
613,0.095359775410925
614,0.0937885141623982
615,0.095298665182319
616,0.0942302698073336
617,0.0948531558165735
618,0.0949500781480266
619,0.0953896744094652
620,0.0950737401747884
621,0.0956141908800577
622,0.0936536320133172
623,0.0933487014635294
624,0.0924692355078977
625,0.091589769552266
626,0.0907103035966343
627,0.0908902385116461
628,0.0904969240577876
629,0.0899634810735313
630,0.0910230024247461
631,0.0899101462086324
632,0.0905267831542773
633,0.0914169786045964
634,0.091861849025572
635,0.0923191986714573
636,0.0912405027117971
637,0.0926258764204189
638,0.0921436955749743
639,0.0925846969296949
640,0.0920968202385226
641,0.0915334799906526
642,0.0909253570351784
643,0.0901247179557512
644,0.089324078876324
645,0.0885234397968968
646,0.0880535169653433
647,0.0878774686068182
648,0.0861020314539801
649,0.0876151998118176
650,0.0869604931117041
651,0.0880458451177046
652,0.086951096401582
653,0.0854797401573173
654,0.083743749654798
655,0.0853133921022261
656,0.0845541668589011
657,0.0854509686656098
658,0.0867530945870509
659,0.0890783214939256
660,0.0899508921419418
661,0.0905057126200036
662,0.0911743817238003
663,0.0905667562920188
664,0.0901124287494099
665,0.090738130380503
666,0.0909991382100834
667,0.0909875398289814
668,0.0911982630036046
669,0.089592501579119
670,0.0895183371895402
671,0.0897609213907491
672,0.0894405703398409
673,0.0894775863307215
674,0.0901105903506457
675,0.0898848451379889
676,0.0897986001587608
677,0.0904765175424707
678,0.0892452611011477
679,0.0892348525941719
680,0.0912205237606146
681,0.0896413520384209
682,0.0879304471031907
683,0.0856885631305901
684,0.0826863280036002
685,0.080041704519584
686,0.0779930873780319
687,0.0760848512606535
688,0.0755262458970402
689,0.0752936653422722
690,0.077129541889028
691,0.0786056430219904
692,0.0793555993042336
693,0.0803450303268084
694,0.0811597708215948
695,0.0819550948593964
696,0.0839494289228208
697,0.084700466822208
698,0.0837712816919741
699,0.0842359901867624
700,0.0860724409582506
701,0.0859837307027295
702,0.087928999849761
703,0.0892409582433237
704,0.0913996242511415
705,0.0926601444583295
706,0.0939998895390011
707,0.0960063228719256
708,0.0970276883058556
709,0.0989146863076112
710,0.0986653768971869
711,0.0992222949730248
712,0.0993060458006373
713,0.0955156374039082
714,0.0925737270595831
715,0.0874149946942052
716,0.0828202579609278
717,0.079630148972747
718,0.0789755380107232
719,0.0799214579744423
720,0.0819870984299948
721,0.0816628247518805
722,0.0849387875622122
723,0.0847888783467077
724,0.084954941202441
725,0.0852303934757299
726,0.0859611564766936
727,0.0880280787346557
728,0.0902591255608519
729,0.0937823977188063
730,0.0975415556903813
731,0.10264057304007
732,0.107157678238794
733,0.111636672155471
734,0.114939669942107
735,0.117486168993763
736,0.120571554857801
737,0.122704995170522
738,0.124838435483244
739,0.126971875795965
740,0.130516685394842
741,0.132361001448017
742,0.134071964540086
743,0.135782927632154
744,0.137493890724223
745,0.138653678297166
746,0.138921141051182
747,0.140574467994193
748,0.139626303376856
749,0.140684636659687
750,0.140344709603845
751,0.14096706853131
752,0.143185597058649
753,0.141851302427467
754,0.140172367373528
755,0.130542831343863
756,0.120913295314199
757,0.111283759284534
758,0.0964064371443985
759,0.0820694607831018
760,0.0724095449525221
761,0.0702059196310611
762,0.0725046561429475
763,0.0793399028066839
764,0.0886470952598198
765,0.0983286563654515
766,0.109490918477665
767,0.120965334958443
768,0.127502964739726
769,0.131989751973854
770,0.136713574852245
771,0.13721240068582
772,0.140167932301244
773,0.141595704564172
774,0.140960661974298
775,0.142015529325175
776,0.142283019089568
777,0.141059434924711
778,0.142407394682986
779,0.141393378244335
780,0.142913280748964
