"wavelength","measurement"
380,0.00262879583813731
381,0.00256650220605579
382,0.00266913365883712
383,0.00267377799565782
384,0.00271844897882555
385,0.0029338000393303
386,0.00315967995830651
387,0.00326344663516883
388,0.00356685092297627
389,0.00370074220988127
390,0.00371621437444724
391,0.00369457369528693
392,0.00379199039837373
393,0.00392912986539478
394,0.00407468496277433
395,0.00429980417063868
396,0.00489533680690687
397,0.0054704766290116
398,0.00604561645111633
399,0.00662075627322106
400,0.00706207739474906
401,0.00756645369575986
402,0.00792965731682692
403,0.00808873541575311
404,0.00822404924590328
405,0.00829359206043829
406,0.00853170738107543
407,0.00872361192762305
408,0.00892028687474624
409,0.00915929331430044
410,0.00963346070830782
411,0.00979769956678004
412,0.0100950769813298
413,0.0104211985659882
414,0.010528572404957
415,0.0106678393309933
416,0.0107035209827094
417,0.0106877610966128
418,0.0108397088703206
419,0.0107712980820491
420,0.0110181172547668
421,0.0110374020179057
422,0.0111765520326272
423,0.0113549344800095
424,0.0113969948374255
425,0.0113748330282044
426,0.0112232134603469
427,0.0109974624732876
428,0.0107110070098649
429,0.0106824369119041
430,0.0107663633855981
431,0.0111729373101036
432,0.0116335115031526
433,0.0120316089963604
434,0.0126152747555301
435,0.0129084172013567
436,0.0131378737250226
437,0.013389199868836
438,0.0136405260126493
439,0.0138918521564626
440,0.0140110383917414
441,0.0143430540839529
442,0.01473588840578
443,0.0149013903779756
444,0.0152224072535585
445,0.0155434241291413
446,0.0158644410047241
447,0.0161721377128259
448,0.0163637039376185
449,0.0170883724725809
450,0.0170017229967506
451,0.0169993320822802
452,0.0170181611479289
453,0.0170369902135777
454,0.0170558192792264
455,0.0171389771090485
456,0.0171809624073811
457,0.017466468019027
458,0.0176005171082682
459,0.0179155911278458
460,0.0180680636654828
461,0.0178938238388766
462,0.018487938395611
463,0.0180550629188717
464,0.0179021036386742
465,0.0177820249611162
466,0.0176243027827248
467,0.0176455762222703
468,0.0175038803098276
469,0.017470021617108
470,0.0178747232446652
471,0.0178972315356007
472,0.0180596494444489
473,0.018300853562334
474,0.0184026469065232
475,0.0187094501020079
476,0.0183315959633095
477,0.0184027532158226
478,0.0184739104683357
479,0.0185450677208488
480,0.0185454435942519
481,0.0181047029028755
482,0.0178562995421189
483,0.0178301185775427
484,0.0174046406880311
485,0.017043257512786
486,0.0172361213069387
487,0.0174020630485022
488,0.0176229232792533
489,0.0181482982391253
490,0.0183709131298454
491,0.0185301456540618
492,0.0190052354440208
493,0.0188474616318039
494,0.0191702776612335
495,0.0189846815894051
496,0.0191075884346135
497,0.0187878458325786
498,0.0189546449447676
499,0.0185572124477204
500,0.0187047262824124
501,0.0184919005838227
502,0.018824485771904
503,0.0189535051514451
504,0.0187443408647731
505,0.0194294253086795
506,0.0193800533487253
507,0.0195523809301718
508,0.0197063650064008
509,0.019748509384043
510,0.0194429249950152
511,0.0198737634004431
512,0.0196917991138642
513,0.0191818593900386
514,0.0191251124324659
515,0.0188303462658688
516,0.0187460976432719
517,0.018746351242598
518,0.0187099270315754
519,0.0190639090053679
520,0.0195045286784685
521,0.0197553132048718
522,0.020006097731275
523,0.0202568822576782
524,0.0201302672327236
525,0.0202039378296418
526,0.0203054909898161
527,0.0201704111796059
528,0.0203662523790847
529,0.0206455308741219
530,0.0206924478965078
531,0.0207142882351533
532,0.0207058304996442
533,0.0208911711240766
534,0.0209592538187529
535,0.0207503407702225
536,0.0209388334112019
537,0.0208563851791007
538,0.0206896830260737
539,0.0205220790428523
540,0.0206397361232776
541,0.0205037321658249
542,0.0203897891374545
543,0.0205157004624288
544,0.0206251878571495
545,0.0204849026598115
546,0.0206524060864258
547,0.0206347459819953
548,0.0206170858775648
549,0.0205994257731344
550,0.0205503343138276
551,0.0206859131103792
552,0.0208768190709545
553,0.020680785580438
554,0.0206394162077922
555,0.02082414330359
556,0.02058285915625
557,0.0205189554382664
558,0.0203805226828753
559,0.0202423143284566
560,0.0204889827173675
561,0.0201088825047751
562,0.0204813928491374
563,0.0201775084689956
564,0.0202417425243839
565,0.0199512170298377
566,0.0198367593115129
567,0.0195574238521891
568,0.0196748212256884
569,0.019368932385385
570,0.0193463669340572
571,0.0194020373983139
572,0.0193997133417278
573,0.0193740135035646
574,0.0195094281517415
575,0.0192562580866539
576,0.0193225241292569
577,0.0193887901718598
578,0.0194550562144628
579,0.0195213222570658
580,0.0195875882996688
581,0.0197853633187788
582,0.0196752834047831
583,0.0197772982222628
584,0.0193767112282466
585,0.0192216885569258
586,0.0185363662343899
587,0.0180908457508852
588,0.0177590659780012
589,0.0174272862051172
590,0.0170955064322332
591,0.0171795165904019
592,0.0173280370843148
593,0.0173878417866968
594,0.017715089091319
595,0.01766150885457
596,0.0178807383475666
597,0.0180809822462581
598,0.0181439323699239
599,0.0182446122752934
600,0.0184357259551653
601,0.0186274049645454
602,0.0187389472152602
603,0.0186313397403027
604,0.0188301868255614
605,0.0187185336502384
606,0.0187349635303295
607,0.0186359957965144
608,0.0183611970573082
609,0.0183565101747657
610,0.0181579102473896
611,0.018049585659393
612,0.0178728433006522
613,0.0177474042600287
614,0.0175384019014875
615,0.01771374154449
616,0.0174896077301379
617,0.0176460455425005
618,0.0175644260609287
619,0.0176077095803092
620,0.0175300687340937
621,0.0175988313763016
622,0.0172165214486326
623,0.0171738292309313
624,0.0169842494601675
625,0.0167946696894037
626,0.0166050899186398
627,0.0165398806106976
628,0.0164323946676335
629,0.0163779567204604
630,0.0164545677966342
631,0.0162957695675307
632,0.0163463322432957
633,0.0164040359729524
634,0.0164462374131113
635,0.0164916381383844
636,0.0163623873778249
637,0.016444105890423
638,0.0163342185567041
639,0.0163746836100881
640,0.0162660977443392
641,0.01615475366056
642,0.0160025324427337
643,0.0157788283292678
644,0.0155551242158018
645,0.0153314201023359
646,0.0152963145390253
647,0.0151719857187596
648,0.0148602295592271
649,0.015083361874147
650,0.0148868920187539
651,0.0150295650896088
652,0.0148975544180025
653,0.0146049976808848
654,0.0143200006962114
655,0.0144408655591744
656,0.0143251913450217
657,0.0144446851070565
658,0.0145951981022136
659,0.0150016870338126
660,0.0151592374620942
661,0.015197329112438
662,0.0152820022614875
663,0.0151815946752529
664,0.0150360807324295
665,0.015065426797562
666,0.0150745881375788
667,0.0150706419388762
668,0.0150247066993646
669,0.0147665285604685
670,0.0147503469862315
671,0.0146790816315327
672,0.0145972557354531
673,0.0146127756436165
674,0.0146184593973119
675,0.0145494418580347
676,0.014476280515376
677,0.0145396785369837
678,0.0143358975851256
679,0.0142855428508327
680,0.0145593369851184
681,0.0142755767777229
682,0.0138743021723274
683,0.0135859699100568
684,0.0130296647069
685,0.0125482107465866
686,0.0121770204531599
687,0.0118069577372689
688,0.0116442380026181
689,0.0116004377021799
690,0.0116999579670351
691,0.0118723107112415
692,0.0117953016862506
693,0.0118602989937491
694,0.0120916840502953
695,0.0120870354566405
696,0.012314004751575
697,0.0123056075323615
698,0.0121283940010285
699,0.0121175865935054
700,0.012315025111991
701,0.0122627734045677
702,0.012452204070799
703,0.0125226649695684
704,0.0127965091079114
705,0.0128308366585097
706,0.0130887779209405
707,0.0132361667491831
708,0.0132889742295882
709,0.013444826157094
710,0.0133147660481155
711,0.0133161946151061
712,0.0133098374551281
713,0.0126186408007738
714,0.0121443808524866
715,0.0112904580944422
716,0.0104887336205018
717,0.0099546052388581
718,0.00981341726138257
719,0.00974405649702692
720,0.00989971918944812
721,0.00985258922111171
722,0.010128111953425
723,0.0100083976884496
724,0.00993169117034874
725,0.00990941602016169
726,0.00984964059667353
727,0.0100113291109302
728,0.0101840270360111
729,0.0104762962851436
730,0.0108979156185229
731,0.0113481592804876
732,0.0117915464207468
733,0.0122169472730242
734,0.0125711788065064
735,0.0127542893135252
736,0.0130147830101766
737,0.0131635250637624
738,0.0133122671173481
739,0.0134610091709339
740,0.013773832846573
741,0.0138662778085501
742,0.0139668119470252
743,0.0140673460855003
744,0.0141678802239754
745,0.0142439689790606
746,0.0141878863541596
747,0.0142174542044425
748,0.0140285445435848
749,0.0140324537856624
750,0.0140467049937095
751,0.0138590440672939
752,0.0140548752239267
753,0.0137742596013946
754,0.013649970536649
755,0.0127058605551469
756,0.0117617505736448
757,0.0108176405921427
758,0.00928653434349413
759,0.00791954271442463
760,0.00692531866911086
761,0.00662675736068029
762,0.00686145570232625
763,0.00741137971270826
764,0.00826227016476979
765,0.00909793573401321
766,0.0101001545789648
767,0.0110881080427213
768,0.0116734937209405
769,0.0119871094990997
770,0.0122667013608826
771,0.0123853347313685
772,0.0125758881268237
773,0.0127304595396567
774,0.0125909681813641
775,0.0125165832358228
776,0.0125683636802753
777,0.0123926818403402
778,0.0125627738814333
779,0.0123089366474123
780,0.012469383923435
