"wavelength","measurement"
380,0.0124059671907517
381,0.0119584093085234
382,0.0116180359827448
383,0.0114220423664927
384,0.0111437890345583
385,0.0116522303970286
386,0.0121416516980488
387,0.0125725318956443
388,0.0129609281552053
389,0.0132107543096954
390,0.0131974968748454
391,0.013040667808698
392,0.0129440813762292
393,0.0128697721134004
394,0.0129983431594792
395,0.0134425648930172
396,0.0148739483184125
397,0.0162158342471466
398,0.0175577201758807
399,0.0188996061046148
400,0.0196905156875645
401,0.0206548499111331
402,0.0213054394961356
403,0.0214309453521676
404,0.0213107633213573
405,0.0212773563786757
406,0.0212349951377506
407,0.0212020503109522
408,0.0210863614021194
409,0.0211734939437534
410,0.0220809720166569
411,0.0219302825580426
412,0.0223407087005078
413,0.0226473446368352
414,0.0225279622789263
415,0.0225742371417161
416,0.0224441858665364
417,0.0221187171598222
418,0.0221630595837812
419,0.0216138879240223
420,0.0221301213768392
421,0.0218835096518195
422,0.0219342897115876
423,0.0221941935435724
424,0.0223733280656462
425,0.0216927638391183
426,0.0216586020415014
427,0.0209628273459906
428,0.0201578537805522
429,0.0200122854144617
430,0.0199522705295293
431,0.0208002816102251
432,0.0213077836923255
433,0.0219030673453265
434,0.022816589435782
435,0.0233615515017722
436,0.0235966179994599
437,0.02391886478211
438,0.0242411115647601
439,0.0245633583474102
440,0.0246170042678077
441,0.0250146661747763
442,0.0255732174329308
443,0.0257816735709308
444,0.0262130054026047
445,0.0266443372342786
446,0.0270756690659525
447,0.0274452535672092
448,0.0275834674629279
449,0.028563458951277
450,0.028419685849777
451,0.0283591949897172
452,0.0282711497492899
453,0.0281831045088626
454,0.0280950592684353
455,0.0282702510717999
456,0.028171024511189
457,0.0284264125175385
458,0.0286128254275497
459,0.0289657057376232
460,0.0291473530572729
461,0.0287934679546412
462,0.0296567142457185
463,0.0286929318284919
464,0.0285746163418728
465,0.0282568322754524
466,0.0279016267568078
467,0.0276915318635353
468,0.0274593397552002
469,0.0271489112923532
470,0.0278343758101542
471,0.027789287467654
472,0.027927759513049
473,0.0281852038632762
474,0.028297586307491
475,0.0287838733206331
476,0.0280258442724573
477,0.028074775368598
478,0.0281237064647387
479,0.0281726375608794
480,0.0281513781759007
481,0.0273815061047304
482,0.0269736882543096
483,0.0269027577674947
484,0.0262348978347504
485,0.0256363232974005
486,0.025837965521723
487,0.0259688439810381
488,0.0263058827261084
489,0.0269455326012643
490,0.0271466202656316
491,0.0275010412693435
492,0.0281901845410312
493,0.0278334957274658
494,0.0283565456079482
495,0.0280306947341659
496,0.0282126017829289
497,0.0276830154764425
498,0.0278909633639323
499,0.0272995818312523
500,0.0275273745973863
501,0.0273958401245927
502,0.027786739787114
503,0.0279875227355687
504,0.0277223821962224
505,0.0288256512498224
506,0.0286880356549143
507,0.0290936276702163
508,0.0293330121077754
509,0.0294607489507447
510,0.0291634975860969
511,0.0298168979861337
512,0.0298412630029135
513,0.029166802155333
514,0.0290725790909038
515,0.0287188207354286
516,0.0287289150464939
517,0.0288092384734979
518,0.0289382194189968
519,0.0295953358864462
520,0.0305138240239195
521,0.0310936534991728
522,0.0316734829744261
523,0.0322533124496794
524,0.0322065574800626
525,0.0324895257038009
526,0.0327130380815676
527,0.0327226428336475
528,0.0331368670452983
529,0.0336946275996347
530,0.0338788828712945
531,0.0341113819876089
532,0.0340721368073288
533,0.0344882716163466
534,0.0347873040321606
535,0.0344245756305683
536,0.0349535614363269
537,0.0347663540070093
538,0.034598052014449
539,0.0344045412524375
540,0.0346903154273647
541,0.0344008564766449
542,0.0342710948478264
543,0.0344804927813854
544,0.0348508339195285
545,0.0346054999473635
546,0.0349636123220564
547,0.0350171688392023
548,0.0350707253563481
549,0.0351242818734939
550,0.0351052293632765
551,0.0353269641505524
552,0.0356846800289746
553,0.0355138491912755
554,0.0354463566026838
555,0.0357872116609834
556,0.0352159164946638
557,0.0352062673608535
558,0.0350348850926339
559,0.0347346174919962
560,0.0350494640235966
561,0.0344370691465069
562,0.0350161894084457
563,0.0346025742970087
564,0.0346102492130754
565,0.0340747608422535
566,0.0338042397890778
567,0.0333009281521654
568,0.0335071347514026
569,0.032894978551138
570,0.0327308655785658
571,0.0327832032701334
572,0.0327307774398971
573,0.0325398506039556
574,0.0328688038526459
575,0.0323620896395589
576,0.0324237721507083
577,0.0324854546618578
578,0.0325471371730072
579,0.0326088196841567
580,0.0326705021953061
581,0.0331082339530943
582,0.0328253728746487
583,0.0329760107100717
584,0.0323626284673367
585,0.032099736663568
586,0.0309860676420421
587,0.0301954075623118
588,0.0296926038365607
589,0.0291898001108095
590,0.0286869963850584
591,0.0288287892898461
592,0.0290677285190679
593,0.0291975445396035
594,0.0297963152628022
595,0.0297995151200104
596,0.03016436900197
597,0.0304871668189712
598,0.0307010109971925
599,0.0307786934855529
600,0.0312312862608403
601,0.0314901998033301
602,0.031862137182768
603,0.0316612565671554
604,0.0319499084805263
605,0.0318560591036648
606,0.0318993765366476
607,0.0317289883318207
608,0.0313212393635754
609,0.0312425121902471
610,0.0310116267843488
611,0.0308860641008961
612,0.0305007369821767
613,0.0303700247535033
614,0.0300116937480425
615,0.0303309656496654
616,0.0299302896278418
617,0.0302427036266077
618,0.0300374554443271
619,0.0301629771517989
620,0.0301366690863739
621,0.0303853005125372
622,0.0297271477431305
623,0.0298211156774458
624,0.0295432990333442
625,0.0292654823892426
626,0.028987665745141
627,0.0288594378521344
628,0.0287948549078265
629,0.0287606948712996
630,0.0289738683575628
631,0.0286305863655598
632,0.0288524449922174
633,0.0290315903990069
634,0.0292660297448513
635,0.0293364506994946
636,0.0290680098345756
637,0.0293368127246132
638,0.0291257047709929
639,0.0291965511550946
640,0.0290627058836027
641,0.0289069220723491
642,0.0285572685469045
643,0.0281686582125156
644,0.0277800478781266
645,0.0273914375437377
646,0.0273213604323236
647,0.0271421214781694
648,0.0265857651475081
649,0.0269436305937475
650,0.0267199366163072
651,0.0270849002264441
652,0.0267570509923915
653,0.0263473463355462
654,0.0259187393699853
655,0.0262514139309451
656,0.0259864608032764
657,0.026259267585238
658,0.0265818778368317
659,0.0273367025558764
660,0.0275880501479929
661,0.0276561326612065
662,0.0278047101374937
663,0.0276523225424362
664,0.027385516992713
665,0.0274467968751833
666,0.0274234196990649
667,0.0275732604852075
668,0.0274660593354239
669,0.0269789721463179
670,0.0271224182226725
671,0.0270462279732081
672,0.0269118065028305
673,0.0270564819814175
674,0.027122988149573
675,0.0271115033708835
676,0.0271524944781119
677,0.0273894223435907
678,0.0270021459046048
679,0.0271284774991118
680,0.0277197028243779
681,0.0273128685509947
682,0.0269435232517512
683,0.0266042149125236
684,0.0258359590642035
685,0.0252546583888104
686,0.0247551530381914
687,0.0243902201954916
688,0.0243808858401927
689,0.0248636152306699
690,0.0252905797716518
691,0.0261804276289452
692,0.0266147436187751
693,0.027359691877228
694,0.0283505524815613
695,0.028988266033713
696,0.0300326470014052
697,0.0309122688502299
698,0.0311799416954339
699,0.0319131856721922
700,0.0331756879003679
701,0.0337081057068065
702,0.0350839871093163
703,0.0360860882534389
704,0.0375433240216686
705,0.0384026619044167
706,0.0399772806580125
707,0.0411559456995475
708,0.0422542732201851
709,0.043572290337522
710,0.0441941570081393
711,0.0448129085012002
712,0.04550663403159
713,0.0442860222316753
714,0.0435569785810193
715,0.0413446432011575
716,0.0393974139351818
717,0.0382534071283182
718,0.0382864814251594
719,0.0390867209882546
720,0.0402660754432368
721,0.0407414487629294
722,0.0425362092720772
723,0.0428138763534855
724,0.0432236695884262
725,0.043732449313266
726,0.0441515980761773
727,0.0456635445402938
728,0.0470259119920578
729,0.0491076026127817
730,0.0512594911127244
731,0.0542017466673045
732,0.0568141212940004
733,0.0596224326070947
734,0.0620429546299617
735,0.0634788695649468
736,0.0651682879161156
737,0.066586589013138
738,0.0680048901101603
739,0.0694231912071827
740,0.0715494078845968
741,0.0727157885959101
742,0.0738877222992453
743,0.0750596560025805
744,0.0762315897059157
745,0.0769971045844527
746,0.0773772367581066
747,0.0781934160386342
748,0.0776123467398033
749,0.0783178525506765
750,0.0786098824283982
751,0.0785001992926905
752,0.0798672173056677
753,0.0794156124344375
754,0.078891519942107
755,0.0738476512469264
756,0.0688037825517458
757,0.0637599138565652
758,0.0552921540017138
759,0.0475889842540351
760,0.042004625966741
761,0.0406071356504657
762,0.04212372548123
763,0.0454586316425852
764,0.0505814843174047
765,0.0559597817389591
766,0.0622436187857432
767,0.0687325007008215
768,0.0722589096965389
769,0.0750736648041129
770,0.077418902246496
771,0.0784721492341008
772,0.0799524819303879
773,0.0806821986727448
774,0.0805532727809992
775,0.0809359738977366
776,0.0811334079069996
777,0.0805214291820601
778,0.0816089522148467
779,0.0806858382097186
780,0.0819488770138765
