"wavelength","measurement"
380,0.000419675057291004
381,0.000472727311532422
382,0.000485889223844279
383,0.000481392768068332
384,0.000479266852587767
385,0.000532097273510907
386,0.000533941496800196
387,0.000612769044107364
388,0.000646618876726747
389,0.000705780764480042
390,0.000694431433306601
391,0.000718329418281755
392,0.000721068122629899
393,0.000769412403504347
394,0.000834575108320551
395,0.000871195154193681
396,0.00100127234386804
397,0.00114522019388833
398,0.00128916804390863
399,0.00143311589392893
400,0.00157154755986221
401,0.00173689818917775
402,0.00185006395882532
403,0.00196383201859912
404,0.00202978367256241
405,0.00207320925588666
406,0.0022237215559153
407,0.00234184662560202
408,0.00243714795206287
409,0.00257197120513803
410,0.00276239592885219
411,0.0028864613981064
412,0.00302696769860725
413,0.0031690739561693
414,0.0032441249032938
415,0.00333170733983127
416,0.00337711502723502
417,0.00340485720858857
418,0.00351378080326824
419,0.00345219444119413
420,0.00360829374381559
421,0.00364784709530821
422,0.00373579248976352
423,0.00375871790003433
424,0.00384924073702721
425,0.00381973564288259
426,0.00384133820657355
427,0.00373907456444361
428,0.00364571872544495
429,0.00366204532090891
430,0.00371980166184615
431,0.0038530193417773
432,0.00401205697328071
433,0.00419376726651736
434,0.00438411865568693
435,0.00451926268871178
436,0.00457906105796516
437,0.00468249515483298
438,0.00478592925170079
439,0.00488936334856861
440,0.00494596583000807
441,0.00503461077583313
442,0.00517833501847347
443,0.00527156466513573
444,0.00538911609878873
445,0.00550666753244173
446,0.00562421896609473
447,0.00578240429283365
448,0.00583787793979761
449,0.00608428518984162
450,0.00606026215906789
451,0.00607280258802351
452,0.00609626154981225
453,0.00611972051160098
454,0.00614317947338971
455,0.00618210195917761
456,0.00617189979569089
457,0.00632953255640672
458,0.00637253016474722
459,0.0065330228585206
460,0.00655980904241763
461,0.00652273084447872
462,0.00671709181588901
463,0.00659327435984759
464,0.00657610460876687
465,0.00652210974659264
466,0.00648619711002548
467,0.00646869148109196
468,0.0064503298362655
469,0.00645203843883635
470,0.00659112934832063
471,0.00660726328780226
472,0.00668946776092102
473,0.0067898554778705
474,0.0068389205879581
475,0.00697077399872193
476,0.00685781352801071
477,0.00687952955607842
478,0.00690124558414612
479,0.00692296161221383
480,0.00694836970067965
481,0.00678263475567189
482,0.00667012845373551
483,0.00666252737518069
484,0.00653860933465907
485,0.00642498579376396
486,0.00649921181922447
487,0.00656779151682271
488,0.00664124893341874
489,0.00686755450432767
490,0.00694459778314582
491,0.00699155519642853
492,0.00721679923915894
493,0.00714995364958449
494,0.00729782366322044
495,0.00721215085369921
496,0.00726414138531896
497,0.00716156741777826
498,0.00723248969489174
499,0.00710257462453687
500,0.00715437165482128
501,0.00710475358954054
502,0.00726525521311038
503,0.00731021619626818
504,0.00727479405488907
505,0.00755144503508249
506,0.00752666736282591
507,0.0075883594592754
508,0.00766679416698227
509,0.00768817424452252
510,0.00760277843645071
511,0.00775047299836196
512,0.00770158521306364
513,0.00752473187867558
514,0.0075194146009608
515,0.00741660666555339
516,0.0073983451484578
517,0.00741866742638219
518,0.0074083004315472
519,0.00757375459756465
520,0.00776476583500742
521,0.00788677575016165
522,0.00800878566531588
523,0.00813079558047011
524,0.00807378862592157
525,0.0081544892660706
526,0.00820333453239
527,0.00816238132064701
528,0.00827773220502493
529,0.00839334190775518
530,0.00843529922259517
531,0.00844568029213661
532,0.00844218965964603
533,0.00854999712367612
534,0.00860385646415025
535,0.00852106342310724
536,0.00861662533494667
537,0.00857841882183038
538,0.00854162494031432
539,0.0084865719304916
540,0.00854132863195312
541,0.00850938915570463
542,0.00848442758954099
543,0.00852189199436447
544,0.00858165021187939
545,0.00852753604395044
546,0.00860614761959638
547,0.00861430272905183
548,0.00862245783850728
549,0.00863061294796272
550,0.0086001027042346
551,0.00865751340242099
552,0.00874565428744633
553,0.00866658153903361
554,0.0086342299439547
555,0.00872482693078144
556,0.00862783648465197
557,0.00862513435510996
558,0.00855574749979847
559,0.00852207144575851
560,0.00863606158415569
561,0.00847611755212109
562,0.00861734481521883
563,0.00848638272264093
564,0.00853915342738418
565,0.00840923620308244
566,0.00838735346545418
567,0.00828695358203533
568,0.00832389283098689
569,0.00821235575089401
570,0.00819971544425258
571,0.00823674770183116
572,0.00822622000742055
573,0.00822715471786333
574,0.00828240874646335
575,0.00819344045249486
576,0.00821394188541855
577,0.00823444331834224
578,0.00825494475126594
579,0.00827544618418963
580,0.00829594761711332
581,0.00837722658105018
582,0.00832755784855815
583,0.00836686720536566
584,0.0081968762195397
585,0.00815368678615002
586,0.00788486157853442
587,0.00771703831827289
588,0.00760770947016112
589,0.00749838062204935
590,0.00738905177393758
591,0.00741437368917865
592,0.00748506536269194
593,0.00749772924443249
594,0.00761742074155719
595,0.00763120025588067
596,0.0076924888431435
597,0.00776032625882129
598,0.00780957176745584
599,0.00780820127676303
600,0.00787873541351353
601,0.00794579114374897
602,0.00799230113056775
603,0.00793954023102205
604,0.00802682398871543
605,0.00797964224790594
606,0.00797757516343701
607,0.00792854222070884
608,0.00783781131157641
609,0.00781694280387486
610,0.00776545142203295
611,0.00771703085446823
612,0.00764517858222742
613,0.00758806759273832
614,0.0074856253819612
615,0.00757226930954693
616,0.00748557181219674
617,0.00754962656599694
618,0.00753739451319154
619,0.00755900133346247
620,0.00750964196922359
621,0.0075521890287088
622,0.00741390247095485
623,0.00738991441154051
624,0.0073267326985518
625,0.00726355098556309
626,0.00720036927257438
627,0.00717290427126845
628,0.007150443366112
629,0.0071153254463349
630,0.00718171932480274
631,0.00707575114457807
632,0.00711410191803973
633,0.0071459841013825
634,0.00714554325312251
635,0.00716567699236877
636,0.00711844452515979
637,0.00714116199579511
638,0.00708507392794906
639,0.00711979904933333
640,0.00706847168309721
641,0.00703000681217844
642,0.00697583252575986
643,0.00688923352445888
644,0.0068026345231579
645,0.00671603552185692
646,0.00669923014616632
647,0.00667008399956095
648,0.00651946878474658
649,0.00664834202772835
650,0.00656210678500504
651,0.00661504804351623
652,0.00653213913047541
653,0.00640107827217446
654,0.00631014067339874
655,0.00635394468122988
656,0.0063010872938579
657,0.00636092786361408
658,0.00641886450444353
659,0.00660463218027835
660,0.00664570977171829
661,0.00665966363681241
662,0.00667673841307314
663,0.0066389752164708
664,0.006569357373547
665,0.00659665157349192
666,0.00659969443438138
667,0.00660301703264167
668,0.0065860498806096
669,0.00647494545108135
670,0.00647323872444501
671,0.00642099345967975
672,0.00641830555232831
673,0.00642909992887526
674,0.00643194417914383
675,0.00641142854593814
676,0.00637434674894338
677,0.00641571905122846
678,0.00633151655177589
679,0.00628146307857793
680,0.00643510958015393
681,0.00634043064426183
682,0.00616035975265242
683,0.00604831831613193
684,0.00583506941438849
685,0.00567288157809665
686,0.00553371701399567
687,0.00544812566715667
688,0.00536742371876919
689,0.00537948587189557
690,0.00546163989269488
691,0.00555727022947524
692,0.00555236690809172
693,0.00560286599013549
694,0.00570968465415532
695,0.00571977438777662
696,0.00584724498446808
697,0.00587486297197638
698,0.00580519560086114
699,0.00586173455930065
700,0.00597885310332088
701,0.00597940067690194
702,0.00607336695172457
703,0.00615599014381935
704,0.00631425897882222
705,0.00630667013938776
706,0.0064672265037401
707,0.00657083027130077
708,0.00658834705042212
709,0.00665147427337636
710,0.00663530731812049
711,0.00669104004146181
712,0.00667040152848923
713,0.00639317601513249
714,0.00618061898313832
715,0.00582872016169601
716,0.00548038476465544
717,0.00527634768846051
718,0.00520706939639663
719,0.00523689107273711
720,0.00531039335259089
721,0.00525049645663042
722,0.0054084834537713
723,0.0053827461348756
724,0.00537333710393426
725,0.00536237085569188
726,0.00534402008268957
727,0.00542419179242771
728,0.00551000410288559
729,0.00563596838481571
730,0.00583297077905834
731,0.00606431319492986
732,0.00624204948673195
733,0.00647101994438666
734,0.00664406653691589
735,0.00671701312181795
736,0.00680527732720866
737,0.0068707601164529
738,0.00693624290569713
739,0.00700172569494137
740,0.00717487984989647
741,0.00718915868722483
742,0.00723281911172587
743,0.00727647953622692
744,0.00732013996072796
745,0.00731102525136515
746,0.00732372897549677
747,0.007330540417546
748,0.00721675262064832
749,0.00728020676369589
750,0.00723206656352521
751,0.00717313902901358
752,0.00722843192884818
753,0.00709899077315409
754,0.00704733172939655
755,0.00657245904072997
756,0.00609758635206339
757,0.00562271366339681
758,0.00489048810924593
759,0.00422972768177984
760,0.00380150839655881
761,0.00369204872318779
762,0.00380867924592796
763,0.00409077280584263
764,0.00451783716322854
765,0.0049519662661977
766,0.00541166583057061
767,0.00587408919649135
768,0.00614633384344252
769,0.0063105512391348
770,0.00646287938520767
771,0.00650596003125256
772,0.0065988028537187
773,0.006639336175775
774,0.00657291839651971
775,0.00655096962145831
776,0.00659973607670122
777,0.00648085349402776
778,0.00653631009543946
779,0.0064571911651949
780,0.00649635944225589
