"wavelength","measurement"
380,0.0136287212004853
381,0.0132306132026054
382,0.0145292219779444
383,0.0138630251866913
384,0.0142399922771931
385,0.0163660363056322
386,0.0172993684011385
387,0.0183776233448906
388,0.0198587737616527
389,0.0204309780608857
390,0.0219418070625366
391,0.0222651752093616
392,0.0238612035325839
393,0.0244838134485987
394,0.0272042459864704
395,0.0295244245264196
396,0.0342295930483419
397,0.039785778628127
398,0.0453419642079121
399,0.0508981497876972
400,0.0553897645029062
401,0.06067807482298
402,0.0650727969548187
403,0.0675397371435669
404,0.0706154092543305
405,0.0728440284659291
406,0.076442830222351
407,0.0790751559452191
408,0.0814104518185531
409,0.0849245581303135
410,0.0907464269018444
411,0.0926645334814199
412,0.0969578365194882
413,0.0997331879423055
414,0.10155314571773
415,0.103865912684639
416,0.103846339525732
417,0.103541795362656
418,0.10589360690325
419,0.104507479924952
420,0.107075157297856
421,0.107669285064045
422,0.108099109266364
423,0.110183178355411
424,0.109964051936457
425,0.10830826029992
426,0.107201679132195
427,0.103686007340901
428,0.101674444942825
429,0.101695723618191
430,0.10238973887398
431,0.105285328187971
432,0.109644073435392
433,0.112851070202176
434,0.118092469566457
435,0.120071904214523
436,0.12181931811068
437,0.123952179643389
438,0.126085041176097
439,0.128217902708806
440,0.129105665566661
441,0.131652524945755
442,0.133972094761441
443,0.135539077067813
444,0.13796146363533
445,0.140383850202847
446,0.142806236770365
447,0.144833516284945
448,0.145807774212518
449,0.151440808964678
450,0.149307128019713
451,0.148874531671516
452,0.14842494642624
453,0.147975361180963
454,0.147525775935687
455,0.148437200251955
456,0.148235801661441
457,0.150044867603707
458,0.150554141231899
459,0.153302326069052
460,0.154338211926282
461,0.152601093056168
462,0.157529708743072
463,0.153057660711525
464,0.151660830380345
465,0.150987758912889
466,0.149882746589624
467,0.15018373211517
468,0.149131212313359
469,0.148705746345613
470,0.153377202175791
471,0.152737239020372
472,0.154644590103976
473,0.157696762137006
474,0.159388345544923
475,0.16220294149786
476,0.160025899358422
477,0.160698445445676
478,0.16137099153293
479,0.162043537620185
480,0.162162046180982
481,0.158484432025501
482,0.155902374130306
483,0.156713534714345
484,0.15223214861262
485,0.149208825122562
486,0.151001997460688
487,0.152330737929742
488,0.154078733951375
489,0.158534510990301
490,0.159390969065553
491,0.161146705058217
492,0.165332908330479
493,0.162972526591213
494,0.166069756984437
495,0.16329387356451
496,0.164338524019099
497,0.161262281076353
498,0.162616357093297
499,0.158397635188125
500,0.159412738383797
501,0.158085823242797
502,0.160540755141098
503,0.160715792109181
504,0.15869648331068
505,0.16413060757374
506,0.162564396963436
507,0.163677316822272
508,0.164287717565306
509,0.164048235838711
510,0.161404982793289
511,0.163155201910781
512,0.161511696133912
513,0.157232159702247
514,0.155635600297227
515,0.152800379988092
516,0.151062100250987
517,0.150642944451009
518,0.149210947660008
519,0.151953438925619
520,0.154286651554315
521,0.155644056260663
522,0.157001460967012
523,0.15835886567336
524,0.157052533285453
525,0.15684711796615
526,0.156927201686773
527,0.155846500150743
528,0.156621568903359
529,0.1582197601869
530,0.15766743219046
531,0.158096182802479
532,0.156952624433234
533,0.158148782514594
534,0.158448141396703
535,0.156635603685168
536,0.158344776412788
537,0.156592777459441
538,0.155119597636532
539,0.154178997378626
540,0.154941703080207
541,0.153557822125074
542,0.151926986925736
543,0.153546983691853
544,0.154288693577428
545,0.152992084384689
546,0.154489958846356
547,0.15444824145706
548,0.154406524067764
549,0.154364806678468
550,0.153084661395192
551,0.154232639284522
552,0.155569359628385
553,0.153772937035891
554,0.153499603579091
555,0.154649314856966
556,0.152599941120592
557,0.151541727592897
558,0.151333619063192
559,0.1498128967211
560,0.151578163840529
561,0.148250427191007
562,0.150844506245393
563,0.149344476271258
564,0.149383850217205
565,0.147693196204997
566,0.146715791058692
567,0.144965305625105
568,0.146106100630514
569,0.14385187975781
570,0.144135254876531
571,0.144962987487191
572,0.145352044611274
573,0.145420198769762
574,0.146757557853654
575,0.145509625678625
576,0.146411152465648
577,0.14731267925267
578,0.148214206039693
579,0.149115732826715
580,0.150017259613738
581,0.15264376076697
582,0.151829345257269
583,0.153341075806298
584,0.150491692323651
585,0.150742555683188
586,0.146197857926027
587,0.143611054131909
588,0.14210174854136
589,0.140592442950811
590,0.139083137360263
591,0.13940668954011
592,0.141632720538416
593,0.14216330338536
594,0.145154806499242
595,0.145786434651191
596,0.147477807296307
597,0.149121966897472
598,0.150006309934153
599,0.150417204735697
600,0.152727640768242
601,0.153933310749601
602,0.155482580494251
603,0.154989004372153
604,0.156773813074395
605,0.156802742419273
606,0.157414335696606
607,0.156549971651414
608,0.154991967684503
609,0.155364496547371
610,0.154254809389957
611,0.153638509310526
612,0.152305429722745
613,0.152439405887931
614,0.150580310646233
615,0.153410552987669
616,0.151216942967053
617,0.15301673254981
618,0.152619407612935
619,0.153347958477909
620,0.153580765269406
621,0.154562149405638
622,0.152001516904592
623,0.151676894250219
624,0.150783148736318
625,0.149889403222418
626,0.148995657708518
627,0.148950601760762
628,0.148619180150497
629,0.14826368024715
630,0.14951083000722
631,0.14809178179111
632,0.14931301867652
633,0.150411544416559
634,0.150587204532861
635,0.151873309063982
636,0.150784962220489
637,0.152601844829623
638,0.151921569475177
639,0.152488090922739
640,0.152105982595494
641,0.151436732782726
642,0.150807155074494
643,0.149518887680277
644,0.148230620286061
645,0.146942352891844
646,0.147105143651108
647,0.146838311352078
648,0.144290441030771
649,0.147125352571339
650,0.145727872246947
651,0.147547062849941
652,0.146305072394468
653,0.144469012371991
654,0.142019690116268
655,0.143482564060893
656,0.142764193595949
657,0.145096529882888
658,0.147027378105541
659,0.151347154974417
660,0.153058441627493
661,0.153940255937875
662,0.154865937318303
663,0.155093056304246
664,0.154505842706031
665,0.154496817502406
666,0.155078552026021
667,0.155935456676162
668,0.155802371930093
669,0.153003483094434
670,0.154582385081872
671,0.154635344817397
672,0.154052833041536
673,0.154276097301452
674,0.154736295252813
675,0.154724186774196
676,0.154604744480453
677,0.156293982965148
678,0.153645294493521
679,0.15433561779557
680,0.157844948332817
681,0.155549629935598
682,0.152076666363453
683,0.148566229431484
684,0.143688423877665
685,0.140222353331459
686,0.136320835427008
687,0.133188211810474
688,0.132341059052131
689,0.132497917154522
690,0.133537874474672
691,0.135879468371016
692,0.135946563803098
693,0.137014925710028
694,0.138812993267992
695,0.139589808159496
696,0.14239478775685
697,0.142838308509077
698,0.141010787068262
699,0.141475657155434
700,0.144173507469409
701,0.142728788470093
702,0.146039004507211
703,0.146918567525318
704,0.150192630034017
705,0.151464215313111
706,0.153985501215713
707,0.156394468661154
708,0.157129571166411
709,0.159478512064678
710,0.158525793771749
711,0.158808598937982
712,0.158589000725156
713,0.152113713168988
714,0.147125460370293
715,0.138722902575317
716,0.1297403303517
717,0.124719206898297
718,0.123725674821224
719,0.124171925428998
720,0.126264425319752
721,0.125375312764043
722,0.129124980782789
723,0.128360291456676
724,0.127936329652301
725,0.12909368899003
726,0.128551881621074
727,0.131644840037634
728,0.134122384983142
729,0.138479597098485
730,0.14329392991678
731,0.148901915089325
732,0.155494987712436
733,0.161531006278158
734,0.166325120406906
735,0.169274230239955
736,0.172722812426548
737,0.175256074297417
738,0.177789336168285
739,0.180322598039153
740,0.185039247432422
741,0.187555731480437
742,0.189776347062689
743,0.191996962644941
744,0.194217578227193
745,0.195904136473458
746,0.197007074417534
747,0.198172585170357
748,0.19649459022929
749,0.199134692843205
750,0.199439830377381
751,0.199136777640502
752,0.203157985660754
753,0.201512685251585
754,0.198771622304103
755,0.186147209999172
756,0.173522797694242
757,0.160898385389311
758,0.139799756215279
759,0.121676474200867
760,0.108522791523497
761,0.106760784403595
762,0.111297676309711
763,0.120580945189013
764,0.13324986723079
765,0.146604751676754
766,0.162079902002132
767,0.177590868017763
768,0.185301918444078
769,0.193256051068766
770,0.198258717588065
771,0.199746783262057
772,0.203656641356528
773,0.206381175969218
774,0.205602111291618
775,0.206353183771538
776,0.207446121614299
777,0.205590802448525
778,0.207526879732043
779,0.205156354533356
780,0.208504469214808
