"wavelength","measurement"
380,0.0310095449822027
381,0.0300142631939215
382,0.0302606935121524
383,0.0299655689438308
384,0.0301523453857452
385,0.0315023131667701
386,0.0330562222300603
387,0.0348457603825788
388,0.0363861481889233
389,0.0372118013343732
390,0.0382029758374658
391,0.0374043789847912
392,0.039292346117272
393,0.0395546812208749
394,0.0413674638162678
395,0.0442402873552146
396,0.0496015340888009
397,0.0557775997434635
398,0.0619536653981261
399,0.0681297310527888
400,0.0728391959771624
401,0.078186723505526
402,0.0825841156846134
403,0.0843180739416401
404,0.0865232352218039
405,0.0875032330983956
406,0.0901341845234714
407,0.0918739002984439
408,0.0937639900889383
409,0.0966214512486917
410,0.101908345315248
411,0.103599241598519
412,0.106138970586286
413,0.108947144506836
414,0.110153830444
415,0.112565590708363
416,0.111475831718849
417,0.111095454997659
418,0.112723044784862
419,0.111745099579777
420,0.113343850914
421,0.113726035594794
422,0.114188066821806
423,0.116023703309095
424,0.115985055946691
425,0.113792949117675
426,0.112701563276096
427,0.109734444993484
428,0.106538244646651
429,0.105982169105501
430,0.105436658571305
431,0.110471576125897
432,0.113596527363399
433,0.117198747165423
434,0.122007822921707
435,0.124966736007855
436,0.126875339060455
437,0.128611132256934
438,0.130346925453412
439,0.132082718649891
440,0.132904330120712
441,0.134803847848826
442,0.138066911856945
443,0.139067106919355
444,0.141155555697032
445,0.14324400447471
446,0.145332453252387
447,0.147808127657734
448,0.148289768151978
449,0.153968442964909
450,0.152830794460573
451,0.15182384502474
452,0.151310887452491
453,0.150797929880241
454,0.150284972307991
455,0.149920372378663
456,0.149960508017942
457,0.151208006778459
458,0.152962983847939
459,0.154949587263928
460,0.154843871062227
461,0.15379046091569
462,0.157874225036606
463,0.15403695141981
464,0.152736921211407
465,0.151534647872043
466,0.149778773419098
467,0.149166972765416
468,0.148372333154432
469,0.147886801215381
470,0.151161364777337
471,0.151098636422643
472,0.152955109063153
473,0.154966168506202
474,0.156017048728398
475,0.158940770913197
476,0.156192798685381
477,0.156364888137896
478,0.156536977590411
479,0.156709067042926
480,0.156711001760145
481,0.15268075878194
482,0.150895720389057
483,0.149611496434941
484,0.146672084617769
485,0.14308496987396
486,0.144881859769905
487,0.145328850537855
488,0.147309681406279
489,0.151060186559601
490,0.152457590807881
491,0.152999016388321
492,0.157382418567081
493,0.155288038511279
494,0.157853605629156
495,0.155770699617454
496,0.156049686781711
497,0.153266192766858
498,0.153955088062072
499,0.150570924384085
500,0.151444476192266
501,0.149694582249986
502,0.152246705401339
503,0.152669203337993
504,0.150621727820681
505,0.155529199128875
506,0.15474224100282
507,0.155014837297086
508,0.155872795561214
509,0.155916393020911
510,0.153206860609313
511,0.155567914970547
512,0.15381562357264
513,0.149554390422968
514,0.148490404656954
515,0.145730229355881
516,0.144253854830522
517,0.143337400335062
518,0.143038018004193
519,0.145225270591583
520,0.147886869986323
521,0.149307562458768
522,0.150728254931213
523,0.152148947403658
524,0.151426416394684
525,0.15119928253117
526,0.151098909613503
527,0.150395818299882
528,0.151397787652798
529,0.152657056258642
530,0.15315727651047
531,0.152692849300765
532,0.152287964771637
533,0.153170115944947
534,0.15410970164222
535,0.152158034327378
536,0.15343072856957
537,0.152303171033836
538,0.151059153939547
539,0.149717497686944
540,0.150431370193131
541,0.148688421004486
542,0.148349121101017
543,0.149597813500145
544,0.14993705732914
545,0.148747823265762
546,0.150037572893141
547,0.14988760198845
548,0.14973763108376
549,0.149587660179069
550,0.148718144286187
551,0.149575583053375
552,0.151039764673539
553,0.149532794232233
554,0.148889721556801
555,0.149989766097192
556,0.148092782170276
557,0.147710086710268
558,0.146988073680101
559,0.145884301169074
560,0.146963781330701
561,0.144465578000011
562,0.146809723573207
563,0.14460842254838
564,0.145139294848803
565,0.143145481523025
566,0.142120088193388
567,0.140837870003435
568,0.141368892256795
569,0.139703970467127
570,0.13977159360221
571,0.140302220796168
572,0.140342793657516
573,0.140826977979812
574,0.141500337273314
575,0.139990557788077
576,0.140737804966931
577,0.141485052145786
578,0.142232299324641
579,0.142979546503495
580,0.14372679368235
581,0.145821747620267
582,0.144956349398634
583,0.146025181168924
584,0.14363737183962
585,0.142712495242396
586,0.138169261305371
587,0.13577154735683
588,0.133988865548047
589,0.132206183739263
590,0.13042350193048
591,0.130849513915156
592,0.132480045988513
593,0.133288337363043
594,0.135272471409298
595,0.135790406203857
596,0.137608145755396
597,0.138890119467644
598,0.139709161855665
599,0.14032647535389
600,0.14230517670935
601,0.143164750970455
602,0.144679745460034
603,0.143866288317638
604,0.145748462780925
605,0.144794290512943
606,0.145537043867113
607,0.14495781245467
608,0.143447493652458
609,0.143305671288893
610,0.142170779480214
611,0.141723878535242
612,0.140462305078579
613,0.139881475270421
614,0.138412310145133
615,0.140832157426367
616,0.139107982490135
617,0.140454474683649
618,0.140082529857883
619,0.141009157102385
620,0.140724832318641
621,0.14138867985051
622,0.139188929514409
623,0.13876402590201
624,0.137778389118023
625,0.136792752334036
626,0.135807115550049
627,0.135627996114527
628,0.13525546251947
629,0.135386270989682
630,0.135812348174944
631,0.134766508502463
632,0.135625031500876
633,0.136621326565558
634,0.137085777231001
635,0.137667692636657
636,0.136826448602015
637,0.138328790296055
638,0.137670429675293
639,0.138220639449723
640,0.137465182142409
641,0.137312844983775
642,0.136364718432866
643,0.135006373678003
644,0.133648028923139
645,0.132289684168276
646,0.132850957122293
647,0.132219476529003
648,0.129630657295702
649,0.132107413998546
650,0.131054657974195
651,0.132225690412951
652,0.131361033817937
653,0.12931496858755
654,0.127676050333009
655,0.129239607428764
656,0.12774819270978
657,0.12976847921323
658,0.131552833448882
659,0.135627398115441
660,0.136692895222283
661,0.137801973448859
662,0.138241504110692
663,0.138052193778111
664,0.137567629259686
665,0.137827608932815
666,0.138891150482598
667,0.138826029659639
668,0.139168443359989
669,0.136576724842632
670,0.137847568782202
671,0.136910823524207
672,0.137222272271612
673,0.136927993369962
674,0.137749311263033
675,0.137659551475079
676,0.137744596536973
677,0.138152120605353
678,0.136695250818581
679,0.136566386007536
680,0.139445963235919
681,0.137336914126289
682,0.134693300533357
683,0.131771202928428
684,0.127246700597627
685,0.123608736090749
686,0.120770898859357
687,0.11791095697938
688,0.117100259395839
689,0.117019210614406
690,0.118367737682397
691,0.120540512697372
692,0.120474304215692
693,0.12154200158975
694,0.123390362193816
695,0.123320939963893
696,0.125599251606391
697,0.126843934757551
698,0.125528232039768
699,0.126004967268204
700,0.128466005949996
701,0.128158479051087
702,0.130819639987185
703,0.13174099717459
704,0.134734973486403
705,0.135823143543046
706,0.138702955419027
707,0.140501029782817
708,0.142249220603662
709,0.14468582802085
710,0.14371652472235
711,0.144187955900577
712,0.144015813463203
713,0.138236476925256
714,0.133701337684388
715,0.125964817478587
716,0.118417000459128
717,0.114072832930781
718,0.112454577050437
719,0.113371778470725
720,0.115100692921537
721,0.115376123707626
722,0.118839433375276
723,0.11821441303998
724,0.118151656882336
725,0.1181714901183
726,0.118929374681101
727,0.121092762020646
728,0.123829051101364
729,0.128446108399809
730,0.132462835836753
731,0.139392333745835
732,0.145046741552182
733,0.150886789861412
734,0.155489753742598
735,0.158374039493366
736,0.162366242693611
737,0.165020191831238
738,0.167674140968866
739,0.170328090106493
740,0.174760985145265
741,0.176833482992818
742,0.179308021135919
743,0.18178255927902
744,0.184257097422121
745,0.185175569464971
746,0.18628604973601
747,0.187580276233001
748,0.186201618229601
749,0.188125837515457
750,0.188393278424943
751,0.187083677672135
752,0.191442837108254
753,0.189817104306052
754,0.187729910946341
755,0.175364089973669
756,0.162998269000996
757,0.150632448028324
758,0.131194318807399
759,0.113760312908949
760,0.10137108878608
761,0.0986237674249388
762,0.10305573875264
763,0.111441370522238
764,0.123788965650915
765,0.136525062087516
766,0.15037808493181
767,0.16497901319723
768,0.17390415306676
769,0.179100473750847
770,0.185359528301142
771,0.187182970811614
772,0.190663058218924
773,0.19211656169727
774,0.19091719100086
775,0.192390419345501
776,0.19292689876962
777,0.191051729878829
778,0.194249564050763
779,0.191300070426865
780,0.19419116848782
