"wavelength","measurement"
380,0.00250599668458896
381,0.00263245038441133
382,0.00274105434155774
383,0.00259456424749964
384,0.00272471674378597
385,0.00288468714752834
386,0.0031534130506507
387,0.00331199293429627
388,0.00354520376055386
389,0.00376702492313641
390,0.00372295283999094
391,0.00374667107757491
392,0.00378322091299101
393,0.00396572599310429
394,0.00403398247179777
395,0.00441661907185339
396,0.00487933616016657
397,0.00544845856996365
398,0.00601758097976072
399,0.00658670338955779
400,0.00711417222231309
401,0.00755304733024852
402,0.00797595259509231
403,0.00805291626630299
404,0.00824562720846568
405,0.00841759433852405
406,0.0086353872108827
407,0.0086583278640581
408,0.00883195088953842
409,0.0091204943458187
410,0.0095938492426335
411,0.00983682740448173
412,0.0100222420209404
413,0.010426562107689
414,0.0104962114011606
415,0.0106891286939579
416,0.0105972702798063
417,0.0106500762588879
418,0.0108617652815194
419,0.0107403768279542
420,0.010964880318685
421,0.0110760694398856
422,0.0111708908111426
423,0.0112943126784669
424,0.0113832075108805
425,0.0112685905561162
426,0.0111988766372993
427,0.0108944589647845
428,0.0106475421993084
429,0.0105910145969573
430,0.0108335111176065
431,0.0111491154957938
432,0.0115508469494251
433,0.0119970251947882
434,0.0124655052717404
435,0.0128709308565831
436,0.0129137198982886
437,0.0132121790574607
438,0.0135106382166327
439,0.0138090973758048
440,0.0139108379304126
441,0.0141916106526977
442,0.0145497399746492
443,0.0147827780455952
444,0.015106840534497
445,0.0154309030233988
446,0.0157549655123006
447,0.0161256215242427
448,0.0163092092722961
449,0.016944655779432
450,0.0169074654389297
451,0.0169175473465143
452,0.0169259278721214
453,0.0169343083977285
454,0.0169426889233356
455,0.0169920274767088
456,0.0170643300801561
457,0.0174083487546432
458,0.0174996277234455
459,0.0178052669851457
460,0.0179528908873857
461,0.0177551361601647
462,0.0184032362164381
463,0.0178448126384855
464,0.0177223317230717
465,0.0176564384369861
466,0.017506881053649
467,0.0175004692180825
468,0.0173997617277101
469,0.0173197954440904
470,0.0176736800056079
471,0.0176781818061967
472,0.0178852978046851
473,0.0181537820560641
474,0.0182364225331931
475,0.0185537497371682
476,0.018197769261327
477,0.0182791431245916
478,0.0183605169878562
479,0.0184418908511208
480,0.018357780336425
481,0.017977905883149
482,0.0176599921498705
483,0.0177328140768685
484,0.0172807125384837
485,0.0169365947963314
486,0.0171547290813024
487,0.0172486339023251
488,0.0174417784896897
489,0.017997109994054
490,0.0181732277909997
491,0.0182880747211444
492,0.0189080592651155
493,0.0186483296931202
494,0.0190484821961329
495,0.0187901793086867
496,0.0189744341164285
497,0.0186553560795119
498,0.0187417377084735
499,0.0184272373542383
500,0.0185120479557104
501,0.0183598790028205
502,0.0187047740503074
503,0.0187618905452266
504,0.0186235785511313
505,0.0192670517779975
506,0.0191870287248769
507,0.0193316426496156
508,0.0195439756460643
509,0.0196004102570561
510,0.0193222795741701
511,0.0196045479785685
512,0.0194700323101217
513,0.0190624150146274
514,0.0189674982746462
515,0.0186408919771777
516,0.0185900431094218
517,0.0185882438138869
518,0.0185345249328896
519,0.0189237760588242
520,0.0192880345566858
521,0.0195387666741038
522,0.0197894987915217
523,0.0200402309089396
524,0.0199106029137915
525,0.0200216232091453
526,0.020104055474944
527,0.0200332675844484
528,0.0201758428732083
529,0.0204930676420664
530,0.0205100342666208
531,0.0205931520460402
532,0.0205031814026851
533,0.0207285249204092
534,0.0207981939815246
535,0.0205939525128837
536,0.0208125730475283
537,0.0206381968772613
538,0.0204734645759236
539,0.020362453602725
540,0.0204462866415208
541,0.020305310747507
542,0.0201807164512493
543,0.0203546482357317
544,0.020460777397979
545,0.0203095844338336
546,0.0205222313438298
547,0.0204923796414984
548,0.020462527939167
549,0.0204326762368356
550,0.0203504438377359
551,0.020561588227959
552,0.0206621989518197
553,0.0205492771735287
554,0.0204500707296592
555,0.020654090083529
556,0.0203833210552235
557,0.0203467987330021
558,0.0202535581045519
559,0.0201152212179144
560,0.0202924501408293
561,0.0200118428418699
562,0.0203327309436206
563,0.0200061017375789
564,0.0201008230828141
565,0.0197804307389966
566,0.0196455680521799
567,0.0194251016882477
568,0.0195258801420706
569,0.019225646626279
570,0.0191619570127119
571,0.0192519566523949
572,0.0192565503376696
573,0.0192037851618891
574,0.0193950707388924
575,0.0190858400434442
576,0.0191624753837545
577,0.0192391107240647
578,0.019315746064375
579,0.0193923814046852
580,0.0194690167449955
581,0.0196253645977359
582,0.01952494285488
583,0.0196343606107338
584,0.0192134024234447
585,0.0190812657084377
586,0.0183889925841518
587,0.017953059711519
588,0.0176295212661469
589,0.0173059828207747
590,0.0169824443754025
591,0.0170710205392502
592,0.0171722050593983
593,0.0173162941490505
594,0.0175304037879085
595,0.0175727181853794
596,0.0177882859297583
597,0.0179343046505844
598,0.0180379511150133
599,0.018122530460686
600,0.0182852747789374
601,0.018431509302146
602,0.0185836895552266
603,0.0184863785414806
604,0.0186898358433308
605,0.0185964742465211
606,0.0185795532343656
607,0.0184804234957395
608,0.0182208284021568
609,0.0181871158727836
610,0.0180485214297298
611,0.0179317707676069
612,0.0177444075719291
613,0.0176791567442059
614,0.0174955575837747
615,0.0176559180199204
616,0.0173651339259309
617,0.0174608412348408
618,0.0173901464049051
619,0.0174257680241653
620,0.0174183906378638
621,0.0174500732113634
622,0.017120756581067
623,0.0170190077344035
624,0.0168470079108265
625,0.0166750080872495
626,0.0165030082636725
627,0.0165019490638617
628,0.0163406646964405
629,0.0162745057483252
630,0.0163799153722544
631,0.0161574777927662
632,0.0161785054913542
633,0.016334270380111
634,0.0163131056652462
635,0.0163898928827898
636,0.0161926107408349
637,0.0162832109844014
638,0.0162702578165682
639,0.0162598969948217
640,0.016215787981907
641,0.0160917724660168
642,0.0159504507344987
643,0.0157073207360978
644,0.015464190737697
645,0.0152210607392962
646,0.0151847434660858
647,0.0151452906518207
648,0.0147030060745979
649,0.0149658645732689
650,0.0147952864184776
651,0.0149413861377992
652,0.0147654822025011
653,0.0145438318558807
654,0.0142440722944259
655,0.0143453498224842
656,0.0142958771659575
657,0.0143777248250702
658,0.0145332965100464
659,0.0149727736500454
660,0.0151055332747641
661,0.0151472693285845
662,0.0151820930295238
663,0.0151225795439218
664,0.0149664271046876
665,0.0149603948426638
666,0.0149529593644898
667,0.0149817125442156
668,0.0149727185298796
669,0.01473239352573
670,0.0146831500979455
671,0.014663274767389
672,0.0145370007527207
673,0.0145189564997673
674,0.0145394333920745
675,0.0145041351321318
676,0.0144368836837935
677,0.0144595868975029
678,0.0143209812776336
679,0.0141683266103504
680,0.0145485503312773
681,0.0141380542110778
682,0.0138357186249265
683,0.0134918044539392
684,0.0129442894670188
685,0.012544765071215
686,0.0121176201849137
687,0.011756394287113
688,0.011583217688526
689,0.0116137607188372
690,0.0116873358261284
691,0.0118103007187754
692,0.0118096517393494
693,0.0118780059569971
694,0.0120651122966638
695,0.0120616505473743
696,0.0122803066529116
697,0.0122583943860634
698,0.0120908105829957
699,0.0120849533059404
700,0.0122847557155977
701,0.0122276151209583
702,0.0124496409140297
703,0.0125093466864344
704,0.0127735443364917
705,0.0127696923096309
706,0.0131168760674634
707,0.0131598892913569
708,0.013230814833608
709,0.013433789074146
710,0.0132927318949197
711,0.0133043984205543
712,0.0132694696231989
713,0.0126730822705941
714,0.0121226749868861
715,0.0113534934674871
716,0.0105019774002764
717,0.00989804783506399
718,0.0098762777834815
719,0.00974495818781533
720,0.0099423065838361
721,0.00978654801090408
722,0.010171152619618
723,0.0100167731384649
724,0.00994876064565507
725,0.00996276724098101
726,0.00987201297809334
727,0.0100435680057509
728,0.0101828150999032
729,0.0104487757000565
730,0.0108926076460918
731,0.0113597404119939
732,0.011755566585991
733,0.0122837666919459
734,0.0125637452838773
735,0.012820060993202
736,0.0129647185736476
737,0.0131480527480597
738,0.0133313869224717
739,0.0135147210968838
740,0.0137711532679103
741,0.0138436724350871
742,0.0139678377721384
743,0.0140920031091896
744,0.0142161684462409
745,0.0142650604673562
746,0.0142257154453252
747,0.014251480064585
748,0.0140533635227391
749,0.0140798376635931
750,0.0140405574236449
751,0.0139613774400699
752,0.0141584626238689
753,0.0138239008442882
754,0.0137144401162321
755,0.0127760915354306
756,0.0118377429546291
757,0.0108993943738275
758,0.00937254521175237
759,0.00794998041101633
760,0.00698768205858742
761,0.00671655352834524
762,0.00691107380452785
763,0.00741880295126981
764,0.00831450441088767
765,0.00914887761951984
766,0.0101284116480794
767,0.011110872246313
768,0.0117646964627023
769,0.0121087619866063
770,0.0124050436587398
771,0.0124535344224456
772,0.0126005733615534
773,0.0127738134695283
774,0.0126051722309541
775,0.0125401208602762
776,0.0126493570585609
777,0.0124529301202016
778,0.0126196830880001
779,0.012368195686456
780,0.0124444891234998
