"wavelength","measurement"
380,0.0193871423511856
381,0.0198735754696739
382,0.019781205391192
383,0.0198861318449119
384,0.0190594304190275
385,0.0211636254079308
386,0.0224187462150376
387,0.0244105867126762
388,0.0250992576804078
389,0.0261478696086185
390,0.0274252917277689
391,0.0274246698311905
392,0.0291476854293093
393,0.029882858968557
394,0.0305108434885614
395,0.0350978023828853
396,0.0399346565445967
397,0.0456311359571911
398,0.0513276153697855
399,0.0570240947823799
400,0.0620134733306242
401,0.0665524273060147
402,0.0718172833304073
403,0.0745657311443335
404,0.0769363856756071
405,0.0796609288011222
406,0.0820677258141433
407,0.0846892912957362
408,0.08770218666812
409,0.0909019953675493
410,0.0963739509495207
411,0.0987323238896687
412,0.102476608204963
413,0.106005012238551
414,0.107332397381311
415,0.109305239291019
416,0.110016771136252
417,0.110139219631534
418,0.112081320611207
419,0.111296781473363
420,0.114040433967702
421,0.114569244605173
422,0.116357471236201
423,0.11653878468296
424,0.117475521739001
425,0.115868487959112
426,0.114309418110954
427,0.111720277018775
428,0.108629421351175
429,0.108785917653925
430,0.108680619475385
431,0.11221130944235
432,0.117077543809578
433,0.12084387598848
434,0.125743740366332
435,0.12851108752133
436,0.130276374917498
437,0.132294679581262
438,0.134312984245026
439,0.136331288908789
440,0.137205383796048
441,0.13912975911041
442,0.142843461926977
443,0.143687290308259
444,0.145881439289848
445,0.148075588271437
446,0.150269737253025
447,0.152791823587772
448,0.152788230215094
449,0.158942750614642
450,0.158009945451687
451,0.156731774845602
452,0.156327924732708
453,0.155924074619813
454,0.155520224506919
455,0.155410493712247
456,0.155084572024228
457,0.15755114620588
458,0.158204919196296
459,0.160417950415464
460,0.16065258435215
461,0.159462939986978
462,0.164346609078266
463,0.159672169943649
464,0.158644801942666
465,0.157527619997907
466,0.155643401927826
467,0.155817827302557
468,0.154979789500881
469,0.15434049864697
470,0.158414375031918
471,0.15851248228873
472,0.159831683512587
473,0.162893876533675
474,0.163874988316142
475,0.165997774680407
476,0.163846359985838
477,0.1642966372724
478,0.164746914558962
479,0.165197191845525
480,0.164830586017229
481,0.161734254880498
482,0.159198457808861
483,0.158611279862603
484,0.155015026279821
485,0.151386895090851
486,0.15305285016419
487,0.154252007758163
488,0.156006509208109
489,0.160081685835029
490,0.16160872871769
491,0.162886480007846
492,0.166890268441758
493,0.164827559331357
494,0.167973941849612
495,0.164894866043464
496,0.166242840307068
497,0.162891923724443
498,0.163564178285073
499,0.160106870765952
500,0.160962607395807
501,0.158804771638473
502,0.161537432756618
503,0.162474886209558
504,0.160169732833671
505,0.165421967949557
506,0.164199707219525
507,0.164786853762312
508,0.166332820521562
509,0.166019512040325
510,0.163046124935871
511,0.165605579908654
512,0.163655530464312
513,0.15896030373459
514,0.157584534623827
515,0.15453634367669
516,0.153221113914117
517,0.152639749530396
518,0.151824027077102
519,0.154121915029932
520,0.156661132888538
521,0.158260848371693
522,0.159860563854849
523,0.161460279338005
524,0.159536424095847
525,0.160296177777155
526,0.160049807276983
527,0.159237208241122
528,0.160125300596751
529,0.161697207321452
530,0.16121584763388
531,0.161048464451405
532,0.160912656068091
533,0.161768166266883
534,0.162848176546544
535,0.160538860672931
536,0.162066472810362
537,0.160015027020429
538,0.15965407830484
539,0.157800878164005
540,0.158971060239005
541,0.157220049708273
542,0.156632580072094
543,0.157701258216539
544,0.158342692510139
545,0.15735449975969
546,0.158210866707164
547,0.1581185734459
548,0.158026280184636
549,0.157933986923372
550,0.15686043827258
551,0.158008416161909
552,0.159440549454363
553,0.157966227702605
554,0.157289902675238
555,0.158532529868613
556,0.156517654615716
557,0.155724668714568
558,0.154726955609455
559,0.153591630611357
560,0.155463678751075
561,0.152636268679075
562,0.155385558053412
563,0.153332895229662
564,0.153294598304237
565,0.151639034178081
566,0.150225436777823
567,0.14872662599513
568,0.149687371772485
569,0.148120754959038
570,0.147896575246557
571,0.148177457610547
572,0.148890603345129
573,0.149186250360379
574,0.150303016284205
575,0.148731586901251
576,0.1495586363908
577,0.150385685880349
578,0.151212735369898
579,0.152039784859447
580,0.152866834348996
581,0.154879262496324
582,0.154488028383951
583,0.155629803767304
584,0.152999764928179
585,0.151949016933951
586,0.147617224103395
587,0.144937175836791
588,0.143189425489965
589,0.141441675143138
590,0.139693924796311
591,0.140207842893557
592,0.142590464151154
593,0.143034373665323
594,0.145880917437202
595,0.145859374301972
596,0.147798741759745
597,0.149355373779973
598,0.149933370283372
599,0.151059073662573
600,0.152509807486854
601,0.154223755124785
602,0.155831113744472
603,0.155061352620361
604,0.156846752725176
605,0.156007634514359
606,0.156893901431571
607,0.156116276430551
608,0.154673924522537
609,0.154710996703208
610,0.153979938615886
611,0.152876092825669
612,0.151824028027588
613,0.151272371475428
614,0.14970109215303
615,0.152151588330623
616,0.150263602017921
617,0.152038125568493
618,0.151736246435906
619,0.15249584593601
620,0.152338819864209
621,0.153403739614005
622,0.150234274590974
623,0.150334410407458
624,0.149498228077418
625,0.148662045747377
626,0.147825863417337
627,0.147284489287282
628,0.147037506822291
629,0.146593953646829
630,0.147876587561333
631,0.146104012028824
632,0.147449706300342
633,0.148547443503616
634,0.149036415561292
635,0.14974425979793
636,0.148781553145693
637,0.150310882681115
638,0.149891218727569
639,0.150311532316584
640,0.150119461349753
641,0.149395211097611
642,0.148571653345139
643,0.147046824921361
644,0.145521996497583
645,0.143997168073806
646,0.14470404920106
647,0.143951083986282
648,0.14189236930499
649,0.14422117166509
650,0.143064983590852
651,0.14476214812943
652,0.143288919267561
653,0.141569907671169
654,0.139232344074064
655,0.140763623583071
656,0.140305930230423
657,0.142033064550069
658,0.143816456397628
659,0.147951321395064
660,0.149684029963595
661,0.150691221619644
662,0.151873440294352
663,0.151349149454452
664,0.1508851447258
665,0.151404439154862
666,0.15149024976456
667,0.152017743181037
668,0.152317039427889
669,0.149595032926837
670,0.150564724551758
671,0.150241617961677
672,0.150329493859034
673,0.150411215769597
674,0.151396677773679
675,0.150920285418849
676,0.150566450571649
677,0.151553299932738
678,0.150365375818653
679,0.150337407838997
680,0.1536959307199
681,0.150977430925353
682,0.147916609235822
683,0.144826330976913
684,0.140176281125444
685,0.13595755223685
686,0.132926348931295
687,0.129946602880115
688,0.12862429100934
689,0.128630407166782
690,0.130101825520293
691,0.132454656065542
692,0.132348207697881
693,0.133979716277962
694,0.135813859392934
695,0.135526346785603
696,0.138959724473428
697,0.139698355110033
698,0.138044574603151
699,0.138454247116758
700,0.140862835860698
701,0.140576477369467
702,0.143834387134494
703,0.14450433079585
704,0.148168850426119
705,0.148996095238021
706,0.151406328879523
707,0.153991402869193
708,0.154962672135629
709,0.157816670832009
710,0.157057472603541
711,0.156970322604099
712,0.1571603035294
713,0.149759733790662
714,0.145923861762916
715,0.136829625802061
716,0.128624025137759
717,0.123416281316591
718,0.12231708531298
719,0.122741059757137
720,0.125270868995594
721,0.12504609866457
722,0.128301748399915
723,0.127867455978423
724,0.127683751469696
725,0.127826904676729
726,0.127941554164805
727,0.130671489968084
728,0.133685469903822
729,0.13829455380425
730,0.142808782671988
731,0.149112651539826
732,0.15481231200796
733,0.161578712752453
734,0.165611494634396
735,0.169035040754509
736,0.172843064283242
737,0.175246546144837
738,0.177650028006432
739,0.180053509868027
740,0.18540867690692
741,0.187137084169511
742,0.189547583785583
743,0.191958083401656
744,0.194368583017729
745,0.195778036302423
746,0.19653148818102
747,0.197407573085315
748,0.196931176751625
749,0.199187656229268
750,0.199050490349561
751,0.198744480599813
752,0.201843757718747
753,0.200556715846568
754,0.198159060660334
755,0.18516576647588
756,0.172172472291427
757,0.159179178106973
758,0.137966013967796
759,0.120009704613416
760,0.106857007607003
761,0.10494386427377
762,0.109205294003241
763,0.119220883547528
764,0.131990836862347
765,0.144817138830035
766,0.160650153424022
767,0.175516359211304
768,0.184119113296271
769,0.191470015295578
770,0.196323122675076
771,0.198320188831007
772,0.201282225733703
773,0.204309689887025
774,0.20321711613386
775,0.204009455371158
776,0.204873783263408
777,0.201881788350591
778,0.205896777104174
779,0.203281016971508
780,0.205333894304715
