"wavelength","measurement"
380,0.017757891407981
381,0.0172393894501729
382,0.0174171321805229
383,0.0166628417611968
384,0.0168264688909805
385,0.0176035141064078
386,0.0187476475323291
387,0.0192284639363448
388,0.0206382690552391
389,0.0212092544157969
390,0.0213875473478919
391,0.0212446156168672
392,0.0218028566895862
393,0.0220890632298938
394,0.022977962573499
395,0.0241091034225818
396,0.027212190266785
397,0.0304358609683941
398,0.0336595316700033
399,0.0368832023716124
400,0.0393946765289294
401,0.0423730541735135
402,0.044028483098325
403,0.0448020302563765
404,0.0457422787256044
405,0.0460992188270805
406,0.0469015681148596
407,0.0478842106841205
408,0.0485755480890133
409,0.0497234237065812
410,0.0523386892833737
411,0.0527537336338748
412,0.054209352195983
413,0.0560005815495431
414,0.0563815418854845
415,0.0575068209424476
416,0.0573155927005713
417,0.0567227851675626
418,0.0579254871962637
419,0.0572433984612953
420,0.0587059415826124
421,0.0587257877588531
422,0.0599647682552465
423,0.0604924279355255
424,0.0606259031052161
425,0.060076200857579
426,0.0592617750133095
427,0.0581006514518346
428,0.0564200258559481
429,0.0561212685897172
430,0.0560782490035606
431,0.0583977462849699
432,0.0604757438969575
433,0.0627097936956103
434,0.0655463348205481
435,0.0671162258373767
436,0.0677372112112225
437,0.0688569977745077
438,0.0699767843377929
439,0.0710965709010781
440,0.0715571371924327
441,0.0729363349706416
442,0.0743799853951635
443,0.0750924208444818
444,0.0760958809198272
445,0.0770993409951726
446,0.078102801070518
447,0.0796564921970297
448,0.0797433760156923
449,0.0827568317154872
450,0.0823651055074237
451,0.0816265076557346
452,0.081406647007084
453,0.0811867863584334
454,0.0809669257097828
455,0.0811672115327679
456,0.0811651844389333
457,0.0818465825013078
458,0.0826827355871227
459,0.0836842709034948
460,0.0838659886972187
461,0.0829294826460882
462,0.08562691404157
463,0.0834031491239169
464,0.0824057238478303
465,0.0816533996767551
466,0.0808814785337569
467,0.0804607561434447
468,0.0797666099045461
469,0.0788832124578712
470,0.0809225734757598
471,0.0806434899954269
472,0.0813821510909115
473,0.0821240280307333
474,0.0825214844713068
475,0.0837352004048379
476,0.0820038118671134
477,0.0819916624649336
478,0.0819795130627538
479,0.0819673636605741
480,0.081892434548425
481,0.0800152507213019
482,0.0786000338325855
483,0.0780827687429385
484,0.0760960395313068
485,0.0744075584527539
486,0.0751428828111085
487,0.0755760037037418
488,0.0765428059080363
489,0.0788742409602226
490,0.0793090023117354
491,0.0803335525675881
492,0.0820931846960673
493,0.0813418939004913
494,0.08295415370386
495,0.0818130970079787
496,0.0824302264713808
497,0.0807797901849318
498,0.0815446135129551
499,0.0800006312546739
500,0.08048805128572
501,0.0797242824399529
502,0.0812218371534342
503,0.0816445494424602
504,0.0810819159056908
505,0.0838364357130961
506,0.0836929538421409
507,0.0844329460171752
508,0.0851812361287483
509,0.0854420328180111
510,0.0847255252105215
511,0.086228421734424
512,0.0856370546655209
513,0.0837340365721048
514,0.0836260148274396
515,0.0822447152549134
516,0.0821434124385021
517,0.0822366132765112
518,0.082283601284272
519,0.0843326815262622
520,0.086345180758835
521,0.0877710024002226
522,0.0891968240416101
523,0.0906226456829977
524,0.0905659064198538
525,0.0910604448241069
526,0.0918061731869439
527,0.091726574179006
528,0.0926244910020116
529,0.0941152599367295
530,0.0946604055891622
531,0.0951082507875413
532,0.0951313546847583
533,0.096421172524048
534,0.0969515846960986
535,0.0960549031722902
536,0.0975661427680733
537,0.0967616046513933
538,0.0962629401189473
539,0.0958424878375537
540,0.0967088060888987
541,0.0959625604939319
542,0.095432816342356
543,0.0964348204074745
544,0.0970885114395911
545,0.0966701316227007
546,0.0976367436887313
547,0.0977236317219201
548,0.097810519755109
549,0.0978974077882978
550,0.0976771225624139
551,0.0984525406013494
552,0.0994115945726188
553,0.0986398366797548
554,0.098665213091248
555,0.0994294665165248
556,0.098241037653419
557,0.0979477057247905
558,0.0976406429327063
559,0.0968949454930287
560,0.0979140579449984
561,0.0962973928809666
562,0.0980676098700324
563,0.0968285769316489
564,0.0970709822237596
565,0.0956484729349333
566,0.0948362305214177
567,0.0936921288664382
568,0.0941552830880402
569,0.0928824219790871
570,0.0928695384862275
571,0.0928983188214034
572,0.0930099687290643
573,0.0926174670312266
574,0.0932961886386236
575,0.0921500855260899
576,0.0924246331348305
577,0.0926991807435712
578,0.0929737283523119
579,0.0932482759610526
580,0.0935228235697933
581,0.0947372074519472
582,0.0940489828863002
583,0.0944640081351897
584,0.0928636066313954
585,0.0919312749614867
586,0.0889910398368922
587,0.0870661165186493
588,0.0857672001028687
589,0.084468283687088
590,0.0831693672713074
591,0.0835815204458703
592,0.0843317194564678
593,0.084814998277889
594,0.086113724663815
595,0.0863385076927222
596,0.0872251960631321
597,0.0880377124545348
598,0.0883983250964213
599,0.0888860065391735
600,0.0896790764975759
601,0.0906631707067189
602,0.0911798618098233
603,0.0906646217026391
604,0.092210742726906
605,0.0914135584604923
606,0.0917061795656371
607,0.0913274645331736
608,0.0900718757038095
609,0.0902033310509493
610,0.0893294730572543
611,0.0888163939986233
612,0.0881019402690122
613,0.0876895322479981
614,0.0867228855554302
615,0.0878419666185084
616,0.0866388078785197
617,0.0873949170276459
618,0.0872607814305033
619,0.0874733872222219
620,0.0872902475381545
621,0.0878774979919599
622,0.086107622719912
623,0.0862513777541491
624,0.0855437041041618
625,0.0848360304541746
626,0.0841283568041873
627,0.0839916401101259
628,0.0837298023393544
629,0.0835772067999754
630,0.0842029163531824
631,0.0831822056778078
632,0.0838594682765259
633,0.0843477062341838
634,0.0845256713167505
635,0.0850968011000899
636,0.0842177224554511
637,0.0851571979244161
638,0.0845281424017473
639,0.0848530098166452
640,0.0843337548634458
641,0.084083650684242
642,0.0833710009650394
643,0.0824483594656551
644,0.0815257179662708
645,0.0806030764668865
646,0.0805004197422241
647,0.0801095651249757
648,0.0786584016423496
649,0.0799343200882049
650,0.0793562549395422
651,0.0803708376209092
652,0.0793388292396728
653,0.0782992474800856
654,0.0767789557270426
655,0.0777390072821076
656,0.0768073373014319
657,0.0781360988354583
658,0.0791415830206852
659,0.0810947990929349
660,0.0822603839133071
661,0.0824842565234063
662,0.0830271238557133
663,0.0824493886350296
664,0.0822103681021229
665,0.0826458879014917
666,0.0825231974876595
667,0.0827053348393703
668,0.0827680640960637
669,0.0811370916964351
670,0.0818936792955801
671,0.0817923810758102
672,0.0813609247452561
673,0.0817428207506875
674,0.0818515719490896
675,0.0817730177130691
676,0.0818248680450008
677,0.0825353280549923
678,0.0816150636074462
679,0.0817363080178063
680,0.0834936766538953
681,0.0819528207633868
682,0.0805850458069181
683,0.0790532504449989
684,0.0764406497122915
685,0.0743001629965675
686,0.0727071962628608
687,0.071164462936489
688,0.0705971959119638
689,0.0709604501451961
690,0.0720234498215088
691,0.0736659994082412
692,0.0741952999695357
693,0.0754397451664334
694,0.0771425801390975
695,0.0777502454152379
696,0.079829646733884
697,0.081088089492998
698,0.0809636951927789
699,0.0818208556967601
700,0.0842111669659369
701,0.0844854834113757
702,0.0871053865346813
703,0.0884749848446445
704,0.0912177828396363
705,0.0928326697383745
706,0.0950768240501701
707,0.097545538372283
708,0.0988465584996876
709,0.101267856770456
710,0.101512897192138
711,0.102354370432153
712,0.103429885936651
713,0.0999158996334694
714,0.0974872504857372
715,0.0922760741446861
716,0.0872363635021548
717,0.0842382725858514
718,0.0839643129763429
719,0.0851062853843014
720,0.0874034040203941
721,0.0877863930014079
722,0.0910522245356137
723,0.091415251974757
724,0.0918309752427916
725,0.092843404491227
726,0.0931117678540503
727,0.0957729325998755
728,0.0982770120026214
729,0.102212571528892
730,0.106287888032723
731,0.112013327155947
732,0.117159706063655
733,0.122789068308712
734,0.126707477332432
735,0.128930067114563
736,0.132370950293483
737,0.134881212835189
738,0.137391475376895
739,0.139901737918601
740,0.143576588802844
741,0.146019696202707
742,0.147981904697731
743,0.149944113192755
744,0.151906321687779
745,0.153314701143392
746,0.153864874542342
747,0.155071008423371
748,0.153851596893043
749,0.155174374526201
750,0.155319165150283
751,0.155178359982072
752,0.157864368531707
753,0.156591416670132
754,0.154947919177299
755,0.144859149169744
756,0.13477037916219
757,0.124681609154635
758,0.108173363726519
759,0.0932818117777421
760,0.0823993981807073
761,0.0799299103665658
762,0.0831428796626931
763,0.0904282559845289
764,0.10071045546882
765,0.111227159293123
766,0.122819437279225
767,0.13523730393732
768,0.142004902006973
769,0.147398266390824
770,0.151522008934728
771,0.153378519401427
772,0.155466050382687
773,0.157455762188239
774,0.156655373075196
775,0.15734140341523
776,0.157941123162435
777,0.156248874258612
778,0.15835343495628
779,0.156642668924632
780,0.158587502020825
