"wavelength","measurement"
380,0.0360611091640673
381,0.034254626917339
382,0.0333212452552064
383,0.0324845271868921
384,0.0325867365058168
385,0.0341829573460951
386,0.0355848673233101
387,0.0369625113265338
388,0.0379974489999704
389,0.0389335243985208
390,0.0386376696939474
391,0.0378716790007912
392,0.0380973574404748
393,0.0379700192754786
394,0.0387148853143787
395,0.04017116076169
396,0.0442167723557816
397,0.048331203616021
398,0.0524456348762604
399,0.0565600661364997
400,0.0594526821016717
401,0.0620078803584398
402,0.0641494244968144
403,0.0639893768668987
404,0.0636800909188521
405,0.0632492700961577
406,0.0638988490332656
407,0.0642519466606621
408,0.0645513119864695
409,0.0651007293127857
410,0.0678850980409047
411,0.0680031646012637
412,0.0695281266955685
413,0.0704974640433373
414,0.0703989018368578
415,0.0716710226303151
416,0.0712539510393858
417,0.0700812104849711
418,0.0716509262961537
419,0.0701720695930916
420,0.0715772529672041
421,0.0717824792503683
422,0.0717390090543852
423,0.0721313963523531
424,0.072725138749981
425,0.0712523753918256
426,0.0709117234024871
427,0.0689278699498877
428,0.0672479918715941
429,0.0664164949459931
430,0.0667346655858712
431,0.0688724085058772
432,0.0710257293400456
433,0.073716243879227
434,0.0765518221357727
435,0.0777793144903974
436,0.0788188095021593
437,0.0798915438483662
438,0.0809642781945731
439,0.0820370125407801
440,0.0825033968165814
441,0.0836286492346176
442,0.0851657320168319
443,0.0861270283203496
444,0.0871908384924249
445,0.0882546486645002
446,0.0893184588365755
447,0.0907460007325966
448,0.0910573322051815
449,0.0941645046273574
450,0.0936199045203018
451,0.0928061593036127
452,0.0925862705253048
453,0.0923663817469969
454,0.092146492968689
455,0.0916094001814603
456,0.0919938136500104
457,0.092463509624777
458,0.0931434654936593
459,0.0941702319659552
460,0.0947762479561947
461,0.0935550420757314
462,0.0964062781245729
463,0.0934334291498767
464,0.0925497041382652
465,0.0915846592843488
466,0.0904636532695202
467,0.0898701858928443
468,0.0897956983698264
469,0.0881277585587082
470,0.0900742840235001
471,0.0898898503790577
472,0.0903946559303144
473,0.0917520506769422
474,0.0917066253480558
475,0.0928161303122856
476,0.0912023337156356
477,0.0911442553292027
478,0.0910861769427697
479,0.0910280985563367
480,0.0906513072575935
481,0.0883750128688982
482,0.0871441524578002
483,0.0863580630847373
484,0.0842055354587729
485,0.0823626899857059
486,0.0830955156089593
487,0.083497844295712
488,0.0845362195797142
489,0.0867226084120888
490,0.0872221297081008
491,0.0883777366785534
492,0.0900312697211723
493,0.0891107706754227
494,0.090296576691204
495,0.089278692577505
496,0.0894138211019713
497,0.0880616217401765
498,0.0887551005320585
499,0.0866374119990918
500,0.0870687171639575
501,0.086159651573217
502,0.0874602238844132
503,0.0880770443344294
504,0.0868948171163454
505,0.0896376175642151
506,0.0894496866224143
507,0.0897924093829677
508,0.0907212184635329
509,0.0906676900007876
510,0.0895523060378646
511,0.0907382709909638
512,0.0899978402761124
513,0.0876223831551126
514,0.0873188989999584
515,0.0858274897443246
516,0.0852844770331933
517,0.0851613415520666
518,0.0849159480217147
519,0.08655364072322
520,0.0882024097394682
521,0.0893139461858718
522,0.0904254826322753
523,0.0915370190786788
524,0.0910953861264354
525,0.091273190673838
526,0.0917629915660231
527,0.0909124108220476
528,0.091990422428742
529,0.093133363823286
530,0.0932764038763662
531,0.0935641263250752
532,0.0932107014668834
533,0.0942626804325082
534,0.0943692667473289
535,0.093744436614664
536,0.0943246237377641
537,0.0939947863346824
538,0.0931803089890677
539,0.0927628145862091
540,0.0929993226635148
541,0.0925239107536271
542,0.091681575399966
543,0.0924331602608812
544,0.093035822438038
545,0.0922140332095894
546,0.093107222467013
547,0.0931607761660934
548,0.0932143298651739
549,0.0932678835642543
550,0.0928906258120825
551,0.0933298135771153
552,0.0943454240660664
553,0.0935083422845553
554,0.0933954589696415
555,0.0943128702767309
556,0.0930598579818497
557,0.0931473958460206
558,0.0924810841017809
559,0.0917797358836318
560,0.0930430499591516
561,0.0912961254954815
562,0.0930773395167459
563,0.0916383648124362
564,0.0921523183005034
565,0.0906448131560648
566,0.0900940675123255
567,0.088985231025087
568,0.0895881013821632
569,0.0883070250595618
570,0.0885525952146485
571,0.0885695379306195
572,0.0885951186490395
573,0.0885086199046187
574,0.0893332462840535
575,0.0881794055406181
576,0.0885554627851945
577,0.0889315200297709
578,0.0893075772743472
579,0.0896836345189236
580,0.0900596917635
581,0.0912993298896402
582,0.0906607119950275
583,0.0913971524601385
584,0.0895779234301047
585,0.0886587675313898
586,0.0859070842964517
587,0.08387856391659
588,0.0825621173596877
589,0.0812456708027853
590,0.079929224245883
591,0.0801816221379062
592,0.0811711059796996
593,0.0816456415372982
594,0.0830879461306841
595,0.0832188467864705
596,0.084273716534812
597,0.0850632317144094
598,0.085838892863066
599,0.0860017711379641
600,0.0870841075380292
601,0.0881544362198935
602,0.0889041675752811
603,0.088522559679125
604,0.0895645656296432
605,0.0890125096552152
606,0.0893992452940798
607,0.0890381719868018
608,0.0880189486005436
609,0.0880710773486669
610,0.0873880473876558
611,0.0867716036188814
612,0.0860994374880271
613,0.0856407264843628
614,0.0845021237603969
615,0.086087608806459
616,0.0850458635068901
617,0.0858116080213715
618,0.0856844115859
619,0.0858302483701596
620,0.0857164980961403
621,0.0864177494482425
622,0.0846742844688008
623,0.0844803977005943
624,0.0838065835084553
625,0.0831327693163163
626,0.0824589551241773
627,0.0823233174731734
628,0.082058155798153
629,0.0816354340156234
630,0.0825747148027536
631,0.0815442996477377
632,0.0819968159360553
633,0.082649648512555
634,0.0832815584641163
635,0.0834269780886066
636,0.0828698631614957
637,0.0837720728206612
638,0.0832565614287265
639,0.0837072193089402
640,0.0832309321541857
641,0.0830205114074263
642,0.0823600174097729
643,0.0815039427662879
644,0.0806478681228029
645,0.0797917934793179
646,0.0798637764063543
647,0.0791340452882245
648,0.0778486982384182
649,0.0791841145328425
650,0.0786487162094879
651,0.0792747527671146
652,0.0788000389192009
653,0.0775317758375657
654,0.0763081534094501
655,0.0772419891660776
656,0.076510380049419
657,0.0775169432713432
658,0.0786119119162135
659,0.0808434180933482
660,0.0818894798636106
661,0.0825394822725176
662,0.0827505087418139
663,0.0827040849611637
664,0.0821613242469606
665,0.0825673484976733
666,0.0827014261164185
667,0.0827185616854788
668,0.0831737462823803
669,0.0814049536791927
670,0.0820902613970711
671,0.0817489477335572
672,0.0814937864974784
673,0.0815980088001243
674,0.0819796784763544
675,0.0819658536302676
676,0.0818895265948824
677,0.0824705814199629
678,0.081740180379035
679,0.0815729454930574
680,0.0834853945741025
681,0.0818899193633798
682,0.0801824984138654
683,0.0785776001587555
684,0.0758593478442624
685,0.0735588463326307
686,0.0718353484307582
687,0.0700102945836212
688,0.0693929557718321
689,0.0693135515956765
690,0.0703959396614835
691,0.0713984566691172
692,0.0718669452267797
693,0.0720516302484095
694,0.0737523262769236
695,0.0739352632966936
696,0.0754167166429117
697,0.0761667355739574
698,0.0753387270618809
699,0.0759849574338955
700,0.0774417103097005
701,0.0775985625583697
702,0.0792805443772511
703,0.0802419324140823
704,0.0823099489596716
705,0.0828334586792367
706,0.0846423545847513
707,0.0865442484707371
708,0.0871944388529291
709,0.088948853874546
710,0.0887595198294519
711,0.0886153935089057
712,0.0888052431799234
713,0.0851539341614131
714,0.0822416230372186
715,0.0771499167689849
716,0.0721947051851816
717,0.0691164662856442
718,0.0686261999966759
719,0.0689013576093187
720,0.0701419383152816
721,0.0702349098500841
722,0.0722999254849541
723,0.0720142182723942
724,0.0720354498058342
725,0.0721998836747867
726,0.0723630918999851
727,0.0740104130258982
728,0.0758343926080143
729,0.0786883377126545
730,0.0815457332563686
731,0.0855814694560015
732,0.0894587508063844
733,0.0931897088263266
734,0.0962101953890682
735,0.0984878326158015
736,0.100572675480679
737,0.102323821096119
738,0.104074966711559
739,0.105826112326999
740,0.108614596163892
741,0.109808030463035
742,0.111323847401093
743,0.11283966433915
744,0.114355481277208
745,0.114789605885594
746,0.115280935094431
747,0.115858012179575
748,0.11531667771505
749,0.115998892338526
750,0.116555876519078
751,0.116064549563742
752,0.117789284769859
753,0.11671950469958
754,0.115221611511025
755,0.107463452362254
756,0.099705293213482
757,0.0919471340647103
758,0.0793963071151282
759,0.0684182117559238
760,0.0607111588082614
761,0.0590120076601985
762,0.0612123328806454
763,0.0661747661366655
764,0.0740606758936147
765,0.0820538630458822
766,0.0907309712167235
767,0.0995492636920061
768,0.104733832757981
769,0.10899924895276
770,0.112337300582601
771,0.113461859298676
772,0.115141667099759
773,0.116830882815297
774,0.116210270108327
775,0.116885155774722
776,0.117003271208426
777,0.115900384507709
778,0.117837883313434
779,0.116545319703496
780,0.117722537776556
