"wavelength","measurement"
380,0.00254748476674466
381,0.00252847785293728
382,0.00254699850543869
383,0.00257737087125914
384,0.00266625627449567
385,0.00285144424287347
386,0.00306616166781355
387,0.00323813853110696
388,0.00344095269630596
389,0.00363633020442363
390,0.00363645218019036
391,0.00367891018387442
392,0.00375839458265215
393,0.00386614348151134
394,0.00403139587861919
395,0.00427645948416339
396,0.00480924142632203
397,0.00541945773575057
398,0.00602967404517911
399,0.00663989035460765
400,0.00695830681407074
401,0.00750143696681762
402,0.00788366332853647
403,0.00797369513268303
404,0.00823092709691218
405,0.00827572481391895
406,0.00849017420056925
407,0.00870372119737285
408,0.00887032385377888
409,0.00910456871893881
410,0.00960809352551504
411,0.00978215654517791
412,0.0101134692567688
413,0.0104120654421356
414,0.0105411228554223
415,0.0106803680707388
416,0.0106726460760201
417,0.0106627611557809
418,0.0108922467439251
419,0.0107518117644175
420,0.0110480568293832
421,0.0110565743147537
422,0.0112165690170444
423,0.0113819462421965
424,0.0114835999502787
425,0.0113740972154125
426,0.0112622349354492
427,0.0110155967801646
428,0.0106896040399883
429,0.010735496317747
430,0.0107969146770425
431,0.0112194679160199
432,0.0116479309104458
433,0.0121108022253196
434,0.0126487408507759
435,0.0130011916425133
436,0.0131256736047585
437,0.0134068007501474
438,0.0136879278955363
439,0.0139690550409252
440,0.0140979519517638
441,0.0143912651286287
442,0.0148115336449209
443,0.0150241458276861
444,0.0153404790488785
445,0.0156568122700709
446,0.0159731454912633
447,0.0163043782932391
448,0.0164535944840193
449,0.0171927990755706
450,0.0171538952543535
451,0.0170832437515278
452,0.0171218325539736
453,0.0171604213564194
454,0.0171990101588651
455,0.017220115128777
456,0.0172868781651004
457,0.0176103142078845
458,0.0177019251542841
459,0.0180831355432439
460,0.018152945616522
461,0.0180437799260856
462,0.0186207456548715
463,0.0181624789991202
464,0.0180328003062398
465,0.0179242377067934
466,0.0177500717508508
467,0.0177618156504463
468,0.0176197210258023
469,0.0175401689892252
470,0.0179515466168557
471,0.0179996761019783
472,0.0181691282757091
473,0.018425560936759
474,0.0185601665613879
475,0.0188411187974389
476,0.0184683384234165
477,0.0185219255975674
478,0.0185755127717183
479,0.0186290999458691
480,0.018651976376618
481,0.0182228951957221
482,0.0179434931242452
483,0.0179507267110381
484,0.0175143990104109
485,0.017191298120572
486,0.0173467849750911
487,0.0175082517882086
488,0.0177066259929796
489,0.0182377491954797
490,0.0183970696683452
491,0.0185963080833304
492,0.0190875624221486
493,0.01892514068853
494,0.0192598514177908
495,0.0190452039286068
496,0.0191927643734132
497,0.0188720117448682
498,0.019010060091575
499,0.0186516849896771
500,0.0187485633861286
501,0.0185751656554911
502,0.018917150621093
503,0.0189853329324592
504,0.0188395007906279
505,0.0195157440985563
506,0.0194481548363308
507,0.0195665037610706
508,0.0197441756584954
509,0.0198133879758572
510,0.0195384817983623
511,0.0198727855385796
512,0.0197474429398675
513,0.0192359533459023
514,0.0191982403177711
515,0.0188822627141364
516,0.0187932230336288
517,0.0187691991281852
518,0.0187332386615189
519,0.0190928899751051
520,0.0195108079054351
521,0.0197554702576474
522,0.0200001326098598
523,0.0202447949620722
524,0.0201200739239938
525,0.0202157431891788
526,0.020284721624175
527,0.0201645905350265
528,0.0203465774403746
529,0.0205914941885501
530,0.0206673579800006
531,0.0207268224868084
532,0.0206591882725908
533,0.0208926058071141
534,0.0209558504152726
535,0.020746996264485
536,0.0209397995196369
537,0.0208012217215614
538,0.0206682205481199
539,0.0205288047261027
540,0.0206267237054592
541,0.0204972098122274
542,0.0203665047810189
543,0.0204709649932314
544,0.0206024244916521
545,0.0204823413591114
546,0.0206395935976782
547,0.020640058070319
548,0.0206405225429597
549,0.0206409870156005
550,0.020525978765453
551,0.0207275616212237
552,0.0208554230393466
553,0.020693724937912
554,0.0205956501865539
555,0.0208234037414537
556,0.0205669879057236
557,0.0205344369734874
558,0.0203854147430497
559,0.0202460426404753
560,0.020452015412866
561,0.0201408879024943
562,0.0204756560228602
563,0.0201685645937938
564,0.020253044672432
565,0.0199174755613314
566,0.019790902207735
567,0.0195512757544879
568,0.0196646234380034
569,0.0194032070812642
570,0.0193518559251948
571,0.0194037024595525
572,0.0194022767509648
573,0.0194025610958389
574,0.0194985114175455
575,0.0192726619147558
576,0.0193344508260268
577,0.0193962397372977
578,0.0194580286485686
579,0.0195198175598396
580,0.0195816064711105
581,0.0198206925695575
582,0.0196986343825576
583,0.0197712119002773
584,0.019372570666142
585,0.0192265427340271
586,0.0185594524418578
587,0.018146815150124
588,0.0178264745776673
589,0.0175061340052106
590,0.017185793432754
591,0.0172285258854776
592,0.0173911129084028
593,0.0174511995803739
594,0.0177417861719499
595,0.0177429184114723
596,0.0179426505514969
597,0.0181017109182041
598,0.0182007783560048
599,0.0182699789380679
600,0.0184957081096406
601,0.0186334455532562
602,0.0187444930612165
603,0.0186648301364616
604,0.0188504952618817
605,0.0187375486880953
606,0.0187469330231481
607,0.0186434158456042
608,0.0183854518280766
609,0.0183746038209367
610,0.0182190511320517
611,0.0180665785158561
612,0.0179127174590029
613,0.0178184197320662
614,0.0175623705809637
615,0.0177279934515454
616,0.0175256597568963
617,0.0176815213572127
618,0.017601141698988
619,0.0176410683582336
620,0.0175489310724517
621,0.0176357101691156
622,0.017255678408843
623,0.0172005451334768
624,0.0170181938231947
625,0.0168358425129125
626,0.0166534912026304
627,0.0166138782935086
628,0.0164806161131212
629,0.0164116061598821
630,0.0165526450688183
631,0.0163292800276164
632,0.0163780324914198
633,0.0164669203249429
634,0.0164937213201747
635,0.0165383982525402
636,0.0164151737685951
637,0.0165275938461722
638,0.0163917006109009
639,0.0164475043193972
640,0.0163200159207647
641,0.016243448251175
642,0.0160885097529358
643,0.0158589123289881
644,0.0156293149050403
645,0.0153997174810925
646,0.0153476328610015
647,0.0152426336631853
648,0.0148920947225495
649,0.0151375833459822
650,0.0149704197701508
651,0.0150940783863552
652,0.0149236571540868
653,0.0146493925569719
654,0.0143778572567183
655,0.0145207106450446
656,0.0143409452589924
657,0.0145139530733263
658,0.0146877313124374
659,0.0150657246420976
660,0.0152065385866884
661,0.0152520795747511
662,0.0153243566546538
663,0.015211782827308
664,0.0151009013700084
665,0.0151199077909202
666,0.0151390165449167
667,0.0151221557504466
668,0.0150910643651196
669,0.0147910680655589
670,0.0148199196499564
671,0.0147087827651115
672,0.0146567000186386
673,0.014666608123705
674,0.0146685507917441
675,0.0146292310780892
676,0.0145009719633517
677,0.0145959690426827
678,0.0144017876094134
679,0.0143065007105131
680,0.0146168803485802
681,0.0143166551185277
682,0.0139481822135929
683,0.0136214925147604
684,0.0130592886418794
685,0.0126004061061786
686,0.0122208665968671
687,0.0118655680134657
688,0.011670119149905
689,0.0116501839187938
690,0.0117530114838012
691,0.0119230457753031
692,0.0118813309451728
693,0.0118886327836085
694,0.0120996830389059
695,0.0121334159455352
696,0.0122972027889988
697,0.0123637521900126
698,0.0121564275564897
699,0.0121893867316063
700,0.0123654546039759
701,0.0122940922077605
702,0.0125213441329044
703,0.0125846475536281
704,0.0128409491011132
705,0.0128435494410294
706,0.0131211210966336
707,0.0132975065179187
708,0.0132931844109908
709,0.013526082563022
710,0.0133520513866335
711,0.013367717836825
712,0.013333701969671
713,0.0126624403847885
714,0.0122047329606383
715,0.0113667899936414
716,0.0105624143863576
717,0.00999565522414462
718,0.00981854475836957
719,0.00976377673490378
720,0.00995003260992884
721,0.00988759606983302
722,0.0101425690216777
723,0.0100440980499836
724,0.00997067530427492
725,0.00994309224296229
726,0.0099110626710985
727,0.0100590143504563
728,0.0102130050091426
729,0.0105201711973443
730,0.0108982764040703
731,0.0113695605693722
732,0.0118420072157643
733,0.0123080856295645
734,0.0127006213592583
735,0.0127948480116249
736,0.0130501891483507
737,0.013196164995954
738,0.0133421408435573
739,0.0134881166911606
740,0.0138271409311972
741,0.0139187529924341
742,0.0140129910489376
743,0.014107229105441
744,0.0142014671619444
745,0.0142794706530808
746,0.0142380355064883
747,0.0142762646257748
748,0.0140526309380718
749,0.0141192349163524
750,0.014073720305756
751,0.0139872115652848
752,0.0141231583681389
753,0.0138387998027327
754,0.0137391520258204
755,0.012772626345833
756,0.0118061006658456
757,0.0108395749858583
758,0.00930584849997508
759,0.00794457279902355
760,0.0069375811361211
761,0.00660808236065919
762,0.00684739018738238
763,0.00742599851039018
764,0.00825344918894856
765,0.00908187032408184
766,0.0100967745291248
767,0.0110800192839733
768,0.0116708553702096
769,0.0120288909076411
770,0.0123313601597159
771,0.0124352266375008
772,0.0125909873827095
773,0.0127397148540727
774,0.0125845056682989
775,0.0125935306333276
776,0.0126234267203877
777,0.0124134325734194
778,0.0124996878366133
779,0.0123139025911446
780,0.0124314161635453
