"wavelength","measurement"
380,0.00955832707090115
381,0.00918891066678364
382,0.00897784131528163
383,0.0088199785597278
384,0.00883347723386185
385,0.00927467348576949
386,0.00964155853695495
387,0.0100026104139139
388,0.0103963375203667
389,0.0105657647045527
390,0.0104457277307858
391,0.0103455941811305
392,0.0103079143065182
393,0.0103615744944018
394,0.0105598786133752
395,0.0110556801443205
396,0.0122591966962237
397,0.0134708869492697
398,0.0146825772023158
399,0.0158942674553619
400,0.0165574076310332
401,0.0173356226351444
402,0.0178514012238102
403,0.0178213611438384
404,0.0177792928738161
405,0.0175749821425429
406,0.0178642685179568
407,0.0178607405926598
408,0.0178708820300411
409,0.0180702970571644
410,0.018651254790782
411,0.0186588773468974
412,0.0190987338463318
413,0.0192780437013431
414,0.0191325110147644
415,0.0191758766090325
416,0.018882417672183
417,0.0187148230334982
418,0.0189034751501141
419,0.0183778335245306
420,0.0187735546182602
421,0.018623598678677
422,0.0187158036216169
423,0.0187146761309414
424,0.0187885934943559
425,0.0183223067817706
426,0.0180199573330376
427,0.0174884843562013
428,0.0169154838798355
429,0.0169045530999996
430,0.0168545935401696
431,0.0175312286854106
432,0.0181454549453705
433,0.0187074860080177
434,0.0194744447073964
435,0.0198285691228486
436,0.0199435550521056
437,0.0202271970432433
438,0.020510839034381
439,0.0207944810255188
440,0.0208206612984198
441,0.021213206458893
442,0.0216152725224613
443,0.0217945604556053
444,0.0221179412793335
445,0.0224413221030618
446,0.0227647029267901
447,0.0230969338034114
448,0.0231808032786444
449,0.0239804235359025
450,0.0238889927943455
451,0.0236202765062137
452,0.0235366784806976
453,0.0234530804551814
454,0.0233694824296653
455,0.0234063230142781
456,0.0233512436362787
457,0.0236802556508206
458,0.0237501858992313
459,0.0241232942577835
460,0.0241315534991449
461,0.0239093869437721
462,0.0244547761253764
463,0.0237853523569332
464,0.0235000338937313
465,0.0232996453897792
466,0.0230045248192565
467,0.0228736262579326
468,0.0227085968659745
469,0.0224382081021934
470,0.0229987207438003
471,0.0228953199512292
472,0.0230654895737906
473,0.0233316047307267
474,0.023313723507971
475,0.0236042413702183
476,0.0231023431084104
477,0.0230960970526639
478,0.0230898509969174
479,0.0230836049411709
480,0.0230296079229752
481,0.022424952279882
482,0.0219747957342049
483,0.0218764584710733
484,0.0213396929878624
485,0.0209137300696654
486,0.0211062701070764
487,0.0213037361314404
488,0.0215175556655073
489,0.0221042708346593
490,0.0222742165114595
491,0.0223706425028313
492,0.0229186274909368
493,0.022659548046238
494,0.023000014851264
495,0.0227116202517929
496,0.0227317574894813
497,0.0222895918727825
498,0.0224522033348458
499,0.0218821955290047
500,0.0220490572770781
501,0.0218368473498651
502,0.0222354180395167
503,0.022309183869055
504,0.0221031356370147
505,0.0227987080254745
506,0.022711883084363
507,0.0228606910831102
508,0.0230042816936588
509,0.0230219633724785
510,0.0226298008042856
511,0.0229566349002723
512,0.0228005338985301
513,0.0221537338968029
514,0.0220826447689239
515,0.0217277102007262
516,0.0216285082783298
517,0.0216449429133194
518,0.0216482137757981
519,0.0220871207004145
520,0.0225687607336333
521,0.0228358609029292
522,0.0231029610722251
523,0.023370061241521
524,0.0232802629678909
525,0.0233360829262887
526,0.0234738598330964
527,0.0233895792284029
528,0.0235463926519027
529,0.0238836047306274
530,0.0238898479033006
531,0.0239644597626765
532,0.0239076703140052
533,0.0241787773753513
534,0.0242374893555583
535,0.0240131717223647
536,0.02424318085072
537,0.0240615500672009
538,0.0239060019414135
539,0.0237409771370299
540,0.0238999179938306
541,0.0236930346242554
542,0.0235330894235403
543,0.0236860459287411
544,0.0238030077335206
545,0.0236194542105132
546,0.0238690895319248
547,0.0238586047828699
548,0.0238481200338151
549,0.0238376352847602
550,0.0236860811803539
551,0.0238558642165837
552,0.02406377065136
553,0.023845881929591
554,0.0237442883359221
555,0.0239328788160855
556,0.0236276910579393
557,0.0235791703720588
558,0.0234232526899811
559,0.0231860289602594
560,0.0234623202948844
561,0.0230298106645524
562,0.0234153061756797
563,0.023022317415117
564,0.0231050398313057
565,0.0227324557283127
566,0.0225482875945374
567,0.0222924335381396
568,0.0223852539318608
569,0.0220839613140632
570,0.0220198483317083
571,0.0220403341059646
572,0.0220066599475219
573,0.0219486139417716
574,0.0220623191486128
575,0.0217798820895035
576,0.0218514142090989
577,0.0219229463286944
578,0.0219944784482898
579,0.0220660105678852
580,0.0221375426874806
581,0.0224370238716589
582,0.0223069219962308
583,0.0224007973866402
584,0.0219849760138404
585,0.0218178377981395
586,0.0211419175279241
587,0.0207183742312679
588,0.0204367131587766
589,0.0201550520862853
590,0.019873391013794
591,0.0200067770821708
592,0.020197700944621
593,0.0202467990512747
594,0.0205432683434229
595,0.0205512505768837
596,0.0207484165013469
597,0.0208752772848668
598,0.0209522898823679
599,0.0210289288379934
600,0.0212438368786297
601,0.0213755210825559
602,0.0215233238364775
603,0.0214145360429897
604,0.0216628553865221
605,0.0215484907598881
606,0.0215474641250698
607,0.0214504105251571
608,0.0211624086654516
609,0.0211600295922829
610,0.0209586849155041
611,0.0208859530958608
612,0.0206878600441283
613,0.0206187691551625
614,0.0204294191885648
615,0.0206091197318308
616,0.0204307014349001
617,0.0206416000260742
618,0.0205745228946214
619,0.0206385538356765
620,0.0205324157684497
621,0.0206551248171095
622,0.0202475422249561
623,0.0202118688019129
624,0.0200345753262002
625,0.0198572818504874
626,0.0196799883747746
627,0.0196454708988282
628,0.0195697373832192
629,0.0195518199272033
630,0.0197004415454485
631,0.0194872484228378
632,0.019645105974576
633,0.0197669163475901
634,0.019820705862758
635,0.0199633217053232
636,0.0197911110866336
637,0.019997289742491
638,0.0198897511345559
639,0.0199873329886651
640,0.0198809884607266
641,0.019821422347658
642,0.0196758231911166
643,0.019498970110229
644,0.0193221170293413
645,0.0191452639484537
646,0.019113994475828
647,0.0190793558583352
648,0.0187154062792642
649,0.019101773062077
650,0.0188940076689009
651,0.0190608996661191
652,0.0188568307284212
653,0.0185768401031238
654,0.0182807108368545
655,0.0184966311093573
656,0.0183515699516095
657,0.01861445413864
658,0.018816555549101
659,0.0193387739895585
660,0.019520602211973
661,0.0196050706777127
662,0.0197364898841747
663,0.0196206909220388
664,0.019489257988213
665,0.0195622028974022
666,0.019621276043982
667,0.019675594303366
668,0.0197164486110909
669,0.0193079004272338
670,0.0194347837658194
671,0.0193823964643175
672,0.0193192967882051
673,0.0193579154285001
674,0.019459277314221
675,0.0194414014380357
676,0.019447731388032
677,0.0196233588405126
678,0.0193579212529003
679,0.0193586569051912
680,0.0197800237768885
681,0.0194857502336226
682,0.0189959494264989
683,0.018593875831666
684,0.0178863680899016
685,0.0173109547389189
686,0.0168281414388323
687,0.0164284828121311
688,0.0163619446403454
689,0.0165298096961517
690,0.0167900049958409
691,0.017230004237057
692,0.0173257754341453
693,0.0176536678655777
694,0.0180379880687069
695,0.0182037065316112
696,0.0185684787374172
697,0.0188137083438631
698,0.0187201251948075
699,0.0189277493379543
700,0.0193954596265681
701,0.0194315214929945
702,0.0199664783794501
703,0.0201990690416721
704,0.0207267589088104
705,0.0209515491873853
706,0.0214928636884272
707,0.0220209028325154
708,0.022235677110553
709,0.022697084764707
710,0.0226776230210763
711,0.0229029332435159
712,0.0229773020791025
713,0.0221618096026495
714,0.021637750955565
715,0.0204785808704348
716,0.0194880064691135
717,0.0189219664504111
718,0.0188890656255444
719,0.0192847891830896
720,0.0197735741119889
721,0.0198223486493795
722,0.020547928087625
723,0.0205854213882622
724,0.0207184413073251
725,0.0210137346546873
726,0.0211444746488154
727,0.0217691362398231
728,0.0224110010210894
729,0.0233250265219157
730,0.0242937141512549
731,0.0255187810873901
732,0.0267126113945592
733,0.0279383888359496
734,0.0289319084177738
735,0.029519841023587
736,0.0303156697235265
737,0.03088941184326
738,0.0314631539629934
739,0.0320368960827269
740,0.0330968768344829
741,0.0335356871987343
742,0.0340207446903276
743,0.0345058021819209
744,0.0349908596735142
745,0.035298718732658
746,0.035435764155189
747,0.035819533353336
748,0.0355362925406212
749,0.0359913266536404
750,0.0361108820276131
751,0.0360539606795704
752,0.0366762080519186
753,0.0364074047673785
754,0.0358952508674639
755,0.0333878202200525
756,0.0308803895726411
757,0.0283729589252297
758,0.0243409036267741
759,0.0205727001033058
760,0.0181242881123241
761,0.0175395836500192
762,0.0182210704808922
763,0.0199467023716644
764,0.0225159213303383
765,0.0249511982464611
766,0.0280514139390234
767,0.0309515743032512
768,0.0327573322086473
769,0.0341013085595081
770,0.0351086044470868
771,0.0356517363243997
772,0.0361069412324233
773,0.0366606852362833
774,0.0364249034771922
775,0.0366160166980325
776,0.0367715004987258
777,0.0363487703746352
778,0.0368739011001987
779,0.0364590459126806
780,0.0369706392877184
