"wavelength","measurement"
380,0.019020646524482
381,0.0181108479842596
382,0.0176399160577782
383,0.0172759604827332
384,0.0172303230943401
385,0.0179663136948975
386,0.0186658257415613
387,0.0193753929868235
388,0.0200178477596679
389,0.0202447860180024
390,0.0199345998974242
391,0.0195953567956943
392,0.0194669749027859
393,0.019336856516387
394,0.0194747241717821
395,0.0204575094127278
396,0.0224039385031066
397,0.0245452193455169
398,0.0266865001879272
399,0.0288277810303376
400,0.0297641110674
401,0.0310090628983839
402,0.0317706806427984
403,0.0316567613386253
404,0.0312930350133303
405,0.0308821848395899
406,0.0311039559183734
407,0.030964246802765
408,0.0307907591509286
409,0.0311135240998415
410,0.0320628012412685
411,0.0319083902478161
412,0.0323654733909079
413,0.0327301116790321
414,0.032415644244782
415,0.0324289139389131
416,0.0318747215122258
417,0.0313357904344052
418,0.0316145914385979
419,0.030765382620071
420,0.0312768344736759
421,0.0309377126678149
422,0.031080558641719
423,0.0309597368301519
424,0.030965862646619
425,0.0302357569115174
426,0.0297425453917614
427,0.0287426063054351
428,0.0276895933160676
429,0.0276180705930665
430,0.0275447645758137
431,0.0284557479355951
432,0.0294602943974691
433,0.0302904238433368
434,0.0314477066415847
435,0.0319498060813151
436,0.0321218962243871
437,0.0325000303305681
438,0.0328781644367491
439,0.0332562985429301
440,0.0333100371104122
441,0.0338128414263277
442,0.0343612488306302
443,0.0345681371963115
444,0.0350178702276871
445,0.0354676032590626
446,0.0359173362904382
447,0.0364806362182298
448,0.036525408367961
449,0.0377514763723091
450,0.0374035909249166
451,0.0371074562501245
452,0.0369272597418957
453,0.0367470632336669
454,0.036566866725438
455,0.036431404643994
456,0.0364164835083454
457,0.0367122026374626
458,0.0368225012962851
459,0.0373269272986544
460,0.0372877353719563
461,0.0368261719324035
462,0.0376750554503288
463,0.0365546032226934
464,0.0360377883641487
465,0.0356802763268408
466,0.0351314102704808
467,0.0348889843421295
468,0.0345211926869054
469,0.0341728682352929
470,0.0348091848044897
471,0.0347127688399903
472,0.0348453031438316
473,0.0351070587108208
474,0.0351070859111214
475,0.0355296741034788
476,0.034726499430195
477,0.0346720680373398
478,0.0346176366444846
479,0.0345632052516294
480,0.0343629043305901
481,0.0334581387769469
482,0.0327755133120914
483,0.0325563606432045
484,0.031710634220085
485,0.0309928089770768
486,0.0312239716236416
487,0.0314624191505736
488,0.0317684051958042
489,0.0325675777216775
490,0.0327602062328779
491,0.0328759467940107
492,0.0336502246944958
493,0.0331784927229806
494,0.0336262747897294
495,0.0331156295553787
496,0.033205776166197
497,0.0325356694889916
498,0.0326238181590004
499,0.0318379627875313
500,0.0318987512991432
501,0.0315549404794461
502,0.0320008256624089
503,0.0321165997236265
504,0.0317450624839805
505,0.0327613648476468
506,0.0325394237739533
507,0.032735067263192
508,0.0329012120439018
509,0.0328809895013476
510,0.0324124044616793
511,0.0328354680021085
512,0.0326260208106629
513,0.0317032193411632
514,0.0314815992799041
515,0.0309491002073863
516,0.030747738188236
517,0.0307370468951058
518,0.0306502953327886
519,0.0313157493799022
520,0.0319133898242038
521,0.0322492190095545
522,0.0325850481949053
523,0.032920877380256
524,0.0327189123888189
525,0.0328213835233675
526,0.0328640730912839
527,0.0326792092987385
528,0.0329167537994381
529,0.0333544814686996
530,0.0333657998587499
531,0.0333897315987075
532,0.0332361797379259
533,0.0335545920924088
534,0.0336339950158141
535,0.0332640731474142
536,0.0335449590006672
537,0.0332799921564285
538,0.0329925935718
539,0.0327163378270431
540,0.0328474946436833
541,0.0325753376438751
542,0.03232689251503
543,0.0324402263849126
544,0.0326201144802173
545,0.0323426945013556
546,0.0325863391076688
547,0.032551806805793
548,0.0325172745039172
549,0.0324827422020415
550,0.0322511155506753
551,0.0325179363852655
552,0.0326711839290914
553,0.0323974439733742
554,0.0322438566095469
555,0.0324947778955051
556,0.0320553547157499
557,0.0319321341826788
558,0.0316648558178387
559,0.0313939964456807
560,0.0317242266207734
561,0.0310763320140038
562,0.0315644453851493
563,0.0310520146004879
564,0.0310781799534325
565,0.0305511551262973
566,0.0302475804969981
567,0.0298610781231775
568,0.0299268380055479
569,0.0294977458714146
570,0.0293791318090463
571,0.0293606801288795
572,0.0292798638267778
573,0.0292004700771247
574,0.0293156128286905
575,0.0288822868625515
576,0.0289792391014696
577,0.0290761913403877
578,0.0291731435793058
579,0.0292700958182238
580,0.0293670480571419
581,0.029755184088851
582,0.0295314124873171
583,0.0297035740651177
584,0.0290969187327744
585,0.0288275778061837
586,0.0277939684595836
587,0.0272241407757005
588,0.0267779340960473
589,0.0263317274163941
590,0.0258855207367409
591,0.02596673242052
592,0.0262624494601618
593,0.026347279987114
594,0.0267689210388053
595,0.0267421544378296
596,0.027009840589799
597,0.0272204149283154
598,0.0273338994681892
599,0.0274641519268365
600,0.0277700641907085
601,0.0279944191835239
602,0.0281312273777419
603,0.0280325437916837
604,0.0283190732784322
605,0.0281682546780227
606,0.0281926620924149
607,0.0279986270195017
608,0.0276522603184724
609,0.0276581093357754
610,0.0274262610125018
611,0.027227645840625
612,0.0270165704295607
613,0.0268910601278994
614,0.0264971794771086
615,0.026827428762512
616,0.0264966817665029
617,0.0267391877382146
618,0.0266762249519863
619,0.0267486045370452
620,0.0266727656970238
621,0.0267429795893069
622,0.0262360693454969
623,0.0261248154101257
624,0.025878159960167
625,0.0256315045102083
626,0.0253848490602496
627,0.0252935859141527
628,0.0251671131842974
629,0.0250893531901911
630,0.0253479637058685
631,0.0250860063885883
632,0.0252903840307275
633,0.0254995782294151
634,0.0255148818529476
635,0.0257067978618132
636,0.0255110160247159
637,0.0257741998559179
638,0.025603833251402
639,0.0256834985096528
640,0.0255437913338938
641,0.0254754769291522
642,0.0252723754310094
643,0.0249862186417223
644,0.0247000618524352
645,0.0244139050631481
646,0.0242879232020307
647,0.0242367479270679
648,0.0237458387245968
649,0.0241867576694148
650,0.0239778381706756
651,0.0242021880029295
652,0.0239942828795771
653,0.0235234112729162
654,0.0231990332877564
655,0.023444688038883
656,0.0232242478362067
657,0.0235933641929009
658,0.0238714412174721
659,0.0245401486466311
660,0.0247050258642328
661,0.024813535238431
662,0.0249501233076287
663,0.0248026040520725
664,0.024664249612704
665,0.0247005937458792
666,0.0247883830735732
667,0.0247864701188204
668,0.0247831643168853
669,0.0243759871706383
670,0.0244772479864989
671,0.0243668455844239
672,0.0242499194893878
673,0.0243817716126061
674,0.0244435498353923
675,0.0244171946540269
676,0.0243738599400488
677,0.024634248278956
678,0.024359814735072
679,0.0242983494786003
680,0.0248970881655788
681,0.024419831473842
682,0.0239236802827224
683,0.0233846226388745
684,0.0224930301187534
685,0.0217349457183547
686,0.0211532703963563
687,0.0206762771211303
688,0.0205236390494334
689,0.0207620802216423
690,0.0211556587768739
691,0.021743042221171
692,0.0219326835638759
693,0.0224035754622498
694,0.0229848797889549
695,0.0232255333243906
696,0.0238399580637884
697,0.024264954809465
698,0.0241567120973121
699,0.0244728185687684
700,0.0251527525574044
701,0.0252128510267626
702,0.0259585057356202
703,0.0264069020504176
704,0.0272109354483956
705,0.0275555707275234
706,0.028238860932154
707,0.0290243461536605
708,0.0293285980758783
709,0.029979288986965
710,0.0300229853948815
711,0.0303089339770959
712,0.030452109684937
713,0.0293001818747964
714,0.0285721367671848
715,0.026981302038019
716,0.0255576207834424
717,0.0246919958561008
718,0.0246539417715852
719,0.0250104448428
720,0.0256758879960411
721,0.0257284080714074
722,0.0266717521035657
723,0.026759425817209
724,0.0267982885057928
725,0.027050447845265
726,0.0272068683852675
727,0.0279313434151093
728,0.0286688508267886
729,0.0297647323487904
730,0.030999109041415
731,0.0325365423868004
732,0.0340358841376915
733,0.0356385715014339
734,0.0367246398451154
735,0.0374319912445137
736,0.0382955905377283
737,0.0389929490308001
738,0.0396903075238718
739,0.0403876660169436
740,0.0415237758058285
741,0.0421418276099699
742,0.0426567009044835
743,0.0431715741989971
744,0.0436864474935107
745,0.0440437777700096
746,0.044176181051576
747,0.0445435085800106
748,0.0441976440924753
749,0.0446021559123812
750,0.0447407491401491
751,0.0447200272207889
752,0.0453561954818712
753,0.0450324493902013
754,0.0445271598421627
755,0.0413702897820071
756,0.0382134197218515
757,0.0350565496616959
758,0.0299297744000113
759,0.0253211734665818
760,0.0218941055633549
761,0.0211009379646161
762,0.0220444778287841
763,0.0241219581262001
764,0.0273066970188689
765,0.0305677305807001
766,0.0342757534753472
767,0.0380507871069949
768,0.040147301633058
769,0.0418536206569984
770,0.0430301260418562
771,0.0436488877300489
772,0.0442619038675868
773,0.0449399465509127
774,0.0446592315920077
775,0.0447680808937075
776,0.0450511439989046
777,0.0445557641589858
778,0.0451935997702692
779,0.0447601368890743
780,0.0453448547587072
