"wavelength","measurement"
380,0.00883199278552283
381,0.00853237033228084
382,0.00851544016918583
383,0.0082489663032397
384,0.00835149402166653
385,0.00883145934127219
386,0.00915670195273945
387,0.00959454894648802
388,0.00998486990849589
389,0.0101752664285593
390,0.0100818863800274
391,0.010057223609863
392,0.0100595449786002
393,0.0100709599617796
394,0.010387474983328
395,0.0110932091821267
396,0.0124639350369649
397,0.0137388228789896
398,0.0150137107210143
399,0.016288598563039
400,0.0169992954496991
401,0.0177686773518177
402,0.0184688062134713
403,0.0186327889506013
404,0.0187866639503944
405,0.0187973811342164
406,0.0190534575730645
407,0.0193166445485362
408,0.0194339299159404
409,0.0198619463334331
410,0.0206989850247853
411,0.0207233032998537
412,0.0212976605750228
413,0.0215015454638568
414,0.0214088928655704
415,0.0215771865986142
416,0.0215174588441876
417,0.0211356093662561
418,0.0214414723861197
419,0.0209706044970444
420,0.0214820677917823
421,0.0213175054588031
422,0.0214875820981951
423,0.0213756864419683
424,0.0214502059578752
425,0.0209525233052013
426,0.0206655942331306
427,0.0199833821262143
428,0.0195186829143284
429,0.0194807658632544
430,0.0195161786187772
431,0.0203591481224463
432,0.0210707569471729
433,0.0217517142294431
434,0.0225766321254046
435,0.0228497658369687
436,0.0231006435310099
437,0.0233974282351986
438,0.0236942129393873
439,0.0239909976435761
440,0.0241845334583339
441,0.024476175500378
442,0.0249176695127313
443,0.0251093548929176
444,0.0255061738880597
445,0.0259029928832019
446,0.026299811878344
447,0.0266289971124519
448,0.0266922117225067
449,0.0275394603951808
450,0.0272855261135691
451,0.0271171731778018
452,0.0270043572619584
453,0.026891541346115
454,0.0267787254302716
455,0.0267355332877176
456,0.0268047901296738
457,0.0270293108014798
458,0.027226723005537
459,0.027543989560289
460,0.0276123105776749
461,0.0273006532371892
462,0.0279044628154392
463,0.0270580120680518
464,0.0267771536945483
465,0.0265381938108878
466,0.0261956968106938
467,0.0262072708159959
468,0.0260598289327633
469,0.0258583407521936
470,0.0265625604733201
471,0.0264594505266295
472,0.026585212623819
473,0.0268759971412529
474,0.0269105812219446
475,0.0272577458484794
476,0.0266878503398476
477,0.0266911257664244
478,0.0266944011930011
479,0.0266976766195778
480,0.0266198160732714
481,0.0258968584490275
482,0.0254601876441309
483,0.0253704619925757
484,0.0248808890290095
485,0.0244152644562039
486,0.0247103015173804
487,0.0250195003460732
488,0.0252776901283195
489,0.0258825108994941
490,0.0260875380062552
491,0.0260800200288862
492,0.0267466912265769
493,0.0263760678266585
494,0.0266881149999223
495,0.0262199270057756
496,0.0263381958917725
497,0.025750263080392
498,0.025936287751146
499,0.0253664341602331
500,0.025527809181461
501,0.025252160498497
502,0.0256709524212241
503,0.0258186357641866
504,0.0253967134648697
505,0.0262892770009907
506,0.0260904396884353
507,0.026102814902025
508,0.026164079070967
509,0.0261299263734389
510,0.0256406166341478
511,0.0259118351486579
512,0.0255996059298808
513,0.0248485640296459
514,0.024641902913637
515,0.0242440862044945
516,0.0240822610475712
517,0.0240519048776981
518,0.0240662957777977
519,0.0244711882765893
520,0.0248388010948331
521,0.0250036486144009
522,0.0251684961339688
523,0.0253333436535366
524,0.0251531484042321
525,0.0250748421315385
526,0.0250952826984857
527,0.025011496685695
528,0.0251039570244903
529,0.0253711089889744
530,0.0253001895963597
531,0.0252913484512228
532,0.0251550787424795
533,0.025398841077929
534,0.0254021161197964
535,0.0252071283730129
536,0.025334869118599
537,0.0251386430833553
538,0.0248721343709013
539,0.024710906307493
540,0.0248522075938558
541,0.0246458914597385
542,0.0244836110198032
543,0.024574003912741
544,0.0246868112928888
545,0.0244875533840772
546,0.0246647787966392
547,0.0246262599520727
548,0.0245877411075062
549,0.0245492222629396
550,0.0243854061603576
551,0.0245924903450732
552,0.0248151000241045
553,0.0245553530654706
554,0.0244055813593746
555,0.0246528667924445
556,0.0242928283337656
557,0.0242940029850169
558,0.0240860320535105
559,0.0239120745786304
560,0.0242020994457162
561,0.0236504792078604
562,0.0240373554071378
563,0.0236210621846073
564,0.0236820509647268
565,0.0233428103121787
566,0.0231987365035638
567,0.0228565881431636
568,0.0229922017006595
569,0.0228004893210603
570,0.0227182884697495
571,0.0228384222166753
572,0.0228240119900661
573,0.02282598548739
574,0.0229339449741998
575,0.0227343842295528
576,0.0228463384705748
577,0.0229582927115968
578,0.0230702469526188
579,0.0231822011936408
580,0.0232941554346628
581,0.0236085232819434
582,0.0234741942802365
583,0.0236309814140016
584,0.0231591319097991
585,0.0230612795477778
586,0.0224121420356428
587,0.0220462977177234
588,0.021849110691165
589,0.0216519236646065
590,0.0214547366380481
591,0.0215486323790628
592,0.0217775003357921
593,0.0218029138957486
594,0.0221562670853226
595,0.0221115650241601
596,0.0223503618225041
597,0.0225357351838787
598,0.0224494950746188
599,0.0226171218500417
600,0.022821282442462
601,0.0230203068161102
602,0.0231061415128101
603,0.0230126564279182
604,0.0232142034904093
605,0.0229794507621166
606,0.0231183723137976
607,0.0229629435270875
608,0.02271975121044
609,0.0227481958219276
610,0.0225726400635746
611,0.0223757883787187
612,0.0222966292181977
613,0.0221968465247015
614,0.0220070869568078
615,0.0223097762311949
616,0.0220279729191046
617,0.0222644383871144
618,0.0222273457482281
619,0.0222957190804261
620,0.022194071040506
621,0.0223021286862423
622,0.0218946974864632
623,0.021829643241006
624,0.0216474452510162
625,0.0214652472610265
626,0.0212830492710366
627,0.0212311739526631
628,0.0211655911577914
629,0.0211683251571458
630,0.0213920473363974
631,0.0211384084846576
632,0.0213971405503128
633,0.021505209112403
634,0.021628212147771
635,0.0217307447435253
636,0.0215752978934014
637,0.0218046230729939
638,0.0217087667798945
639,0.0218043747422054
640,0.0216859461998561
641,0.0216724026546299
642,0.0216047087160982
643,0.0214225685966754
644,0.0212404284772525
645,0.0210582883578297
646,0.0211278068710774
647,0.0211397108399773
648,0.0207926085040045
649,0.0211856293842453
650,0.020961292330298
651,0.02103536375737
652,0.0208472410201271
653,0.0205271193742991
654,0.0202095845942961
655,0.0205243258385514
656,0.0205087071207398
657,0.0207780137131914
658,0.020946229798275
659,0.0214458467387618
660,0.0215925920677098
661,0.0216762320940897
662,0.0216730679860963
663,0.0217001491116228
664,0.0215344214614745
665,0.0216528590965528
666,0.0216194461756973
667,0.0216520146926165
668,0.0218044199828778
669,0.0213375707684436
670,0.0214364073940586
671,0.021460758746745
672,0.0213681737795612
673,0.0214547829511737
674,0.0215282549866257
675,0.0214486000427675
676,0.0214536260803252
677,0.0216657629263253
678,0.021380316287488
679,0.0213867218023542
680,0.0217947395879182
681,0.0213035209787366
682,0.0206559291410013
683,0.0201799177459649
684,0.0193249016544827
685,0.0186277919854369
686,0.0181301510004867
687,0.017929374484084
688,0.0178253653052957
689,0.0180246101213657
690,0.0183519645116416
691,0.0187973997207788
692,0.0190477678482481
693,0.01936202850798
694,0.0196939306434085
695,0.0196858141989234
696,0.0201761722130213
697,0.0200460746041672
698,0.0199596786684532
699,0.0200442401131987
700,0.0204080502136391
701,0.0203521521141521
702,0.0207757763049883
703,0.020764226434708
704,0.0212044972055259
705,0.0211993470269178
706,0.0215661067798553
707,0.0219201861875914
708,0.0218614239183757
709,0.0221801099000229
710,0.0218944129767091
711,0.0218525794399621
712,0.0216876434935333
713,0.0206808435193465
714,0.0200523031471126
715,0.019020943510542
716,0.0181579203667033
717,0.0176957432584726
718,0.0175646557704687
719,0.0178919886766353
720,0.0180210771014233
721,0.017754564738536
722,0.0181137341433653
723,0.0180928421026189
724,0.0181234418776761
725,0.0181491723926882
726,0.0180446718289769
727,0.0185062050397839
728,0.0188048779489674
729,0.0193859812577249
730,0.0198824601770287
731,0.020503115430923
732,0.021159599483279
733,0.0218596582744925
734,0.022142191798535
735,0.0223525925091246
736,0.0227260312741587
737,0.0229342319272175
738,0.0231424325802763
739,0.0233506332333351
740,0.0237220774976312
741,0.0239381914806054
742,0.0240787990966926
743,0.0242194067127798
744,0.024360014328867
745,0.02431832702003
746,0.024343380492987
747,0.0244699423963072
748,0.0242443681572351
749,0.0243054051295988
750,0.0243286395210334
751,0.0243232422095478
752,0.0245947882278531
753,0.0242080125816224
754,0.0234605303807179
755,0.0214935210114339
756,0.0195265116421499
757,0.0175595022728659
758,0.0147776997493059
759,0.0126864684255789
760,0.0117824087580592
761,0.0115956256850852
762,0.012301565830061
763,0.0137366208449815
764,0.0154206715698139
765,0.0172038017370404
766,0.0190617462004687
767,0.0209158354782917
768,0.0218436442688817
769,0.0227094653258788
770,0.023261085983745
771,0.0235034064815689
772,0.0237730881372599
773,0.0241188403211554
774,0.0240452891146362
775,0.0240547925190956
776,0.0241963411582017
777,0.0238418471663622
778,0.0243292064065291
779,0.0240221545597165
780,0.0243157838773795
