"wavelength","measurement"
380,0.00859952359835061
381,0.00829073095299916
382,0.00830238866673823
383,0.0082489663032397
384,0.00809629204211599
385,0.00862817361170143
386,0.00897905247178797
387,0.00938496582615632
388,0.00978929169473825
389,0.00993219940714408
390,0.00990736369810464
391,0.00981456823986049
392,0.00982672107052977
393,0.00985040238995488
394,0.0101282221787052
395,0.0110103884212986
396,0.0120986513386677
397,0.0134210717810535
398,0.0147434922234393
399,0.0160659126658251
400,0.0167295323962403
401,0.017665622172345
402,0.0181823318643631
403,0.0183001045407773
404,0.0184383718210489
405,0.0185178085151773
406,0.0186785920312451
407,0.0190000561468776
408,0.0191773747418522
409,0.0195340265697481
410,0.020447430977435
411,0.0205211123878701
412,0.021007884256072
413,0.0211732315658404
414,0.0211667805250911
415,0.0212359976457737
416,0.0210866437443975
417,0.020783866371876
418,0.0210848246089494
419,0.0206229780167918
420,0.0211562325607831
421,0.0210182436402777
422,0.0212109216939376
423,0.0210933110899062
424,0.0212760861688245
425,0.0207431766654684
426,0.0203131680725762
427,0.019810637428053
428,0.0192006712498065
429,0.0192142609869347
430,0.0193116666935089
431,0.0200162337370886
432,0.0208366061201869
433,0.0214166562550902
434,0.0221552039916063
435,0.0224876702474851
436,0.0227436892049153
437,0.0230534365493351
438,0.023363183893755
439,0.0236729312381749
440,0.0237445481664344
441,0.0241834563117531
442,0.0246529426201731
443,0.0247064620208687
444,0.0250890513068923
445,0.0254716405929158
446,0.0258542298789393
447,0.0262682328211542
448,0.0262289287123539
449,0.027098818212729
450,0.0269044858005585
451,0.02669576475072
452,0.0266090814008021
453,0.0265223980508841
454,0.0264357147009661
455,0.0263869871606918
456,0.0263732568295467
457,0.0266165645711471
458,0.0268385269647772
459,0.0271940420667518
460,0.0272279529673754
461,0.026889912712676
462,0.0273943654052626
463,0.0266061414364269
464,0.0263333036965664
465,0.0261964180358206
466,0.0258648341773347
467,0.0258201323690252
468,0.0255742028852932
469,0.0255517918278086
470,0.0260744645173736
471,0.0261377318097577
472,0.0262729487516294
473,0.0264722809663785
474,0.0265419955538047
475,0.026824198083992
476,0.0263200792159926
477,0.0263493894047903
478,0.026378699593588
479,0.0264080097823857
480,0.0263026868317247
481,0.02556589071318
482,0.0251939280069508
483,0.0250243244642415
484,0.0245100348988292
485,0.0241018838700755
486,0.0244751128033218
487,0.024622826037919
488,0.0249350910504267
489,0.0254822017969507
490,0.0256145768086326
491,0.0258090395382705
492,0.0262809470664884
493,0.0260221351971042
494,0.0262951718301049
495,0.0258920422762534
496,0.0259298727244916
497,0.0253918635950824
498,0.0255549759233738
499,0.0250048159112174
500,0.0251082925991697
501,0.0248592786384644
502,0.0253284168427514
503,0.0253771877959908
504,0.025169341748383
505,0.0258515952052944
506,0.0256675007063668
507,0.0257258122762756
508,0.0258663324799822
509,0.0257688993259203
510,0.0252819543926173
511,0.0255555377131155
512,0.0253335652562181
513,0.0244788572682968
514,0.0243586955002087
515,0.0239427048191205
516,0.0237711576820239
517,0.0237760765348068
518,0.0236757349310498
519,0.0241050812754666
520,0.0244954575409811
521,0.0246496298591965
522,0.0248038021774118
523,0.0249579744956272
524,0.0247520773086481
525,0.0248534962910511
526,0.0247547506361974
527,0.0246160485732384
528,0.0248045463107731
529,0.0250021992548287
530,0.0249653330684429
531,0.0249224387170771
532,0.0248296814385152
533,0.025101821445822
534,0.0251372578491277
535,0.0248476778628197
536,0.0249813568989982
537,0.0247965344837416
538,0.0245661372345802
539,0.0244315176178084
540,0.0245714000205784
541,0.0243827148288836
542,0.0241795144868132
543,0.0242685060132396
544,0.0243373980703341
545,0.024160662748924
546,0.0243815013148853
547,0.0243203825158077
548,0.0242592637167301
549,0.0241981449176525
550,0.0241434514736108
551,0.0242053628462784
552,0.0244227174008916
553,0.0242069383165553
554,0.0240997506353267
555,0.0243257134010705
556,0.0239941620960076
557,0.0239197395928704
558,0.0236937457742453
559,0.0235509599457049
560,0.0237992941590743
561,0.0233780535580298
562,0.0237356762313801
563,0.0233126914837574
564,0.0233956466839442
565,0.0230174130082144
566,0.0228951479659343
567,0.0225633522006375
568,0.02282035913219
569,0.0224319824797867
570,0.0224174851480615
571,0.0225341505128714
572,0.02251908339571
573,0.0225367959906659
574,0.0226690210144759
575,0.0223749337193597
576,0.0224998891381919
577,0.0226248445570241
578,0.0227497999758563
579,0.0228747553946885
580,0.0229997108135207
581,0.0232963688915125
582,0.0231972492234064
583,0.0232620716798559
584,0.022894343707456
585,0.0227396659333944
586,0.0220905284212594
587,0.0217307975647464
588,0.0215414990638421
589,0.0213522005629378
590,0.0211629020620335
591,0.0213044792986012
592,0.0214475223150434
593,0.0214857496200391
594,0.0218272087113471
595,0.0218587935396529
596,0.0220353696648875
597,0.022219271591425
598,0.0222492222830477
599,0.0222690749598356
600,0.0225502931933056
601,0.0227280255545201
602,0.0228525730010995
603,0.0226597660647068
604,0.0229614320059021
605,0.0227096877086577
606,0.0228389748655724
607,0.0226594600919464
608,0.0224365000043082
609,0.0223947449121117
610,0.0222711010244681
611,0.0221798050824538
612,0.0219816370605811
613,0.0219246310798476
614,0.0216848164518721
615,0.0220235208456041
616,0.0217581047631574
617,0.0220210604375044
618,0.0219252111283542
619,0.0219986293799935
620,0.0218945289486783
621,0.0220282053259526
622,0.0216235155494115
623,0.0215115330429014
624,0.0213547669355812
625,0.0211980008282611
626,0.021041234720941
627,0.0209305917841277
628,0.0209145888985049
629,0.0209305964662852
630,0.0211063524974113
631,0.0208796899510173
632,0.0210707973239532
633,0.0212339921411885
634,0.0213181598071073
635,0.0214469680249517
636,0.0213228504749
637,0.0215203733932228
638,0.0214274687283381
639,0.021525012328143
640,0.021446916865702
641,0.0213850349343706
642,0.0212796135817879
643,0.0211040642642393
644,0.0209285149466908
645,0.0207529656291422
646,0.0208629486004087
647,0.0208321722004935
648,0.0205742580844354
649,0.0209053210477876
650,0.0206886039242465
651,0.0208044010391977
652,0.0205970970978289
653,0.0202078705659039
654,0.0199893423299365
655,0.0202024407094064
656,0.0201923486307745
657,0.0205398251989442
658,0.020626367892031
659,0.0211646713067752
660,0.0213057498598924
661,0.0214343649927499
662,0.0213609135956654
663,0.0213844913049132
664,0.0213279651401715
665,0.0213318323043961
666,0.0213532128141393
667,0.0214502617076677
668,0.0214589831377993
669,0.0210625963832702
670,0.0212058125345955
671,0.0211738990218462
672,0.0211042789483692
673,0.0211414461577487
674,0.0212110425389424
675,0.0211964066219463
676,0.0212030091968294
677,0.0214288619175606
678,0.0211012166296465
679,0.0211016750953796
680,0.0216062119994214
681,0.0211915868286326
682,0.0204061005261682
683,0.019969502564267
684,0.0191260740221266
685,0.0184079175797866
686,0.0179132457401325
687,0.0176967388846386
688,0.0176414359506647
689,0.0177835050130665
690,0.0181899052331302
691,0.0185860999264705
692,0.018853328244781
693,0.019114074220856
694,0.0193763809919084
695,0.0194280853803818
696,0.0198480072101968
697,0.0198903827847424
698,0.0196978858870284
699,0.0197355234499912
700,0.0202827505304319
701,0.0201491729335057
702,0.020488419532905
703,0.0205353132150586
704,0.0209566830550531
705,0.0209252047031106
706,0.0213873449642353
707,0.0217391471513903
708,0.02165065839505
709,0.0219528257689431
710,0.021667501083609
711,0.021601796144193
712,0.0214944476028451
713,0.0205113657568651
714,0.0199292894430273
715,0.0187426583969853
716,0.0180063538199466
717,0.017632313906747
718,0.0174665250805027
719,0.0175985775632954
720,0.0179033623144594
721,0.0175790435829739
722,0.0179330629658735
723,0.0179254138386605
724,0.0179003618461308
725,0.0180465923640483
726,0.017972098560764
727,0.0183154221270577
728,0.0185814213001721
729,0.0192657440110404
730,0.0197498821465025
731,0.0203816081958375
732,0.0209339444407688
733,0.0216169853874087
734,0.0219519562946023
735,0.0221772465243764
736,0.0225336937204588
737,0.0227440752501511
738,0.0229544567798434
739,0.0231648383095357
740,0.0235253781906644
741,0.023668621115042
742,0.0238435271764975
743,0.024018433237953
744,0.0241933392994086
745,0.0241340735993932
746,0.0241873032977715
747,0.0242797419265374
748,0.0240258250497706
749,0.0241198466863982
750,0.0242421489316533
751,0.0240443702737644
752,0.0244196174139188
753,0.0240770198469624
754,0.0232334739716962
755,0.0212741487621168
756,0.0193148235525374
757,0.017355498342958
758,0.0146646620230741
759,0.0126029776363875
760,0.011656531011166
761,0.0115956256850852
762,0.0122563192088218
763,0.0136076403850465
764,0.0153710456782263
765,0.0170462355899065
766,0.0188558679428518
767,0.0207578314041229
768,0.021626870386638
769,0.0223722177163518
770,0.0229787106316829
771,0.023309597493032
772,0.0236066671054816
773,0.0240159449850504
774,0.0237850290778333
775,0.0239047061657167
776,0.0239702131544939
777,0.0237454857016169
778,0.0240095109125583
779,0.0238395652618121
780,0.0241087319753091
