"wavelength","measurement"
380,0.00919720641549445
381,0.00892864174756301
382,0.00885023538731776
383,0.00877027464550818
384,0.00876786409821249
385,0.00923890665448337
386,0.00960950974821892
387,0.00996266165343026
388,0.0105157250601238
389,0.0106334782436487
390,0.0105127540310616
391,0.0105288929227328
392,0.01058464138972
393,0.0106434094231762
394,0.0109837564339604
395,0.0117283960705339
396,0.0128183231106354
397,0.0142390056210976
398,0.0156596881315599
399,0.0170803706420221
400,0.01763691721242
401,0.0185881811602817
402,0.0192026142701235
403,0.0193837111957749
404,0.0194739466388657
405,0.0195196104000675
406,0.019826617753067
407,0.0200073321197033
408,0.0202403813091311
409,0.0206176507418271
410,0.021558863516226
411,0.0216219295753367
412,0.0221446990458021
413,0.0224168239148394
414,0.0223201577152787
415,0.0223941745162631
416,0.0221551681923154
417,0.0220149668522063
418,0.0221770584265333
419,0.0218258759960787
420,0.0222185734789691
421,0.0221536132707929
422,0.0223117279332284
423,0.0221793701362989
424,0.022277274955866
425,0.0218065510914566
426,0.0215118619523286
427,0.020843435788469
428,0.0203154254651568
429,0.0202051847642797
430,0.020375128704904
431,0.0210987543330398
432,0.0219002345438553
433,0.0225013358313232
434,0.0232875519255811
435,0.023720312230978
436,0.023889700462377
437,0.0242354016163568
438,0.0245811027703367
439,0.0249268039243166
440,0.0250175845396206
441,0.0254203812216467
442,0.0259412801639564
443,0.02614286269513
444,0.0265302633395096
445,0.0269176639838892
446,0.0273050646282688
447,0.0276466519560032
448,0.0276091345895051
449,0.0285224314175731
450,0.0283139977548808
451,0.0280239799302955
452,0.0279296941670528
453,0.02783540840381
454,0.0277411226405673
455,0.0278641588418963
456,0.02778403877227
457,0.0279802781161664
458,0.0282333420878105
459,0.0285545237102539
460,0.0287165107514856
461,0.0282826608201049
462,0.0289884198120647
463,0.0281609575809078
464,0.0277944581964717
465,0.0276074189420614
466,0.0272008970093744
467,0.0271813409714051
468,0.0270559552832821
469,0.026854624756445
470,0.0273986507682286
471,0.0274724283094487
472,0.0276184795661622
473,0.027804104664721
474,0.0279700230631599
475,0.02826935729895
476,0.0278194537978632
477,0.0278013437875721
478,0.0277832337772811
479,0.02776512376699
480,0.027620654518685
481,0.0268681455781304
482,0.0263920963742614
483,0.0263156837045652
484,0.0257506734299782
485,0.0253013309843278
486,0.0256449691878303
487,0.0258654264821841
488,0.0262052108295609
489,0.0267195208411757
490,0.0269388681619759
491,0.0271438411404499
492,0.0277218321135864
493,0.0272802995681873
494,0.0276110725014607
495,0.0272429595933147
496,0.0272651998391128
497,0.0267277162221454
498,0.0268711043167878
499,0.0262829278587373
500,0.026405467510516
501,0.0261872923716038
502,0.0265603055917444
503,0.0267101851387866
504,0.0263062003308166
505,0.0271707015025453
506,0.0270112579164086
507,0.0270715270201631
508,0.0271987692761734
509,0.0271006879901
510,0.0266515711940661
511,0.0269015502473867
512,0.026496261533707
513,0.0256925019770185
514,0.0255637918732105
515,0.0250626769350908
516,0.0249611280552424
517,0.0249108440156491
518,0.0249318498036099
519,0.025386455779396
520,0.0257211364846201
521,0.0258880495600356
522,0.0260549626354511
523,0.0262218757108666
524,0.0260309643870197
525,0.0259999542340884
526,0.026022286645826
527,0.0258683009293512
528,0.0259927737343929
529,0.0262602760405049
530,0.0261553034416614
531,0.0261767318131723
532,0.0260820826898198
533,0.0263182776461074
534,0.0263669569629465
535,0.0261057546484959
536,0.0262224508742634
537,0.0260533084364891
538,0.0257844239698711
539,0.0256345995264499
540,0.0257524892335304
541,0.0255070662152023
542,0.0253768945854611
543,0.0254618571831671
544,0.0255918488201618
545,0.0253021962024545
546,0.0255790127916437
547,0.0255313996623204
548,0.0254837865329972
549,0.0254361734036739
550,0.0252177302827664
551,0.0254441708424218
552,0.0256469511853157
553,0.0253949358284819
554,0.0252650044066991
555,0.0255317863513599
556,0.0251387281942544
557,0.0250858845457587
558,0.0249554573543106
559,0.0246723159111053
560,0.0250268912231258
561,0.0245377544146004
562,0.0249080244207168
563,0.0245140129257188
564,0.0245527199783058
565,0.0241733301752041
566,0.0240884991358617
567,0.0236984590749318
568,0.0238705081617261
569,0.0235355936417356
570,0.023615022900442
571,0.0236341531560532
572,0.0236145140806482
573,0.023626971551186
574,0.0237836110071881
575,0.0234797710770061
576,0.0236075397391101
577,0.0237353084012141
578,0.023863077063318
579,0.023990845725422
580,0.024118614387526
581,0.0244220165418543
582,0.0242921719129841
583,0.0244160970020551
584,0.0240116532270546
585,0.0238274766879264
586,0.0231972576236963
587,0.0228179426701854
588,0.0226091374393928
589,0.0224003322086001
590,0.0221915269778075
591,0.0224163847985899
592,0.0225024885419627
593,0.0225319397891803
594,0.022872452958093
595,0.0229087673983751
596,0.0230989542958524
597,0.0232344565264998
598,0.0232136427162444
599,0.0234473789568461
600,0.0235742454276179
601,0.0237945618136998
602,0.0239442725477009
603,0.0237861143983044
604,0.0240114058646243
605,0.0239043526596897
606,0.0238698551055757
607,0.0237312865097069
608,0.0235386747655829
609,0.0234931097081832
610,0.0233860369795378
611,0.0232153711417299
612,0.0230121669589566
613,0.0229357170178764
614,0.0227883487869547
615,0.0230656120176993
616,0.0228372270453183
617,0.022990784167093
618,0.0229846442110288
619,0.0230727549146869
620,0.0229567209716725
621,0.0231229134312832
622,0.0225934363461658
623,0.0225851549615047
624,0.0223922890689463
625,0.0221994231763879
626,0.0220065572838295
627,0.0219654790564998
628,0.021923152376813
629,0.0218410467717087
630,0.0221152575588066
631,0.0218534995398409
632,0.0220582352021009
633,0.0222050865823961
634,0.0223516676093197
635,0.0225085031573936
636,0.0223263953093889
637,0.022472908486694
638,0.0223958655390111
639,0.022509349682884
640,0.0224802845312633
641,0.0224335723924186
642,0.0222578221476764
643,0.0221124131583004
644,0.0219670041689244
645,0.0218215951795484
646,0.0218230598315826
647,0.0218764705248443
648,0.0215306206601911
649,0.0219041975800852
650,0.0216354196906428
651,0.0217288825268173
652,0.0215552376573461
653,0.0211906773656581
654,0.0209170294434512
655,0.0212198678308996
656,0.021164021135668
657,0.0214698946355284
658,0.0216333373159323
659,0.0221887899533607
660,0.0222580659898462
661,0.0223903159170928
662,0.0224765765096129
663,0.0223593168844575
664,0.0222648837555805
665,0.022350511897209
666,0.022347464836949
667,0.0224115553418356
668,0.0225191169037297
669,0.0220429398434535
670,0.0222025081902596
671,0.022162142685738
672,0.0221089361175266
673,0.0221108326835205
674,0.0222234641544275
675,0.0222102252246725
676,0.0222180802708752
677,0.0223543856715232
678,0.0220521313930889
679,0.0220063885566468
680,0.022511144424206
681,0.0220621857738861
682,0.0213078973933834
683,0.020853747315926
684,0.0199542028035417
685,0.0192491053453805
686,0.0187032661109762
687,0.018465975238409
688,0.018392393230001
689,0.0185862077508391
690,0.0189180465139517
691,0.019449508109812
692,0.0196699745793427
693,0.0200145397898852
694,0.0203661836760441
695,0.0202957940072054
696,0.0206870666504014
697,0.020727681758267
698,0.0205260059099028
699,0.0207018751414115
700,0.021078131128182
701,0.0209259065981125
702,0.0213226486379154
703,0.0214710581860143
704,0.0218236822400802
705,0.0219258241850068
706,0.0222536522245474
707,0.0225886380135647
708,0.022616340058107
709,0.0228312198154166
710,0.0225613101617087
711,0.022441740197008
712,0.0223356003342763
713,0.0213562233510109
714,0.0206158188969986
715,0.0195475595284728
716,0.018715725548055
717,0.0182569730292367
718,0.0180843875754118
719,0.0183027642353112
720,0.0185360792943901
721,0.0182811282052225
722,0.0186207485472168
723,0.0184753801260886
724,0.0186409512029174
725,0.018613725391242
726,0.0186485031416899
727,0.0190023106811975
728,0.0193305830786656
729,0.0198792622697639
730,0.0204401252217292
731,0.0211450989469108
732,0.0217268463715017
733,0.022448976685271
734,0.0227128983103329
735,0.0229423926396414
736,0.0233351001942083
737,0.0235315527246792
738,0.0237280052551502
739,0.0239244577856211
740,0.024400881918708
741,0.0244742229297851
742,0.0246472926172079
743,0.0248203623046307
744,0.0249934319920535
745,0.0250086576806637
746,0.0250187296697589
747,0.0251730868019802
748,0.0247560771389
749,0.0250171679393173
750,0.0250897567075779
751,0.0249158450730875
752,0.0252604373208034
753,0.024876919851712
754,0.0240674096655933
755,0.0220487716184157
756,0.0200301335712381
757,0.0180114955240606
758,0.0151095608563044
759,0.0130558160867594
760,0.0120340065981131
761,0.0119531843504879
762,0.0126519512506331
763,0.0141182523594891
764,0.0158899016290997
765,0.0175727815395117
766,0.0195396997662885
767,0.0212515941359002
768,0.0222968987499367
769,0.0232649319768645
770,0.0238013478080811
771,0.0241295195218143
772,0.0244061904929812
773,0.0248442576958201
774,0.0245777645962929
775,0.0247300234555681
776,0.0247781797752252
777,0.024524925755299
778,0.0247851672766594
779,0.0245478772064962
780,0.0249321661789108
