"wavelength","measurement"
380,0.00224414449900903
381,0.00226819323480412
382,0.00229556470279383
383,0.00224872032067783
384,0.00227000861240281
385,0.00243412771033986
386,0.00261799360641506
387,0.0027570958806898
388,0.00285374803159737
389,0.00306340845600287
390,0.00304379412189983
391,0.00305580725283837
392,0.00310636888571099
393,0.00315173857002145
394,0.00327031912573057
395,0.00343650318592245
396,0.00380065896045047
397,0.00425447206735407
398,0.00470828517425767
399,0.00516209828116128
400,0.005419625029161
401,0.00581552113497056
402,0.00603725053637907
403,0.00619562254231693
404,0.00625334481967105
405,0.00623794807660121
406,0.00639925831283742
407,0.00646738751084858
408,0.00659689191049554
409,0.00673254279535752
410,0.00710684128162312
411,0.00715463608692815
412,0.00739378322238687
413,0.0076119792952734
414,0.00762742948279516
415,0.00771927664959651
416,0.00764756077574252
417,0.00765034555075923
418,0.00776446626658703
419,0.00756864593667566
420,0.00781880021055231
421,0.0078000678010747
422,0.00784706438148644
423,0.00798174050898653
424,0.00802026538312534
425,0.00789681391545914
426,0.00778159016734966
427,0.00762220122751437
428,0.0073849804843013
429,0.00735324450048354
430,0.0074002702670177
431,0.00765867339335563
432,0.00795330858804728
433,0.00821827905101581
434,0.00859959770079707
435,0.00880750423827545
436,0.00885491185904265
437,0.00901982222103294
438,0.00918473258302323
439,0.00934964294501352
440,0.0093960305622632
441,0.00967976234701318
442,0.00991941470019283
443,0.0100467846793219
444,0.0102490554537198
445,0.0104513262281177
446,0.0106535970025156
447,0.0109153814056493
448,0.0109433389112465
449,0.0114466754652211
450,0.0114136812879683
451,0.0112897589742874
452,0.01124269779419
453,0.0111956366140927
454,0.0111485754339953
455,0.0111126316020241
456,0.0110321339889107
457,0.0112165498917847
458,0.0111748159043283
459,0.0113633015490936
460,0.011334984112479
461,0.0111957395605817
462,0.0115641411650289
463,0.0111948494686276
464,0.0110851653236166
465,0.010981307477248
466,0.0107977656727942
467,0.010796540553644
468,0.0106638653079004
469,0.0105755633595578
470,0.0107799569423441
471,0.0107384326216574
472,0.0107686283060988
473,0.0108842352705583
474,0.0109528512922602
475,0.0111031884286867
476,0.0108424887374711
477,0.0108478705664324
478,0.0108532523953937
479,0.010858634224355
480,0.0108769289526619
481,0.0105826802559599
482,0.0104130336953616
483,0.010367747298908
484,0.010106354383746
485,0.00989290172599296
486,0.00992420562517523
487,0.00999996457134608
488,0.010088330672698
489,0.0103621820082472
490,0.0104275700581725
491,0.0104902570144643
492,0.0107636557733658
493,0.0106494875127587
494,0.010817648154819
495,0.0106834261000217
496,0.0107377406847893
497,0.0105677884458543
498,0.0106345440354948
499,0.0104083387226524
500,0.0104563285963517
501,0.0103281219330496
502,0.010521031533335
503,0.01053019568895
504,0.0104782940914662
505,0.010875758537106
506,0.0108277902906857
507,0.0109094240678144
508,0.0110026604255212
509,0.0110223876677003
510,0.0109066345723795
511,0.0111482283117348
512,0.0110820625822472
513,0.010832432319765
514,0.0108123755678591
515,0.0106601066119717
516,0.0106382467801519
517,0.0106187698150093
518,0.0106270140906189
519,0.0108500444978084
520,0.0111149480620121
521,0.0112910615925334
522,0.0114671751230547
523,0.0116432886535761
524,0.0115753104176828
525,0.0116833083404493
526,0.0117532103953372
527,0.0117030008755912
528,0.0118148325646402
529,0.0120024843429254
530,0.0120517037057629
531,0.0120938585384004
532,0.012081036829414
533,0.0121970885390089
534,0.0122624090507199
535,0.0121487987209717
536,0.0122754902167507
537,0.0122492216867705
538,0.0121866605865357
539,0.0121483920764055
540,0.0122621387470429
541,0.0122096538937678
542,0.0122459953951239
543,0.0123616956932145
544,0.0124471737340556
545,0.0123296342488321
546,0.01239642915241
547,0.0123146943337258
548,0.0122329595150415
549,0.0121512246963573
550,0.0120153636530698
551,0.0120788023960283
552,0.0121353367177407
553,0.0120196112908559
554,0.0119309883143276
555,0.0120248435866556
556,0.0118751612477754
557,0.0118170148913962
558,0.0117076133012311
559,0.0116041845922941
560,0.0116955734900203
561,0.0114702212047842
562,0.011640054561224
563,0.0114473601585034
564,0.0114673827951616
565,0.0112505356366536
566,0.0111847845492827
567,0.011024255691389
568,0.0110499762604748
569,0.0108591056979911
570,0.0108076139307888
571,0.0108073520846687
572,0.0107668707918401
573,0.0107238556841668
574,0.010779199710366
575,0.0106392860738413
576,0.0106468347737308
577,0.0106543834736204
578,0.0106619321735099
579,0.0106694808733994
580,0.010677029573289
581,0.0107977362194728
582,0.0106958863576537
583,0.0107404735615488
584,0.0105208450559957
585,0.010456485592615
586,0.0101119339088975
587,0.00989160043936158
588,0.00971993384118883
589,0.00954826724301608
590,0.00937660064484333
591,0.00937985655096675
592,0.00945682764218493
593,0.00944880005522539
594,0.00957922743771383
595,0.00952526235360629
596,0.00962955700044004
597,0.00966412758972363
598,0.00971633880905654
599,0.00970506486967594
600,0.0097835768744666
601,0.00981441172473405
602,0.00985793730322439
603,0.00980166586096364
604,0.00987508317949307
605,0.00982089800507715
606,0.00980988085296304
607,0.00978540118626698
608,0.0097018957394054
609,0.00974048856243238
610,0.00971091107483051
611,0.00964360407663899
612,0.00954370522092055
613,0.00942566097397159
614,0.00919489687861554
615,0.00916526941693291
616,0.009060486042649
617,0.00907755371420971
618,0.00904122183584448
619,0.00903889831962166
620,0.00894776348919243
621,0.00898056243844593
622,0.00879108814515059
623,0.00872980063601647
624,0.00863340427272525
625,0.00853700790943404
626,0.00844061154614282
627,0.008431053260282
628,0.00837561053147031
629,0.00831925304910299
630,0.00837506604300486
631,0.00822938351020257
632,0.00824291257383233
633,0.00826910896109493
634,0.0082152941110506
635,0.00823808872617173
636,0.00815620501579774
637,0.00815968959664563
638,0.00804770619753151
639,0.00806080614910962
640,0.0079763217900213
641,0.00792610694256597
642,0.00780794544718824
643,0.00768845898458583
644,0.00756897252198341
645,0.007449486059381
646,0.00743670820358679
647,0.00735387697885354
648,0.00713454528968781
649,0.00725087661493399
650,0.00714349493304537
651,0.00719475165634333
652,0.00708261184338776
653,0.00692417069808747
654,0.00675177239599134
655,0.006791267640315
656,0.00670798074939048
657,0.00672474508878194
658,0.00677488173249403
659,0.00692728191445192
660,0.00696854775209496
661,0.00698158566180468
662,0.00700033807235174
663,0.00689086542304065
664,0.00681520952999945
665,0.00681761735004313
666,0.00678631733856459
667,0.00673732091295272
668,0.00672115468850444
669,0.00659806539506342
670,0.00656252656368136
671,0.00651265152240571
672,0.00646080642587231
673,0.00645283459243402
674,0.00644875319904915
675,0.00643689773384913
676,0.00638129617442292
677,0.00641211813522405
678,0.00632294428498522
679,0.00628511658560221
680,0.00643227554493912
681,0.00631423230664187
682,0.00619308462863535
683,0.00609019408878603
684,0.00591614386930583
685,0.0057490356643851
686,0.00565150862023959
687,0.00554959356416701
688,0.0054873389711594
689,0.00558367810371975
690,0.00568211269212537
691,0.00586758583480252
692,0.00591092673524871
693,0.00600353985866427
694,0.0062401368491119
695,0.00633880366064178
696,0.0065729783766175
697,0.00666101081475161
698,0.00670892851354394
699,0.0068495312370913
700,0.00705925866242168
701,0.00710027551742659
702,0.00737282110447522
703,0.0075084986960496
704,0.00783281289976124
705,0.00791988118684185
706,0.00819695169027132
707,0.00840611400145569
708,0.00856657128324487
709,0.00876602255855284
710,0.00880246649573183
711,0.00891643996439833
712,0.0090796721654664
713,0.00878644464643393
714,0.00860847361383649
715,0.00822910928561587
716,0.00782941804055289
717,0.00755071162698471
718,0.00746253343254671
719,0.0075922366416733
720,0.00779156778336215
721,0.00782181353878837
722,0.00814918492237686
723,0.00820007469139777
724,0.00820254644503527
725,0.00824878849020783
726,0.00827884817198183
727,0.00844959302857407
728,0.00861179580814203
729,0.00882920259716224
730,0.0092038022987263
731,0.0095978987333357
732,0.00991706659901173
733,0.0103145685139013
734,0.0106199191824819
735,0.0108600833944798
736,0.0109855711758336
737,0.0111323067431334
738,0.0112790423104333
739,0.0114257778777331
740,0.0116810394032797
741,0.0117612929414269
742,0.0118636501855105
743,0.0119660074295941
744,0.0120683646736777
745,0.0121961142309178
746,0.0121919691782144
747,0.0121989742659469
748,0.0119854240243972
749,0.0121111346267732
750,0.0120793876021066
751,0.0120274149675401
752,0.012143104915543
753,0.0119222237157178
754,0.0119346142481336
755,0.0112268726902187
756,0.0105191311323037
757,0.00981138957438878
758,0.00862132087579278
759,0.00756636249612759
760,0.00666922048661411
761,0.00637604398983762
762,0.00657023674193745
763,0.00701257807047774
764,0.00761054563563964
765,0.00824108040380963
766,0.00904382016550008
767,0.00982439842440751
768,0.0103121242549588
769,0.0105842679925428
770,0.0107911422185573
771,0.0109283009886284
772,0.0110148302678402
773,0.0111351527786237
774,0.0110200740138544
775,0.0109924886561437
776,0.0110404412289315
777,0.0108689715528625
778,0.010894267504299
779,0.0107909432607271
780,0.0109043879591593
