"wavelength","measurement"
380,0.0143904693561152
381,0.0142016585975573
382,0.0140704604292959
383,0.013395967619551
384,0.0137937429084948
385,0.0145354706451081
386,0.0152657702146209
387,0.0164533842712912
388,0.0170058785609968
389,0.0177774600823154
390,0.0177004156382117
391,0.0181007063184272
392,0.0179540169778047
393,0.0187048236335774
394,0.0188860563685292
395,0.0206776274304481
396,0.0223436683381457
397,0.0254541971885034
398,0.0285647260388612
399,0.0316752548892189
400,0.0340095872223978
401,0.0366009205653707
402,0.0384622738381071
403,0.0393987215533067
404,0.0406104356954064
405,0.0407215291653378
406,0.0419980415175776
407,0.0426446505780824
408,0.0437308804235927
409,0.0447578189916152
410,0.0475702925581234
411,0.0480196648594998
412,0.0498589302313205
413,0.0512536627007669
414,0.0519914455344527
415,0.0528466151190566
416,0.0525645444222671
417,0.0525151627307201
418,0.0531493598113337
419,0.0530058576282101
420,0.0539910641042397
421,0.0539524710938632
422,0.0547058401052039
423,0.0553455255339229
424,0.0550579453819998
425,0.0543559883459853
426,0.0539249098886131
427,0.0526903280118201
428,0.0509995304065035
429,0.0503850993794429
430,0.050897673609665
431,0.0521621173678123
432,0.0541037459717489
433,0.0553789014902907
434,0.0578582271811078
435,0.059128301943163
436,0.0597337130661461
437,0.0607088260857409
438,0.0616839391053357
439,0.0626590521249305
440,0.0624013957990451
441,0.0635450028224785
442,0.0651487896883932
443,0.0651474552932447
444,0.0659995635739661
445,0.0668516718546874
446,0.0677037801354088
447,0.0681628348826626
448,0.0687051042875526
449,0.0711995862595394
450,0.0702763041518514
451,0.0698770196914475
452,0.0694639198770459
453,0.0690508200626443
454,0.0686377202482427
455,0.068409505372463
456,0.0684121334147088
457,0.0683919703000752
458,0.0689678235660203
459,0.0697198935283957
460,0.0700278680972943
461,0.0686595370189287
462,0.0709695686176958
463,0.0685680623728892
464,0.0684123509150463
465,0.0675467794856179
466,0.0668956494269875
467,0.0665164364326906
468,0.0659134122410432
469,0.0650639227480119
470,0.0665953344616396
471,0.0665087698779323
472,0.0667753992578799
473,0.0675778233550685
474,0.0680934327349884
475,0.069091242880293
476,0.067881766665605
477,0.0678619537042199
478,0.0678421407428347
479,0.0678223277814496
480,0.0678800475626368
481,0.0659924311603396
482,0.0649008233305365
483,0.0648948855468446
484,0.0626795679888887
485,0.0613998622613936
486,0.0614494581882995
487,0.0617863674020886
488,0.062164868072931
489,0.0637471531347897
490,0.0641985230743957
491,0.0647235923049667
492,0.0662156164557493
493,0.0651656416044111
494,0.0663661641662493
495,0.0654756053212451
496,0.0657988717687589
497,0.0645414212176565
498,0.0647326368730243
499,0.0633135546985098
500,0.0633795451387095
501,0.0626444247525366
502,0.0634709895705421
503,0.0632427339798707
504,0.0630074146777024
505,0.064829154018346
506,0.0645524809127206
507,0.0649041793226011
508,0.0651686586656682
509,0.0652835706424408
510,0.0642427307822952
511,0.0647088526218894
512,0.0645783682038955
513,0.0625469251771516
514,0.0623762817762758
515,0.0612408640613
516,0.0607620754641879
517,0.0603407206420112
518,0.0601769665727873
519,0.0611821020736665
520,0.0622219042891247
521,0.0629972795224645
522,0.0637726547558042
523,0.064548029989144
524,0.0641845783199557
525,0.0642687406866099
526,0.0647382853175351
527,0.0642447963147266
528,0.064504433508003
529,0.065520008463221
530,0.0654813460995483
531,0.0655538741799608
532,0.0652351172617687
533,0.0658425700904721
534,0.0660904480257024
535,0.0653116588415859
536,0.0659404987045301
537,0.0651459168922137
538,0.0648770059210129
539,0.0642609252398403
540,0.0648275064617102
541,0.0640324053372833
542,0.0636420382023517
543,0.0640530401847383
544,0.0643361229576882
545,0.0639872828351641
546,0.0644262237576597
547,0.0643538156697651
548,0.0642814075818706
549,0.064208999493976
550,0.0637086507777895
551,0.0643113392744949
552,0.0647145062372244
553,0.06397057534088
554,0.0636657047233428
555,0.0643974991218921
556,0.0633355045579096
557,0.0631271603148422
558,0.0626921454020472
559,0.0622415826972521
560,0.0628063857702116
561,0.0615848727191597
562,0.0625418545761272
563,0.0613884130102048
564,0.061679260616653
565,0.0608894346094092
566,0.0604159058083359
567,0.0595203674349745
568,0.0597695439580328
569,0.0588653530133375
570,0.0590606066667277
571,0.0588625675123174
572,0.0587541101578836
573,0.058795760279815
574,0.0590704945938499
575,0.0580183386880724
576,0.0582091608139226
577,0.0583999829397728
578,0.058590805065623
579,0.0587816271914732
580,0.0589724493173234
581,0.0597468080833641
582,0.0594717469809181
583,0.0599432634670158
584,0.0588131778601143
585,0.058612315260913
586,0.0569068609609583
587,0.0556331853623846
588,0.0548687455089601
589,0.0541043056555356
590,0.0533398658021111
591,0.0536213315453267
592,0.0541685892659852
593,0.0541066264245952
594,0.0554245868327936
595,0.0554078172629693
596,0.05599283415856
597,0.0562017397945471
598,0.0563211382802383
599,0.0566758581055445
600,0.0571332440689638
601,0.0576260089739761
602,0.0579586169115846
603,0.0577849241605222
604,0.0583997226204309
605,0.0582932215005847
606,0.0583356178619555
607,0.0579233123280182
608,0.05726439031297
609,0.0572347867581114
610,0.0569940909189408
611,0.056718555054985
612,0.0559923820016122
613,0.0555881250867958
614,0.0551643512147139
615,0.0557978650628779
616,0.0550909429179183
617,0.0552888941142724
618,0.0553665062068276
619,0.0554984198937154
620,0.0556945421159948
621,0.0560590536641695
622,0.0547600874428076
623,0.0546910936057482
624,0.0543807043989926
625,0.0540703151922371
626,0.0537599259854815
627,0.0534737933243577
628,0.0534203704631707
629,0.053165527125446
630,0.0537391863347032
631,0.0531711491024978
632,0.0532290819466888
633,0.0537837756110228
634,0.0536835235606219
635,0.0538861551298494
636,0.0536523564241284
637,0.0540540709067726
638,0.0537645418693563
639,0.0538690255160036
640,0.0536087030070933
641,0.0533612985887792
642,0.05302007814653
643,0.0525755560407068
644,0.0521310339348836
645,0.0516865118290604
646,0.0516834558683377
647,0.0514324688191343
648,0.0501820894920066
649,0.0511194909248068
650,0.0507054064557757
651,0.0514249617906507
652,0.0507480657484567
653,0.0500650397725764
654,0.0493998110401838
655,0.0498458048366326
656,0.0493224155219817
657,0.0496319450670919
658,0.0504702284340181
659,0.0517689567664453
660,0.0523833315145923
661,0.0526134708187232
662,0.0528330008029468
663,0.0527015590050771
664,0.0523685104541743
665,0.0526895345341708
666,0.0525803023907588
667,0.0525805855396571
668,0.0530084225219633
669,0.0521064909025736
670,0.0521208919705612
671,0.0520272877873503
672,0.0517754622189945
673,0.0521514599061136
674,0.0523187126775616
675,0.0521735743825851
676,0.0522326708105713
677,0.0526307034985076
678,0.0521382124875253
679,0.0521478954097611
680,0.0533151238577195
681,0.0519876136559012
682,0.0515265326055595
683,0.0509331527025234
684,0.0491364173464431
685,0.0479454229857983
686,0.0470501289149733
687,0.045874665667516
688,0.0454672132676172
689,0.0456870685285867
690,0.0462026468061285
691,0.0472461580795191
692,0.0475639868112791
693,0.0485734413682721
694,0.0490518123482447
695,0.0495354677243229
696,0.0507053868675035
697,0.0517020742479723
698,0.0514668042049168
699,0.051767288210499
700,0.0530107653111062
701,0.0529873476926631
702,0.0547235916183494
703,0.0554305065194865
704,0.0572414945700295
705,0.0580109575743805
706,0.0595559281334947
707,0.0608004841069573
708,0.0616876394042558
709,0.0633951854790417
710,0.0635369743192011
711,0.0644687476281843
712,0.0652341008420183
713,0.0633347113018712
714,0.062299743998478
715,0.0591164514895425
716,0.0566115693873243
717,0.0545854300124155
718,0.0544897901311278
719,0.0551107567824695
720,0.0568249185087613
721,0.0567373082606423
722,0.0599614253909319
723,0.0599771244418024
724,0.0603786290604899
725,0.0609246921058747
726,0.0612477132967597
727,0.0630401792447836
728,0.0643711413029846
729,0.0673018697908699
730,0.0694640334462109
731,0.0731057859419267
732,0.0765382154440362
733,0.0801175571617581
734,0.0824027726426514
735,0.0843355330998939
736,0.0866301980377496
737,0.088329010233287
738,0.0900278224288244
739,0.0917266346243618
740,0.0946922342004723
741,0.0957094229928373
742,0.0974733950873465
743,0.0992373671818556
744,0.101001339276365
745,0.101910363114193
746,0.101983133865121
747,0.103643068457305
748,0.103259387995099
749,0.10425918396461
750,0.105061988631868
751,0.104510883475678
752,0.106490521281599
753,0.106395921856505
754,0.105864900450642
755,0.0999209322558028
756,0.0939769640609634
757,0.0880329958661241
758,0.0777343125828452
759,0.0685587376095566
760,0.0609695163353011
761,0.0590152998726143
762,0.0604835831874624
763,0.0649046234632094
764,0.0710710421093689
765,0.0775181769223763
766,0.0855794784573316
767,0.0933156593831708
768,0.0985787367486355
769,0.101478548714172
770,0.104737072660157
771,0.105936544695317
772,0.107538903060143
773,0.109387230410161
774,0.108532758340668
775,0.10919174193834
776,0.109337249359407
777,0.108831733384256
778,0.110599482732398
779,0.10856602120097
780,0.110475221231001
