"wavelength","measurement"
380,0.00370869244628704
381,0.00367434586908029
382,0.00368675260111974
383,0.00362183027648533
384,0.00373522563719727
385,0.0039196134985416
386,0.00414195784930616
387,0.00446555517682356
388,0.00463046146222033
389,0.00481811145273067
390,0.00489564801984468
391,0.00491136022759861
392,0.00494372078921177
393,0.00505281551858287
394,0.00515228476339357
395,0.00544651301735903
396,0.00604372296492016
397,0.00673169840196313
398,0.00741967383900611
399,0.00810764927604908
400,0.00851964616774088
401,0.00899663703057644
402,0.00942423241330321
403,0.00945455593787167
404,0.00959085751658657
405,0.00952698062471645
406,0.00971586883364519
407,0.00976595128307198
408,0.00981855653613753
409,0.00989347493836064
410,0.0103988038962344
411,0.0103108011090196
412,0.0105963104062761
413,0.0108786717216324
414,0.0108111925870952
415,0.0109113790387505
416,0.0108176777277806
417,0.0107461731552862
418,0.0108052221437094
419,0.0105913317189774
420,0.010826517259941
421,0.0107856712657178
422,0.0107758980801492
423,0.0108960452438579
424,0.0108742900480478
425,0.0106532297129142
426,0.0105568668193537
427,0.010285638994681
428,0.00993872173964966
429,0.00981937103205743
430,0.00983006232721625
431,0.0102409103052657
432,0.0107216648350095
433,0.0111079035183516
434,0.011622966189814
435,0.0119682746717181
436,0.0119760177808422
437,0.0120189914038454
438,0.0120619650268487
439,0.0121049386498519
440,0.0121425129744223
441,0.0123074236025545
442,0.0125871146710424
443,0.0126061371454604
444,0.0128050077068
445,0.0130038782681396
446,0.0132027488294792
447,0.0133778532458268
448,0.0134222945541776
449,0.0139033375197365
450,0.0138877489792577
451,0.0136902196929716
452,0.0136539056516446
453,0.0136175916103176
454,0.0135812775689905
455,0.013578329840703
456,0.0135349111995349
457,0.0137293719937949
458,0.0137751525618918
459,0.0139855176239633
460,0.0139290282475564
461,0.0137851957393349
462,0.0142177796304793
463,0.0138172946909748
464,0.0135898698704304
465,0.0135224679477321
466,0.0132945025508535
467,0.0132493876222327
468,0.0130877053259603
469,0.0129832939093625
470,0.0132071668718088
471,0.0132044307512696
472,0.0132478930460499
473,0.0133726031471663
474,0.0134027018759042
475,0.0135547867130854
476,0.0132886320863343
477,0.0132797330684602
478,0.0132708340505861
479,0.013261935032712
480,0.013276239350635
481,0.0129268500293044
482,0.0127419093760523
483,0.0127045119534938
484,0.0124217332115297
485,0.0121446767064155
486,0.0122648711430205
487,0.012322904627871
488,0.0124472084761919
489,0.0127424205852924
490,0.0127601166669433
491,0.0128244582514377
492,0.0131016037789498
493,0.0129046080220119
494,0.0130671328557151
495,0.0128581869709772
496,0.0128830435267502
497,0.0126470170156743
498,0.0126893694861165
499,0.0123391266914811
500,0.012393696908116
501,0.012214179207416
502,0.0123618438455329
503,0.0123490050976346
504,0.0122153260416966
505,0.0126119143936206
506,0.012548363216764
507,0.0125794079525201
508,0.0126733624343145
509,0.0126632604985516
510,0.0124337779295096
511,0.0126117760503101
512,0.0125217849419029
513,0.0121651338196818
514,0.0121357091678242
515,0.011896687477452
516,0.0118095641279779
517,0.0117667715888709
518,0.0116998485880858
519,0.0119166125801832
520,0.012129071046782
521,0.012280622619582
522,0.012432174192382
523,0.0125837257651821
524,0.0125109902337018
525,0.0125157057669803
526,0.012579502822885
527,0.0124770653276963
528,0.0125741290709684
529,0.0127153634754973
530,0.0127468913484842
531,0.0127636981402302
532,0.0127383058817266
533,0.0128563300336349
534,0.0129275157137007
535,0.0128082683084847
536,0.0129228762245241
537,0.0129541154123294
538,0.013057540245973
539,0.0132270439850734
540,0.0135523921664977
541,0.0137642264505621
542,0.013982348460127
543,0.0142680959915782
544,0.01443660762088
545,0.0142311391151051
546,0.0141047032184205
547,0.0137894889816429
548,0.0134742747448652
549,0.0131590605080876
550,0.0128398120777001
551,0.0128330441055652
552,0.0127918498899331
553,0.0125898490105704
554,0.0124481410590384
555,0.0124938907016319
556,0.0123070853876621
557,0.0122189521209148
558,0.0120515259698915
559,0.0118975138706901
560,0.0120303279976558
561,0.0118113507019554
562,0.0120318861067904
563,0.011766244808568
564,0.0117980448283239
565,0.0115907936164938
566,0.0115201893777718
567,0.0113191686008317
568,0.0113660103128066
569,0.0111670699400666
570,0.0111307453293741
571,0.011153502542567
572,0.0110927613708153
573,0.0111025226518504
574,0.011167430177149
575,0.0110926941045014
576,0.0111292548069273
577,0.0111658155093533
578,0.0112023762117792
579,0.0112389369142052
580,0.0112754976166311
581,0.011417749508059
582,0.0113270304552144
583,0.011360411584073
584,0.0111458349028446
585,0.0110593507201011
586,0.010663013372535
587,0.0104334125251236
588,0.0102119285675401
589,0.0099904446099567
590,0.00976896065237326
591,0.00978123403718802
592,0.00981542890715523
593,0.00978540672493417
594,0.00992619772711467
595,0.00985254164191293
596,0.00989078113989401
597,0.00994305406691287
598,0.00996451857323423
599,0.00996501380314752
600,0.010048118505735
601,0.0100961420763555
602,0.0101255768595276
603,0.0100270283964998
604,0.0101728696663837
605,0.0101224256673412
606,0.0102117691129372
607,0.0103742741075878
608,0.010550675503722
609,0.0108663859532155
610,0.0110337791220734
611,0.0111257023974822
612,0.0109575012798945
613,0.0106116934839877
614,0.0101727580130595
615,0.00997228665631356
616,0.0096391596084104
617,0.009633870263361
618,0.00951850315104503
619,0.00947399537212843
620,0.00938762096287861
621,0.00942361600771954
622,0.00917646637872121
623,0.00907271407311019
624,0.00897691002032053
625,0.00888110596753088
626,0.00878530191474122
627,0.00869736408302661
628,0.00864693886912995
629,0.00858762457997608
630,0.00865184360778995
631,0.00846599338467618
632,0.00845939842795724
633,0.00845725690681785
634,0.00837525894439029
635,0.0083787182134908
636,0.00827512282335817
637,0.00829023318269933
638,0.00816834706679936
639,0.00822475630466359
640,0.00812181367283078
641,0.00807653665200606
642,0.00800471952241997
643,0.00788396169630259
644,0.0077632038701852
645,0.00764244604406782
646,0.00760186252077331
647,0.0075454598463334
648,0.00736652141552459
649,0.00748324459106244
650,0.00739507616663751
651,0.00741979931572053
652,0.00730828466172994
653,0.00714552398333049
654,0.00701161569991338
655,0.00705340009602707
656,0.00693367970039375
657,0.00701789497767726
658,0.00707136814574064
659,0.00721367931717725
660,0.00727730723931147
661,0.00731462456269778
662,0.00731912329173513
663,0.00724677901283348
664,0.00720549342841777
665,0.00718455377423297
666,0.00715444242861905
667,0.00715814891702038
668,0.00710690244437193
669,0.00701291347510413
670,0.00696938168877066
671,0.00694719027615736
672,0.00687836826016792
673,0.0068585061959442
674,0.00683429996935782
675,0.00682107300832395
676,0.00679969834816359
677,0.00682280752241211
678,0.0067035710200826
679,0.00667181458819444
680,0.00687352948202883
681,0.0066587482315564
682,0.00653155200162773
683,0.00635634666293298
684,0.00611649046509813
685,0.00595358757727931
686,0.00574800501053243
687,0.00563274062926102
688,0.00552330544429037
689,0.00549801936454811
690,0.0055921737911932
691,0.00566826151281615
692,0.00565703123385852
693,0.00569412222970259
694,0.00580574910609013
695,0.00581893509029134
696,0.00594715257644338
697,0.0059716487777924
698,0.00592357234501017
699,0.00596811871731681
700,0.00608853198270888
701,0.00607544024414203
702,0.006249889649761
703,0.00632242040398654
704,0.00653791707744244
705,0.00662385413650921
706,0.0067280938000051
707,0.00692042239303653
708,0.00696989684864601
709,0.00706477425042885
710,0.00704283860168923
711,0.00706769907486321
712,0.00711559351172835
713,0.00678740128521486
714,0.00657109879112063
715,0.00617374803746676
716,0.00588780882564552
717,0.00558432446229361
718,0.00552539454898308
719,0.0055991690259569
720,0.00570131191057149
721,0.00569396812687558
722,0.00588308402536655
723,0.005877826690037
724,0.00588502451740555
725,0.00589010309686473
726,0.00590026806219409
727,0.00604767963697622
728,0.00618201990918955
729,0.0063240507032373
730,0.0065882735181265
731,0.00689381016765364
732,0.00713271340795418
733,0.00748165676936036
734,0.00767811808128351
735,0.00779063968338603
736,0.00792686016623729
737,0.00805335299690904
738,0.00817984582758078
739,0.00830633865825253
740,0.00852597791237055
741,0.00864105122539025
742,0.00871146949608948
743,0.00878188776678871
744,0.00885230603748794
745,0.00890771304687733
746,0.00889546546500263
747,0.00895248908174446
748,0.0088691843863847
749,0.008887030454806
750,0.00892914125405659
751,0.00880334449677872
752,0.00894842397930824
753,0.00871425106598706
754,0.00872239817420956
755,0.00819641727871849
756,0.00767043638322742
757,0.00714445548773635
758,0.0062724199338991
759,0.00543901581731285
760,0.00480325508999878
761,0.00464791902426935
762,0.00473832041148819
763,0.00504829287621411
764,0.00552396874305054
765,0.00599359494706595
766,0.00662011711425978
767,0.00716800334831549
768,0.00751985186322969
769,0.00776413739074929
770,0.0079875783855231
771,0.00803343074080592
772,0.00815203382732545
773,0.00828134337966794
774,0.00814971192063242
775,0.00817190674578166
776,0.00819746926742441
777,0.0080689491435846
778,0.00814208633658502
779,0.00800718550944813
780,0.00809513671740145
