"wavelength","measurement"
380,0.00396712837651724
381,0.00390866921824159
382,0.00388822107559366
383,0.0038661699941705
384,0.00387791616100785
385,0.00419405791522366
386,0.00444276999668828
387,0.00469767962714354
388,0.00495118006566998
389,0.00517450117559248
390,0.00520930600176925
391,0.00516964102339255
392,0.00519038079606588
393,0.00536770762982807
394,0.00548592227454339
395,0.00575754872464264
396,0.00639581715714571
397,0.00711984740897609
398,0.00784387766080646
399,0.00856790791263683
400,0.00896462730209615
401,0.00962474143437337
402,0.0100379204882628
403,0.0101001418629684
404,0.0102850788439425
405,0.0103132792966087
406,0.0103827656751972
407,0.0103572300503051
408,0.0103663583231263
409,0.0104338337722443
410,0.0109515479729471
411,0.0109290202951173
412,0.0111975847870705
413,0.0114787151958944
414,0.0114425984599925
415,0.0115019659454429
416,0.0114072274522707
417,0.0112652411942651
418,0.0113849321668693
419,0.0110888255070605
420,0.011378260882226
421,0.0112974709338955
422,0.0113561675711206
423,0.0114288762314422
424,0.0114862547603524
425,0.0112980099956118
426,0.0111116695256408
427,0.0108183125177795
428,0.0104389331148972
429,0.01043330213921
430,0.0104294210747879
431,0.0108881544672709
432,0.0115195087780565
433,0.0120548837396384
434,0.0127946534815106
435,0.0130796292773437
436,0.0130717471176925
437,0.0130070690159805
438,0.0129423909142685
439,0.0128777128125565
440,0.0128286775806262
441,0.012982894673935
442,0.0132139371915394
443,0.0133396461334841
444,0.0135212524829867
445,0.0137028588324894
446,0.013884465181992
447,0.0141209818586364
448,0.0141228671539529
449,0.0146673925988996
450,0.0145678315737281
451,0.014508160759938
452,0.0144487520638089
453,0.0143893433676799
454,0.0143299346715508
455,0.0143061190522042
456,0.0142969210944734
457,0.0144560774273987
458,0.0145134151531326
459,0.014735874893809
460,0.0147399161219283
461,0.0145300421497538
462,0.0149521350269285
463,0.0145206544347663
464,0.0143308948120575
465,0.0142596073507249
466,0.0140173198810579
467,0.0140081734375288
468,0.0138251167955723
469,0.0137119325476699
470,0.0139570884029691
471,0.0139098597599351
472,0.0139814406699543
473,0.0141506507744184
474,0.0141629588963452
475,0.0143750336832778
476,0.0140026472837989
477,0.0140126475146537
478,0.0140226477455085
479,0.0140326479763633
480,0.014054324078815
481,0.0137207501873226
482,0.0135276774436337
483,0.0135462668159084
484,0.0132844703034799
485,0.01304606788278
486,0.0131976548163027
487,0.0132958500867342
488,0.0133627031813852
489,0.013679769106972
490,0.0137592753408155
491,0.0137579641665931
492,0.0140096402174883
493,0.0138436109875517
494,0.0139844613322071
495,0.0137354565206466
496,0.013743682301749
497,0.0134421785451291
498,0.0134990042112689
499,0.013101078190094
500,0.0131268599145581
501,0.0129504774765071
502,0.0130884733890851
503,0.0130896589486607
504,0.0129380760954496
505,0.0133420283162216
506,0.0132562640706908
507,0.0133252954580483
508,0.0133658528050315
509,0.0133669859736203
510,0.0131435085499482
511,0.0133473822236403
512,0.0132980532000147
513,0.0128805402655663
514,0.0127978643955409
515,0.0125931189268595
516,0.0125182065106019
517,0.0124679558102429
518,0.0123794877550813
519,0.0126024179395029
520,0.0128744884214743
521,0.0130203427051964
522,0.0131661969889186
523,0.0133120512726407
524,0.0132706465996289
525,0.0132682185577821
526,0.013347338588518
527,0.0132210997477041
528,0.0133325105948462
529,0.013546360137859
530,0.0135508371061495
531,0.0136074307232052
532,0.0135646693769598
533,0.0137246964618532
534,0.0137824729719693
535,0.0137011403838078
536,0.013900376137406
537,0.0140429370531276
538,0.0142656082027481
539,0.0146664996407989
540,0.0152624913459598
541,0.0157973213341931
542,0.0163279571190328
543,0.0167153716664995
544,0.016968264846508
545,0.0166076516067212
546,0.0163787957907191
547,0.0157975762614108
548,0.0152163567321025
549,0.0146351372027941
550,0.0141623949270035
551,0.0140412594528997
552,0.0139154121749139
553,0.0136314353966243
554,0.0134599296477233
555,0.0134268749696646
556,0.0131784518602887
557,0.0130710251598768
558,0.0129156509054057
559,0.0127753474483709
560,0.0128716655677168
561,0.0126275012531618
562,0.0127977416838144
563,0.0125999969805402
564,0.0126241906280455
565,0.0124217492959346
566,0.0122909543414549
567,0.0121466379119854
568,0.0121662505718097
569,0.0119411612108954
570,0.0119082612632057
571,0.0119123674236812
572,0.011935010646435
573,0.0119193573899709
574,0.012034159290416
575,0.0119703438661467
576,0.0120481505001481
577,0.0121259571341496
578,0.012203763768151
579,0.0122815704021524
580,0.0123593770361538
581,0.0125074176901556
582,0.0123964207100854
583,0.0125039542119134
584,0.0122666965677429
585,0.0122190416527461
586,0.011785805704647
587,0.0114901189953203
588,0.0112360256124385
589,0.0109819322295568
590,0.010727838846675
591,0.0106780391079844
592,0.0107029133011526
593,0.0106740791828952
594,0.0107467948308527
595,0.0106327212521113
596,0.0106903557369856
597,0.0107233303723595
598,0.0107750432783903
599,0.0107741244258047
600,0.0108550695382287
601,0.0108701272271301
602,0.0108856023562074
603,0.0107973978475979
604,0.010891033652073
605,0.0108960078083856
606,0.0110773673961608
607,0.0115052284851812
608,0.0119688799673283
609,0.0125712703125059
610,0.0129295333636547
611,0.0131191041079198
612,0.0128739708256517
613,0.0123362140212077
614,0.011628020692216
615,0.0111983274224258
616,0.0107970654556334
617,0.0106515696786855
618,0.0104884135912639
619,0.0104127346260139
620,0.0102883844339245
621,0.0103412112942713
622,0.0100692609284197
623,0.00994962646794682
624,0.00982668043747892
625,0.00970373440701102
626,0.00958078837654312
627,0.00951448648858427
628,0.00944411336667156
629,0.00943066149954254
630,0.00943086135632554
631,0.00923210639018805
632,0.00915996507643407
633,0.00912495900213585
634,0.00899755401027258
635,0.0090037763226767
636,0.00887996398858337
637,0.00888015352913593
638,0.00879329602514473
639,0.008787051526875
640,0.00869740930480213
641,0.00865475678845721
642,0.00856136932501371
643,0.00843454601649369
644,0.00830772270797367
645,0.00818089939945366
646,0.00822598536284399
647,0.00811197031273314
648,0.00789961939643433
649,0.0080746453356457
650,0.00793773833049885
651,0.00799862345120539
652,0.00785863152905016
653,0.00770212705019644
654,0.0074996331740549
655,0.0075551967228204
656,0.00748225261333878
657,0.00747365315964947
658,0.00758017569222575
659,0.00772424809925697
660,0.00781787462033495
661,0.00782893431410406
662,0.00785746403027714
663,0.00778025031637079
664,0.00772212252256749
665,0.00769794604188761
666,0.00767604144240891
667,0.0076453951363431
668,0.00759876117157653
669,0.00747171548431276
670,0.00748148587908382
671,0.00742089752039697
672,0.00734343461262844
673,0.00735807423481761
674,0.00733653212509271
675,0.0073178218607598
676,0.00726927152526225
677,0.0072944937165144
678,0.00717930567799497
679,0.00713419783136872
680,0.0073101237035603
681,0.00713760139595251
682,0.00694946972316385
683,0.00679436349396278
684,0.00656150416956741
685,0.0063691215409711
686,0.00620188708402783
687,0.00602884027218684
688,0.00592704267702633
689,0.0059339866169175
690,0.00596986438515474
691,0.00607827510348663
692,0.00607163398990462
693,0.00611100707395736
694,0.00622166925206709
695,0.00627074947420305
696,0.00642796222794943
697,0.00641377413020805
698,0.00638651301575232
699,0.00641567938983659
700,0.00656768572355101
701,0.00653173094695426
702,0.00674942182402087
703,0.00684744701033515
704,0.00710071934095415
705,0.00718490067098766
706,0.00735216618649655
707,0.00753473415391901
708,0.00760932055542269
709,0.00778212105141113
710,0.00769862422443409
711,0.00768284758666426
712,0.00772039710903632
713,0.00736918602004161
714,0.00713212521825519
715,0.0067199322176309
716,0.00630846803545205
717,0.00604603168269047
718,0.00597192032524176
719,0.00603751998096586
720,0.00617145049791141
721,0.00616668905720499
722,0.00635351024357506
723,0.00636826796878717
724,0.0063696543787537
725,0.00639000957639707
726,0.00639413059753069
727,0.00654462114452477
728,0.00667527917625805
729,0.00681469910428302
730,0.00713653337959969
731,0.00745539826326014
732,0.00772463111103252
733,0.00809548446267658
734,0.00828879283363869
735,0.00839595008235231
736,0.00860362334634054
737,0.00872828603341084
738,0.00885294872048115
739,0.00897761140755145
740,0.00916176212650028
741,0.00930374492432961
742,0.00939058720213572
743,0.00947742947994183
744,0.00956427175774795
745,0.00959041986860978
746,0.00958276781515709
747,0.00965816781515852
748,0.00951602660888299
749,0.00961255765238555
750,0.00956619125685445
751,0.00951634864834234
752,0.00960532898015164
753,0.0094406835949062
754,0.00944237326880863
755,0.0088583991222322
756,0.00827442497565578
757,0.00769045082907935
758,0.00674253801605816
759,0.00589046071117124
760,0.00522202522317489
761,0.00502409832059285
762,0.00511810189913259
763,0.00548074320625351
764,0.00595693615669446
765,0.00648557589629627
766,0.00712578353718531
767,0.0077724154570427
768,0.00814154051900445
769,0.00844008777499321
770,0.00861028649194873
771,0.00869842595464549
772,0.00876941167641949
773,0.00882563235518164
774,0.00879951729877628
775,0.00875115284738611
776,0.00875204892682857
777,0.00871112279656495
778,0.00875469999086141
779,0.00859084468218907
780,0.00863760961902302
