"wavelength","measurement"
380,0.0134765194834872
381,0.013368068677665
382,0.0135843198353516
383,0.0125856336171901
384,0.0131960211787854
385,0.0139123914246151
386,0.0151295306182354
387,0.0161062541406172
388,0.0166474377622438
389,0.017519357598008
390,0.0178389481046007
391,0.0176596430237927
392,0.0181153532149016
393,0.0189548185274743
394,0.0192867932037175
395,0.0205130276158153
396,0.0234082922629247
397,0.0265569320431841
398,0.0297055718234436
399,0.0328542116037031
400,0.0345657572534652
401,0.0376754845865536
402,0.0397985953087929
403,0.0408824378836448
404,0.0426180200648047
405,0.0434168998000734
406,0.0448792410011853
407,0.0460809699695873
408,0.0477218626861781
409,0.0495980343899212
410,0.0532307675858616
411,0.054463003351484
412,0.0580053846725316
413,0.0599811432944163
414,0.0619773230975341
415,0.0640037887096282
416,0.0651922853106143
417,0.0660102445708035
418,0.0685923936409634
419,0.0688482511466347
420,0.07146939574836
421,0.0729954000348653
422,0.0745447467925155
423,0.0761206738839372
424,0.0771958441142347
425,0.0767874792060377
426,0.0767700252218443
427,0.0758007295511162
428,0.0741426172158853
429,0.0743184292978043
430,0.074472406187173
431,0.0773536442877961
432,0.0805155262445354
433,0.0828637370302443
434,0.0867631874777351
435,0.0890049865853863
436,0.089960020220205
437,0.0915435294928651
438,0.0931270387655251
439,0.0947105480381851
440,0.0951986910538724
441,0.0963870016798842
442,0.0985847087396273
443,0.0986960463560665
444,0.099570345398563
445,0.100444644441059
446,0.101318943483556
447,0.101608571776765
448,0.101650846036611
449,0.10487218299828
450,0.103806474179258
451,0.102470165647864
452,0.101638473420102
453,0.10080678119234
454,0.0999750889645775
455,0.0996737630589378
456,0.0991942475695838
457,0.0999414225330156
458,0.100382961269459
459,0.101453392959745
460,0.101383454322004
461,0.100468344055083
462,0.10320969208168
463,0.0999106242671706
464,0.0995533015498823
465,0.0982311255413581
466,0.0977419287915445
467,0.0970506890678388
468,0.0960641184045807
469,0.0952951680576073
470,0.0970650496151709
471,0.0969294119415812
472,0.097395247359083
473,0.0988849673250272
474,0.0988113713825272
475,0.100227752184719
476,0.0986065752154449
477,0.0984203158839349
478,0.0982340565524249
479,0.0980477972209148
480,0.0976329739712015
481,0.0954358080290995
482,0.0936727157181605
483,0.093055467609947
484,0.0902025455918886
485,0.0879834214424415
486,0.0884189521812533
487,0.0886304016760839
488,0.0892697742572966
489,0.0913909727954608
490,0.0918573866886136
491,0.0925422020827804
492,0.0945349179764594
493,0.0931993088612344
494,0.0947873276058001
495,0.0935221705159807
496,0.0938194380718399
497,0.0920007112413486
498,0.0925020101754969
499,0.0901210955920143
500,0.0905791709168136
501,0.0895254220049359
502,0.0907100471611027
503,0.0908529018643695
504,0.0899082726567637
505,0.0926713269487964
506,0.0921686484436469
507,0.0924249941692515
508,0.0926523829428609
509,0.0926490651513645
510,0.0909975457335314
511,0.0920893273156593
512,0.0912815473557784
513,0.0887810551792765
514,0.0883425262569975
515,0.0864305271435136
516,0.0855345842103109
517,0.0848386034339881
518,0.0844802118893147
519,0.0858523746440226
520,0.0872280462668201
521,0.088152203046181
522,0.089076359825542
523,0.0900005166049029
524,0.0894722969307214
525,0.08923166881754
526,0.0893626348831568
527,0.0889868899488886
528,0.0892405158476722
529,0.0901608576417124
530,0.0901031666181126
531,0.0903920954138219
532,0.0900809218222989
533,0.0903971519435289
534,0.0906140510049479
535,0.0897337673621976
536,0.0905837449621034
537,0.0896604932573537
538,0.0887462333626189
539,0.0882624829341522
540,0.0885177685922922
541,0.0878809563227354
542,0.0869855369944127
543,0.0873387273664144
544,0.0880619951335738
545,0.087367949020557
546,0.0880431078018946
547,0.0879136930821903
548,0.087784278362486
549,0.0876548636427817
550,0.0871429814799343
551,0.0876074169121358
552,0.088270834683176
553,0.0873513522137808
554,0.0870536520327122
555,0.0879591167558938
556,0.0865726343877777
557,0.0862076957813017
558,0.0857272577519338
559,0.0849164875965114
560,0.0856881753106142
561,0.084367999190968
562,0.0858084913917362
563,0.0847031416279133
564,0.0850664688760625
565,0.0839795055306675
566,0.0833122493900314
567,0.0822538944015279
568,0.0828163739065233
569,0.0819757367363073
570,0.0817729795895408
571,0.0818511882459897
572,0.0820057961181868
573,0.0817648844124481
574,0.0824830499307905
575,0.081648803022351
576,0.0818786623900435
577,0.082108521757736
578,0.0823383811254285
579,0.082568240493121
580,0.0827980998608135
581,0.0839322988175229
582,0.0834651836319491
583,0.0841299144162916
584,0.082827794981792
585,0.0827283935554728
586,0.0801811584628101
587,0.0787364897498699
588,0.0778122467207158
589,0.0768880036915616
590,0.0759637606624075
591,0.0761970107117344
592,0.0772312472542857
593,0.0774013901520707
594,0.0794830358495792
595,0.0789913653837757
596,0.07990852987948
597,0.0801914726658849
598,0.0806128082881909
599,0.0808872496153193
600,0.0817468735443401
601,0.082152166190809
602,0.0831688720390637
603,0.0828102856139804
604,0.0834962127488688
605,0.0833733409642897
606,0.0839108032556994
607,0.0834493846306203
608,0.0824613198348958
609,0.0825866937650417
610,0.0821769358093145
611,0.0818140353325896
612,0.0810609414953526
613,0.0805444323517776
614,0.0802421770087116
615,0.081138770804005
616,0.0800062968241803
617,0.0806815042725232
618,0.0808726401872838
619,0.0812390581262149
620,0.0811489443619069
621,0.0818824919814542
622,0.0802121026913838
623,0.0804989376264251
624,0.0800752703908518
625,0.0796516031552784
626,0.0792279359197051
627,0.0792093901397112
628,0.0790072730366535
629,0.0787028084656255
630,0.0794144913001843
631,0.0784578389233018
632,0.0786570436641983
633,0.0793815578309309
634,0.0794845211339859
635,0.0800454878475345
636,0.0796089279136121
637,0.0802697785610334
638,0.0798791258770676
639,0.0800242090104524
640,0.0797918427138787
641,0.0797365928508477
642,0.0792745605562367
643,0.0787509806539442
644,0.0782274007516516
645,0.0777038208493591
646,0.0774984556682254
647,0.0773864257603193
648,0.075971722608854
649,0.0772569062171286
650,0.0765859560308369
651,0.0775680740536093
652,0.0766454429404937
653,0.0756897636528157
654,0.0744036020404114
655,0.0753374715442418
656,0.0740598468732287
657,0.07487293852278
658,0.0763316747297678
659,0.0781837198061143
660,0.0793665706982818
661,0.0799160161659271
662,0.0801645029754533
663,0.080215216908986
664,0.0797740772665308
665,0.0802074670131615
666,0.0804221226296697
667,0.0806364528378534
668,0.0807043474794251
669,0.0795633089398838
670,0.0800203255515732
671,0.0800233122562075
672,0.0795648026275275
673,0.0796942150059827
674,0.080219156294262
675,0.0799518942231664
676,0.0802674046348004
677,0.0807957106611476
678,0.0798214926646443
679,0.0800826323872918
680,0.0819131496855127
681,0.0805436173001766
682,0.0793392046014051
683,0.0781624627602823
684,0.0756721980580006
685,0.0737821603847797
686,0.0724094779439102
687,0.0705767284912806
688,0.0700582315412119
689,0.0700667293247368
690,0.0711820099027731
691,0.0721722428982598
692,0.0723487705687119
693,0.0731113661367824
694,0.0741376104504696
695,0.0745068796242757
696,0.0762086022977361
697,0.076681201528907
698,0.075976839167453
699,0.07615904740889
700,0.0778639942248939
701,0.0773624234522924
702,0.0796525475549159
703,0.0797540235408256
704,0.0815955044013547
705,0.0819719281964889
706,0.0839316369088903
707,0.0853400511592145
708,0.0862465987677175
709,0.0879304104819851
710,0.0877615376055635
711,0.0881575096595563
712,0.0891836007763477
713,0.0857309824800247
714,0.0844039789899892
715,0.079913508763058
716,0.0758006442340452
717,0.0730637320084239
718,0.0726471002467876
719,0.07285493923898
720,0.0743096962921452
721,0.0745873627794361
722,0.0775513252575757
723,0.0774561108978102
724,0.0776353907050319
725,0.0782429385346149
726,0.0780928585718411
727,0.0798655563572899
728,0.0815230950199261
729,0.0845579252801068
730,0.0872328480186811
731,0.0908407739554155
732,0.0947947372242082
733,0.0987836496694098
734,0.10152384453958
735,0.103329446157882
736,0.105674965287445
737,0.107442254801535
738,0.109209544315626
739,0.110976833829716
740,0.11407509335395
741,0.115359139572086
742,0.117169996447241
743,0.118980853322396
744,0.120791710197551
745,0.121303519017132
746,0.122132072926564
747,0.123421350641688
748,0.123158860537642
749,0.124011308864991
750,0.124383509265771
751,0.124467635949717
752,0.126491399783031
753,0.125667062385557
754,0.125024569186288
755,0.118326949908066
756,0.111629330629845
757,0.104931711351624
758,0.0927372603581607
759,0.081892807132263
760,0.0728040298360895
761,0.0704804904052516
762,0.0724250668201946
763,0.0773421255000979
764,0.0848355496450322
765,0.0926280990506004
766,0.102077263532007
767,0.111225275224182
768,0.116803131354347
769,0.121236218634549
770,0.124862975992502
771,0.1260233324707
772,0.127410862364187
773,0.130171096060305
774,0.128804212668842
775,0.129391743156155
776,0.130040473370035
777,0.128830077276299
778,0.130493942988424
779,0.129486603667937
780,0.131189141953123
