"wavelength","measurement"
380,0.0145759596885179
381,0.0142513913497741
382,0.0145605006328855
383,0.0139958286110377
384,0.0144717279548432
385,0.0145854957858883
386,0.0162525364987942
387,0.0172365326071336
388,0.0179418332114438
389,0.0191130839456365
390,0.0188114770027482
391,0.0191484162800796
392,0.0192992552980498
393,0.0201157479785847
394,0.0205802522684595
395,0.0225167030791852
396,0.0250513972843086
397,0.0285047053544075
398,0.0319580134245064
399,0.0354113214946053
400,0.0377994049153202
401,0.0416137615531034
402,0.0436252864607564
403,0.0448638821737115
404,0.0460900399968681
405,0.0471530737877572
406,0.0485529893583314
407,0.0493834809051292
408,0.0508909622460571
409,0.0524369335770708
410,0.055887383931841
411,0.0560642207747771
412,0.0587997508211244
413,0.0598631588526999
414,0.06111488179884
415,0.061846265279798
416,0.0612605318224558
417,0.0607611854270375
418,0.0625552109116584
419,0.0616905283491772
420,0.0628489155761422
421,0.0626775045426958
422,0.0631708749405771
423,0.0638902443489829
424,0.0640875541498434
425,0.0628009542584262
426,0.06230837880021
427,0.0606997510343296
428,0.058627351002035
429,0.0582780074670552
430,0.0583655010599012
431,0.0600607458187531
432,0.0622817174592123
433,0.0638820535846714
434,0.0666394661374933
435,0.0682353862619896
436,0.0686694467971556
437,0.0697398173867954
438,0.0708101879764352
439,0.0718805585660749
440,0.0726083223645813
441,0.0734397144479936
442,0.0756284634297546
443,0.0755361374265643
444,0.0765760516668774
445,0.0776159659071906
446,0.0786558801475037
447,0.0794178987933992
448,0.080192534944307
449,0.0830085422868942
450,0.0822961625367153
451,0.0815324843142447
452,0.0811333704932937
453,0.0807342566723427
454,0.0803351428513917
455,0.0803914221702875
456,0.0797936101110645
457,0.0806549303399345
458,0.0810627280230722
459,0.0819778135317653
460,0.0823105904398267
461,0.0814265291208942
462,0.0840656239646706
463,0.081295301240816
464,0.0803633896104469
465,0.0798942832528324
466,0.0792537667745953
467,0.0789303232596104
468,0.0779508847246412
469,0.0777067466535986
470,0.0792302966730602
471,0.0792759430305522
472,0.0797248923149935
473,0.0810450330555819
474,0.0814951881532936
475,0.0832838754160128
476,0.0812155748680118
477,0.0813952077634911
478,0.0815748406589704
479,0.0817544735544497
480,0.0821298495424909
481,0.0799790970566936
482,0.0786331328090078
483,0.0787749803681332
484,0.0760827731358942
485,0.0743479158153437
486,0.0748400509946456
487,0.0750417464847046
488,0.0756830230476487
489,0.0774709935700025
490,0.0783734504924614
491,0.0787995740736798
492,0.0803545614460281
493,0.0794294632772193
494,0.0807904400035193
495,0.0797620633303296
496,0.0800152583910291
497,0.0785704610874589
498,0.0788886032216094
499,0.0770962608924481
500,0.0771941169194332
501,0.0764931664585396
502,0.0773124924312071
503,0.0773694026476311
504,0.0766122376085301
505,0.0790569211848203
506,0.0784952504588127
507,0.0787452287701024
508,0.0791985671134432
509,0.0793113922075623
510,0.0779068910097669
511,0.0786865444392062
512,0.078148755331401
513,0.0761300641713893
514,0.0755144025224596
515,0.0739856031420316
516,0.073352971518437
517,0.072663576646136
518,0.0723358048732414
519,0.0736637702815285
520,0.074759899930778
521,0.0756520219574014
522,0.0765441439840247
523,0.077436266010648
524,0.0766962673848672
525,0.0766713822508242
526,0.076889993901716
527,0.0764042237936251
528,0.076751800266368
529,0.0774606752369616
530,0.0775293961152006
531,0.0774879684741043
532,0.0773588280212293
533,0.077641348301969
534,0.0779054411400745
535,0.0766880590924204
536,0.0776198766939612
537,0.0768761142834151
538,0.0763242195675442
539,0.0756101809880238
540,0.0761564637229155
541,0.0753842190479071
542,0.0746583477321248
543,0.0750567966862664
544,0.0755283018854671
545,0.0751131344736739
546,0.0756442539157495
547,0.0754650443514196
548,0.0752858347870897
549,0.0751066252227598
550,0.0749334645312101
551,0.075225449159051
552,0.0758186693085516
553,0.0751504578052745
554,0.074761358697895
555,0.0755346995740434
556,0.0742054927219458
557,0.0740860819235784
558,0.0732558652831038
559,0.0727924937616239
560,0.0734524395970642
561,0.0721582949653521
562,0.0734108860182017
563,0.0720889193164129
564,0.0725736019903275
565,0.0713652832191671
566,0.0708670132603966
567,0.0700509321440101
568,0.0701942235399446
569,0.069346781976
570,0.0693745002571789
571,0.0693897838780458
572,0.0692918020426795
573,0.0691748208199658
574,0.0696822842288357
575,0.0686637724654565
576,0.0689823885946475
577,0.0693010047238386
578,0.0696196208530297
579,0.0699382369822207
580,0.0702568531114118
581,0.0711394143514235
582,0.0708101349580771
583,0.0713454574103148
584,0.0702595179343674
585,0.0705254312979551
586,0.0682141650887251
587,0.06717466993079
588,0.0664048158902275
589,0.065634961849665
590,0.0648651078091024
591,0.0651906541531794
592,0.0661327504650569
593,0.066333076155207
594,0.0679633221182971
595,0.0679738658501697
596,0.0686762237511936
597,0.0693319099775394
598,0.0697823983693064
599,0.0701469198813008
600,0.0711101079313838
601,0.0717568317039573
602,0.0723665536539213
603,0.0720610914404256
604,0.0732409301641286
605,0.0728671073447878
606,0.073294700526451
607,0.0729174004385215
608,0.0720718221444995
609,0.072187520101912
610,0.0717726120316655
611,0.0715532124731392
612,0.0708610928705299
613,0.0706356120165219
614,0.0697666880122495
615,0.0709444468474849
616,0.0700507821172823
617,0.0706063586479035
618,0.0706438260698916
619,0.0708874059743321
620,0.0708393514785989
621,0.0711448543527527
622,0.0701882319190469
623,0.0700481067540255
624,0.0696250013491269
625,0.0692018959442284
626,0.0687787905393299
627,0.0688487643034386
628,0.068701800244961
629,0.0684283299994949
630,0.0690092935637077
631,0.0682212840277229
632,0.0684579441469421
633,0.0693322798269653
634,0.069171806969151
635,0.0695579819171939
636,0.069229668026624
637,0.0697466900212863
638,0.06951153958299
639,0.0697758556707019
640,0.0693036188887868
641,0.0691360341036032
642,0.0687403524510501
643,0.0681660127079266
644,0.067591672964803
645,0.0670173332216795
646,0.066801199619278
647,0.0669399022564267
648,0.0653541216644727
649,0.0666253843571375
650,0.065932522774527
651,0.0669208209347227
652,0.0660675759099497
653,0.0655222671110192
654,0.0643904684765271
655,0.0649172916564361
656,0.0641547720758052
657,0.0647677895794831
658,0.0657831165327613
659,0.0675932115853865
660,0.0682611758768786
661,0.0689570406609503
662,0.0693492624847896
663,0.0691232748109638
664,0.0688474694509877
665,0.0690730442735582
666,0.0691627549905452
667,0.069471004559873
668,0.0697523948578837
669,0.0684858808009615
670,0.0686975334718224
671,0.0687449984382148
672,0.0683235696340742
673,0.0687067734134806
674,0.0688754828410963
675,0.06892971276727
676,0.0687938234444857
677,0.0691941881410458
678,0.0683612705592646
679,0.068776102184296
680,0.0699093251894104
681,0.0688868793098641
682,0.0677668660635796
683,0.0666825141556527
684,0.064611905754661
685,0.0629889561416958
686,0.0617827628574704
687,0.0602665113516672
688,0.0597913377891917
689,0.0599407926464708
690,0.0605901595309887
691,0.0618082460779381
692,0.0620010980507759
693,0.0627867911021453
694,0.0638088841114017
695,0.0640500871041597
696,0.0654745775524019
697,0.0661134162376948
698,0.065752457269829
699,0.0663296636884935
700,0.0677879356254276
701,0.0676308606949485
702,0.0693208716048051
703,0.0702516564860011
704,0.0717486102915924
705,0.072495405352707
706,0.0742288211544091
707,0.0757617745376561
708,0.0767144546871265
709,0.0782794704264808
710,0.0782773676220408
711,0.0787746876872116
712,0.0800301305705986
713,0.0769707313210329
714,0.075738989343198
715,0.0719417869562037
716,0.068378736168152
717,0.0657976695291682
718,0.0652399246297014
719,0.0663197560420602
720,0.0675976924967273
721,0.0680716875920594
722,0.0706014798098089
723,0.071055548573145
724,0.0712278289065427
725,0.0715140798189518
726,0.0719479916298585
727,0.0734477333457811
728,0.0751617984168692
729,0.0780536739831184
730,0.0804584498055407
731,0.0844218584953722
732,0.0879151830364269
733,0.0920679627617901
734,0.0949704018457283
735,0.0967966039221071
736,0.099163347766053
737,0.100804735187621
738,0.102446122609188
739,0.104087510030756
740,0.107309341090639
741,0.108809099075098
742,0.110506643026555
743,0.112204186978013
744,0.11390173092947
745,0.114794929138821
746,0.11546899521908
747,0.117018260078986
748,0.116372944795667
749,0.117271775366506
750,0.118034042319701
751,0.117697264189746
752,0.119936708576568
753,0.119134719554827
754,0.118789309931287
755,0.112231420022752
756,0.105673530114218
757,0.0991156402056836
758,0.0880062715222274
759,0.0772817379325928
760,0.0686622765268019
761,0.0663002829075528
762,0.0685298947515311
763,0.0728731916579582
764,0.0802125571499292
765,0.0874368460407124
766,0.0961381514682767
767,0.105242558857521
768,0.111114595771595
769,0.115014880295158
770,0.118137113707105
771,0.119575264241195
772,0.121278168420159
773,0.12312274296755
774,0.122630786000889
775,0.122991274469936
776,0.123852688807057
777,0.122543316876104
778,0.124296950644943
779,0.122685643349003
780,0.124614099991105
