"wavelength","measurement"
380,0.0111375695879828
381,0.0107868321440067
382,0.0105230612420109
383,0.0101753953226333
384,0.0103854007809306
385,0.0109148727352775
386,0.0114336252013015
387,0.0118907131619187
388,0.0124969554458512
389,0.0130701757174444
390,0.0125509861042858
391,0.0125377673813157
392,0.0124917408431786
393,0.0126108474955683
394,0.012548817166098
395,0.0134727108984538
396,0.0147080678921569
397,0.0161111856012377
398,0.0175143033103185
399,0.0189174210193993
400,0.0200884877741373
401,0.0207041880519937
402,0.021593476543578
403,0.0219292587637768
404,0.0220936287685911
405,0.0221193815391101
406,0.0226768118027289
407,0.0229827378719105
408,0.0235143729060177
409,0.0242283084095
410,0.0252642158889209
411,0.0257383889221579
412,0.0265672637129658
413,0.0277707182103115
414,0.0283473332730158
415,0.0292562970992407
416,0.0296995114739192
417,0.0301270094573323
418,0.0309643202889598
419,0.0308560647608274
420,0.0321378588896934
421,0.0324243075216616
422,0.0331958094940682
423,0.03399243372981
424,0.0342204147705195
425,0.0337333903261034
426,0.033871142381647
427,0.033317235930522
428,0.032698473747102
429,0.0329443565332176
430,0.0330620347781239
431,0.0343911371653768
432,0.0358130010619013
433,0.0367169826889216
434,0.0384072077413815
435,0.0393421482983029
436,0.0400432223213977
437,0.0406685315325637
438,0.0412938407437297
439,0.0419191499548957
440,0.0420597944384051
441,0.0426835092814896
442,0.0436192919443958
443,0.0437807932494368
444,0.0442944267317526
445,0.0448080602140684
446,0.0453216936963842
447,0.0458426005847325
448,0.0458534964192576
449,0.0473375038197587
450,0.046926226714535
451,0.046666452942058
452,0.0464749815967294
453,0.0462835102514008
454,0.0460920389060722
455,0.0460848093188036
456,0.0460012805188915
457,0.0463012412854829
458,0.0468996698197145
459,0.0473068477081399
460,0.0472936220032134
461,0.0468535024724899
462,0.0483280825335254
463,0.0471647909737434
464,0.0464816915410217
465,0.0461927550685021
466,0.0456366768037916
467,0.0455945575677339
468,0.0452965550793607
469,0.0446820375375393
470,0.045786314656891
471,0.0456132863569405
472,0.0459783573827728
473,0.0463655756701539
474,0.0464695355081718
475,0.0472238661319413
476,0.0461037934230118
477,0.0460987767663255
478,0.0460937601096393
479,0.046088743452953
480,0.0459600799870528
481,0.0448604598633372
482,0.044157089318035
483,0.0439689334762563
484,0.042957554339279
485,0.0419447035219731
486,0.0421407133819967
487,0.0423690221959222
488,0.0428344917682154
489,0.0438544223640811
490,0.0441745319712576
491,0.0446387637681975
492,0.0457896079192006
493,0.0452163851716811
494,0.0460677933050642
495,0.0455568183573013
496,0.0457090945529193
497,0.0451274129278575
498,0.0455148720396967
499,0.0445187607927532
500,0.0447605743536439
501,0.0445244581368007
502,0.0452876651980092
503,0.0455105269276779
504,0.0453187022112381
505,0.0469719212946456
506,0.0468306928793868
507,0.0473648534488489
508,0.047625524062132
509,0.047912658321532
510,0.0475072294127446
511,0.0484983450737879
512,0.0483632380272185
513,0.0474212335213172
514,0.0475170783113938
515,0.0469165778070723
516,0.046925718396108
517,0.0471428927192482
518,0.0472824449490126
519,0.0486362044322394
520,0.0496950567094854
521,0.0506416251184324
522,0.0515881935273794
523,0.0525347619363264
524,0.0525720690079405
525,0.0528891757645003
526,0.053548231498622
527,0.0535505864238154
528,0.0540657361778814
529,0.0551721642156582
530,0.0552604658001812
531,0.0557488153995202
532,0.055720416861339
533,0.0563883646775465
534,0.0569318983166128
535,0.0564083341059024
536,0.0570835442004184
537,0.0568804042421111
538,0.0565905551277583
539,0.0565076823431096
540,0.056724358255004
541,0.0565353450828928
542,0.0561990128897091
543,0.0565804885703821
544,0.0570491974452685
545,0.0568650336145136
546,0.0575131136802114
547,0.0575791520749927
548,0.057645190469774
549,0.0577112288645553
550,0.0573593148576856
551,0.0580324403920062
552,0.058540735737193
553,0.057983512737641
554,0.057877702500966
555,0.058427623029008
556,0.0578725140040198
557,0.0575528572785634
558,0.057285423900934
559,0.0567012073477478
560,0.0574324307031538
561,0.0564024817126002
562,0.0572509250117613
563,0.0564235667859001
564,0.0564846140841535
565,0.0557905996648313
566,0.0551485036728529
567,0.0544626350358752
568,0.0545882982714987
569,0.0537632626579743
570,0.0537175215354074
571,0.0537505251614806
572,0.0536031362803556
573,0.0535963842701664
574,0.0536246633080837
575,0.0528693109526504
576,0.0530021780609977
577,0.053135045169345
578,0.0532679122776923
579,0.0534007793860395
580,0.0535336464943868
581,0.0541391730835891
582,0.0538110726153182
583,0.0540421274636056
584,0.0530792392619537
585,0.0526312379337973
586,0.0509627139081395
587,0.0498654924055142
588,0.0490942885043491
589,0.0483230846031841
590,0.0475518807020191
591,0.04778383461386
592,0.048418583646279
593,0.0484771880788929
594,0.0492669164787223
595,0.0492435776139743
596,0.0497572266908362
597,0.0502800910552598
598,0.0505407357600811
599,0.0508744305112912
600,0.0512800518946677
601,0.0517381198868594
602,0.0521184972091974
603,0.0519256738843916
604,0.0527094687328415
605,0.0522510326941049
606,0.0523477083441663
607,0.0522104258020437
608,0.0515636965813367
609,0.0515726757965216
610,0.051146530764501
611,0.0509368266724154
612,0.0504276765354815
613,0.0503180862203214
614,0.049711269755028
615,0.0504623983434934
616,0.0495389893232266
617,0.0500532540974941
618,0.0499637649501749
619,0.0503817307428488
620,0.0500340396459221
621,0.0505255228747624
622,0.0495224872979819
623,0.0495120403992518
624,0.0491659966308091
625,0.0488199528623663
626,0.0484739090939236
627,0.0484926714546015
628,0.0483501928386663
629,0.0481859807221245
630,0.0486089124787088
631,0.0480658159624033
632,0.0486509323475817
633,0.0488119326260506
634,0.049065717540771
635,0.0492409991476801
636,0.0488274458646042
637,0.0493052116501694
638,0.0490866091863104
639,0.0490953680198093
640,0.0487713980323116
641,0.0485777437171175
642,0.0481851326694271
643,0.0476448882755044
644,0.0471046438815818
645,0.0465643994876592
646,0.046421153302666
647,0.0461476747010575
648,0.0453336056804576
649,0.0460600968111982
650,0.0455192849271813
651,0.0460226940279155
652,0.0454499167736231
653,0.0447939607562112
654,0.0441280721650113
655,0.0446172964608941
656,0.0440948327246265
657,0.0448156181416777
658,0.0451598089912091
659,0.0465476132009163
660,0.0468847182243223
661,0.0469954255382333
662,0.0473959319373451
663,0.0469528280691524
664,0.0467604887240996
665,0.0469078008715563
666,0.0469328964137119
667,0.0470944581740466
668,0.0470488964639649
669,0.0460866225857213
670,0.0464531083631119
671,0.0465254282864755
672,0.0461805303620539
673,0.0463484968050634
674,0.0463489520702432
675,0.046553514119877
676,0.046575690139313
677,0.0470168619939639
678,0.0463478463526553
679,0.046589951626713
680,0.0477499707999684
681,0.0469861691173354
682,0.0462432317386427
683,0.0454896465008797
684,0.0442185601760764
685,0.0431448874936508
686,0.0424812245380614
687,0.0417699645983417
688,0.0419461971958747
689,0.0423877726738633
690,0.0434029978679436
691,0.0446839020872954
692,0.0455240605201887
693,0.046776461691931
694,0.0481415855422481
695,0.0491039191110528
696,0.0508704016867109
697,0.0522503771736084
698,0.0522309231976997
699,0.0533463961104121
700,0.0555109014714241
701,0.0560451169536278
702,0.0583620029209273
703,0.0596127272699762
704,0.0619760532202248
705,0.0630244937451366
706,0.0651611190201001
707,0.0672726997657818
708,0.0686927627134427
709,0.0708108437562809
710,0.0713224908569857
711,0.0725233070844233
712,0.0735091159086502
713,0.0709758320729778
714,0.0697371329967594
715,0.0658892418877844
716,0.0631699292670878
717,0.0612460608847499
718,0.0613381713487423
719,0.0625491985211032
720,0.0642996995720491
721,0.0647961445672316
722,0.0675081094213709
723,0.067831124225575
724,0.068207872762459
725,0.0692088140598688
726,0.069684386220745
727,0.0719744291787399
728,0.0740475676602428
729,0.0772493318157352
730,0.0803652213807446
731,0.0847785339200425
732,0.0888902887854012
733,0.0932288061727307
734,0.0963986668872349
735,0.098354409457692
736,0.101330602490563
737,0.103345687844972
738,0.10536077319938
739,0.107375858553789
740,0.110830170729746
741,0.112546332795797
742,0.114328454333636
743,0.116110575871476
744,0.117892697409315
745,0.118990567663422
746,0.119310950791452
747,0.120665693790114
748,0.119897132697894
749,0.121109477831101
750,0.121671102857134
751,0.121419251235857
752,0.123380585653349
753,0.122642324919595
754,0.121549896000372
755,0.113714881574983
756,0.105879867149593
757,0.0980448527242039
758,0.0851328091656247
759,0.0732864320564347
760,0.0648097997386027
761,0.0628781224748689
762,0.0651718818479108
763,0.0709170549809659
764,0.0787674899780001
765,0.0870462562576977
766,0.0966997891886662
767,0.106026137810068
768,0.111610458373118
769,0.115824980816938
770,0.11924173967855
771,0.120916517754924
772,0.122665178939455
773,0.124628086409341
774,0.123977512618401
775,0.124460844079008
776,0.125074375290276
777,0.123898509816163
778,0.12559053366811
779,0.124319764104209
780,0.125969736300793
