"wavelength","measurement"
380,0.00407633832734567
381,0.00398323232284696
382,0.00399861959687491
383,0.00414455698823202
384,0.00427082373002117
385,0.00454861245517765
386,0.00481201726960693
387,0.00528104547928518
388,0.00551678563103408
389,0.00574132531599994
390,0.00576832677902085
391,0.00598285183042054
392,0.00614701587734214
393,0.00618183458259006
394,0.00654380720627498
395,0.00695421504375803
396,0.0078000148713476
397,0.00879479322821072
398,0.00978957158507385
399,0.010784349941937
400,0.0115693901016086
401,0.0123018235000731
402,0.0129994337971778
403,0.0133335567133167
404,0.0136488313775955
405,0.013785740028805
406,0.0142872663503544
407,0.0145435660282973
408,0.0149675042406313
409,0.0154127314165594
410,0.0163237246180702
411,0.0165827423493596
412,0.0172717350676232
413,0.0178622164884105
414,0.0179586152375876
415,0.018270006682051
416,0.018398587010112
417,0.0183876943264839
418,0.0188325081675225
419,0.0186547439899953
420,0.0191684020731214
421,0.0191941658543674
422,0.0194191147854962
423,0.0197351422540885
424,0.0200095864262234
425,0.0196838231391488
426,0.0195733841742928
427,0.0191786553734191
428,0.0186119255819295
429,0.0188597471548044
430,0.018900492469934
431,0.019890979274195
432,0.0209033197666625
433,0.022076176559163
434,0.0233512803612799
435,0.023945846753609
436,0.0240629536244914
437,0.0242863686221183
438,0.0245097836197452
439,0.0247331986173721
440,0.0248976765419039
441,0.0253874899412335
442,0.0260908573958755
443,0.0262652844132744
444,0.0269077011339155
445,0.0275501178545567
446,0.0281925345751978
447,0.0287656359563645
448,0.0290278086467896
449,0.030355541969742
450,0.0302889140887569
451,0.0302789659371554
452,0.0303122402684417
453,0.0303455145997279
454,0.0303787889310142
455,0.0303885955351712
456,0.030450499881484
457,0.0310781569269779
458,0.0313294196419434
459,0.031853280691336
460,0.0319900689065973
461,0.0318061054385948
462,0.0328181912859595
463,0.0320145826027659
464,0.0317300543397685
465,0.0317245681168271
466,0.031325966783091
467,0.0313590141495423
468,0.031207635582825
469,0.0310576050273436
470,0.0317991384084701
471,0.0318248916978222
472,0.0321877364655992
473,0.0326269598252076
474,0.032808691560027
475,0.0333680443943033
476,0.0327423613472891
477,0.0328809734636634
478,0.0330195855800378
479,0.0331581976964121
480,0.0332723530272234
481,0.0326618229252873
482,0.0324545136719659
483,0.0323554448183143
484,0.0317416072053166
485,0.0311594640955529
486,0.0316881185976545
487,0.0319585645621286
488,0.0322074610094837
489,0.0331775971913096
490,0.0333503277787097
491,0.0338767550007
492,0.0345292767187484
493,0.0342592587146542
494,0.0347970584314438
495,0.0343445041545126
496,0.0345707388832681
497,0.0340382107656283
498,0.0341953267141065
499,0.0334594500642926
500,0.0336482564486584
501,0.0334152318844122
502,0.0339082213045831
503,0.0340653851002505
504,0.0337389486664968
505,0.0348433976908614
506,0.0348771944446645
507,0.0349841318593881
508,0.0352824620685307
509,0.0354700642580617
510,0.0349032954240828
511,0.0355566591148222
512,0.0353478995705961
513,0.0343918708130137
514,0.0341915489004398
515,0.0336964114786938
516,0.0335648676777141
517,0.0334851357324806
518,0.0333994791317945
519,0.0340406317584181
520,0.0347281405003622
521,0.0351480879079324
522,0.0355680353155027
523,0.035987982723073
524,0.0358375559310167
525,0.0359409873145037
526,0.0361030621399611
527,0.0358379729102411
528,0.0361688611560696
529,0.0367069231560788
530,0.0367152916570302
531,0.0368053517841342
532,0.036757558169206
533,0.0371362486708801
534,0.0374037240664203
535,0.037123685613672
536,0.0377484555351307
537,0.0378113880924313
538,0.037958360639213
539,0.0381801767204125
540,0.0387894441527924
541,0.0389866493082142
542,0.0391372622283387
543,0.0395005371656377
544,0.0398959029974152
545,0.0396307564111599
546,0.0399642171667218
547,0.0395162230385165
548,0.0390682289103112
549,0.0386202347821058
550,0.0378037575351879
551,0.0377739598743767
552,0.0377492266381008
553,0.0371964365546046
554,0.0370501901906079
555,0.0372473316773015
556,0.0366924539397587
557,0.0364994570751385
558,0.0362582703532168
559,0.0359013679300215
560,0.0363125471623577
561,0.0357744652943099
562,0.0363421580799005
563,0.0358523381058793
564,0.036011351173698
565,0.035457881736879
566,0.0352933470560685
567,0.0348206391797039
568,0.0349770740304579
569,0.0345640222254009
570,0.0345924392509292
571,0.0346532378254688
572,0.034580602573853
573,0.0347054614645727
574,0.0349756829535932
575,0.0346357367404422
576,0.0348310886581398
577,0.0350264405758375
578,0.0352217924935351
579,0.0354171444112327
580,0.0356124963289303
581,0.0361400530014645
582,0.0359416426191778
583,0.0362309305471064
584,0.0356926890009715
585,0.0355273474102347
586,0.0343503871391794
587,0.0337036579413221
588,0.033183490211012
589,0.0326633224807018
590,0.0321431547503917
591,0.0322560525206053
592,0.0324731044557571
593,0.0324988515180796
594,0.0329005742665608
595,0.0328242321406952
596,0.033058976637748
597,0.0333073187787521
598,0.0334006678775844
599,0.0335131026043318
600,0.0338486930913937
601,0.0339996310388724
602,0.0341828256181625
603,0.0340250619663
604,0.0344735525636868
605,0.0343721803987528
606,0.0346389796739267
607,0.0349909546218219
608,0.0354342308666341
609,0.0362954925799693
610,0.0365236862852563
611,0.0367298850735898
612,0.0362434613169269
613,0.0354491069996759
614,0.0344289271376821
615,0.0341143452458619
616,0.0332300241539435
617,0.0331666081289519
618,0.0329260752290572
619,0.0329127367037418
620,0.0327266032323656
621,0.0328358466271806
622,0.0321616396106318
623,0.0320436630487417
624,0.0317770199824992
625,0.0315103769162568
626,0.0312437338500144
627,0.0311710379966969
628,0.0310504591944402
629,0.0308734628464161
630,0.0310973072215234
631,0.0305604306571982
632,0.0306497944614739
633,0.0306722503740714
634,0.0305897599979313
635,0.0305635621339912
636,0.030303263809062
637,0.0305049340136365
638,0.0302749358778366
639,0.0303665870422605
640,0.0301806139312035
641,0.0300242669606131
642,0.0296839035859764
643,0.0293198723441966
644,0.0289558411024167
645,0.0285918098606369
646,0.0285999349529631
647,0.0284646463855566
648,0.0278276470067364
649,0.0282784983021716
650,0.0279541507822617
651,0.0282079081979452
652,0.0277963598625222
653,0.0273348225747456
654,0.0267605085613171
655,0.0270383109958156
656,0.0267649533093754
657,0.0269378735189522
658,0.0272531696392193
659,0.0279873266786626
660,0.0281885687403307
661,0.0282526606869881
662,0.0284269293871653
663,0.0281777899329507
664,0.0279919322823514
665,0.0280210896534242
666,0.0279602788860069
667,0.0279012058563327
668,0.0279020356281108
669,0.0273392783409884
670,0.0273708753601999
671,0.0272811570719646
672,0.0271293110967699
673,0.0270984795089467
674,0.0271080077243199
675,0.0270418676926862
676,0.0268916605907331
677,0.0270660313392693
678,0.0266046497703743
679,0.0264766992522954
680,0.0271094597338889
681,0.026474358952564
682,0.0258119291664406
683,0.0252811186016944
684,0.0242710754717259
685,0.0234843579217325
686,0.0228850645730189
687,0.0222163194924405
688,0.0219246073848104
689,0.0218665508298303
690,0.0220533597083903
691,0.0222972733259303
692,0.0221827731921718
693,0.0223259627807622
694,0.0226232416717858
695,0.0226047199852302
696,0.0228646423484475
697,0.0230504658947019
698,0.0226483452655263
699,0.0225739274159671
700,0.0229165197759978
701,0.0226922854961468
702,0.0230836928491615
703,0.0232474604956396
704,0.0236437556859207
705,0.0237381920935115
706,0.0240969329487014
707,0.0244863648824993
708,0.024518256401812
709,0.0247295783260164
710,0.0243915405534285
711,0.0242660719005299
712,0.0241476689682453
713,0.0228458426815368
714,0.0220475248823291
715,0.0205016634159035
716,0.0191342474533208
717,0.0181698554962552
718,0.0177757631708684
719,0.0177329529307031
720,0.0179546520716929
721,0.0177793261726703
722,0.0182224949625933
723,0.017988688613617
724,0.0178813988427583
725,0.0177962579517318
726,0.0176638413827207
727,0.0178539507805626
728,0.018005348404718
729,0.0185382157770205
730,0.0190449756183545
731,0.0197644219351386
732,0.0204848678886872
733,0.0212111888384414
734,0.0216517574777472
735,0.0218672975900199
736,0.0221392662035667
737,0.0223285321259785
738,0.0225177980483902
739,0.022707063970802
740,0.0231249315613878
741,0.023246795124539
742,0.0233642096210308
743,0.0234816241175226
744,0.0235990386140145
745,0.0236245912792199
746,0.023538212243089
747,0.0235569933067815
748,0.0232193390611486
749,0.0232761565463708
750,0.0231645475215172
751,0.022934670212064
752,0.023137230515634
753,0.0228741406044881
754,0.022484119828867
755,0.0209609091670304
756,0.0194376985051939
757,0.0179144878433573
758,0.0154720530672438
759,0.0131942070261812
760,0.0117400251564473
761,0.0111175288299693
762,0.0115134580086814
763,0.0123751630492629
764,0.0136705986010349
765,0.015052894018118
766,0.0166740168197167
767,0.018207730436922
768,0.0191009598516161
769,0.0196532583858966
770,0.0200715635207166
771,0.0202615945857917
772,0.0205350163175213
773,0.0206879623385596
774,0.0204719351232034
775,0.0204490557655403
776,0.0205191445513668
777,0.0201645167413591
778,0.0203358033483288
779,0.0200457229273737
780,0.020164139360767
