"wavelength","measurement"
380,0.00243809620243387
381,0.00230219993512034
382,0.00245264006664915
383,0.0022350268493994
384,0.00236680621500402
385,0.00267586300323925
386,0.00277002662861423
387,0.00318210578408917
388,0.00318492387730442
389,0.00325971476168367
390,0.00335378858874279
391,0.0035829041137692
392,0.00352934129598398
393,0.00373011484831561
394,0.00393748946914761
395,0.00418182764747893
396,0.00486159428196281
397,0.00546632102501141
398,0.00607104776806002
399,0.00667577451110862
400,0.00723614771734429
401,0.00776944728397591
402,0.00837915121493361
403,0.00873544573367031
404,0.00898372217064496
405,0.00927874522224484
406,0.00959753815433969
407,0.00999109799537955
408,0.0102065923329401
409,0.0106556250909209
410,0.0113504848860913
411,0.0115537476489967
412,0.0121361109521387
413,0.0125986460106986
414,0.0128293692652502
415,0.0130374995378635
416,0.0133323240602938
417,0.0132187434116673
418,0.0136938890936821
419,0.0134813978250799
420,0.0141523352410261
421,0.0141408178178709
422,0.0144180333379884
423,0.0146745489328922
424,0.0147655934874321
425,0.0146160886427258
426,0.0145362889016997
427,0.0143113399640616
428,0.0139476487749068
429,0.0141253006890824
430,0.0142160750543975
431,0.0149965396206204
432,0.0156939646891537
433,0.0166675517559061
434,0.0175910562915742
435,0.0181244337660615
436,0.0183937461531386
437,0.0184516121061585
438,0.0185094780591784
439,0.0185673440121983
440,0.0187494170705124
441,0.0190043000569884
442,0.0197070209082298
443,0.0196759835866524
444,0.020166091983312
445,0.0206562003799716
446,0.0211463087766312
447,0.0214818009394543
448,0.0217681692082918
449,0.0227506412719032
450,0.022699804540616
451,0.0226768568174205
452,0.0227328781546318
453,0.022788899491843
454,0.0228449208290543
455,0.0228853717358492
456,0.0230712792209333
457,0.0233092520517799
458,0.0236538971290375
459,0.0240333029526664
460,0.0241458774050622
461,0.0240533137391423
462,0.0248011606546012
463,0.0242644155399557
464,0.0240907340876584
465,0.0240688537023688
466,0.0237965184804249
467,0.0238032155223959
468,0.0236565830993169
469,0.0234859613227255
470,0.0241279915152545
471,0.0241550301048623
472,0.0243626833646036
473,0.0247410773195914
474,0.024834436002429
475,0.0254721636144816
476,0.0248822362246567
477,0.0250037028647449
478,0.0251251695048332
479,0.0252466361449214
480,0.0253056367260265
481,0.0248102197380197
482,0.0246381343081659
483,0.0245956330222707
484,0.0241966119620875
485,0.023767117599075
486,0.0241142998453649
487,0.0243621197809584
488,0.0245948029710549
489,0.0252841937218715
490,0.0255274810411429
491,0.0257402053843543
492,0.0263481722948375
493,0.0261352606037164
494,0.0265979348773585
495,0.0262262101586678
496,0.02637722099616
497,0.0259141343210627
498,0.0261950281182865
499,0.0256249068991342
500,0.0258183090061325
501,0.0255358900439551
502,0.0259393446563429
503,0.0260818465542862
504,0.0259843227085808
505,0.0268033523056358
506,0.0267015546573403
507,0.0269972960318765
508,0.0271408783185331
509,0.0272753913967214
510,0.0269760115324645
511,0.0274355291008903
512,0.027287920756423
513,0.0265379184363346
514,0.0265157268891512
515,0.0261167228546224
516,0.0259795958956818
517,0.0260139801469578
518,0.0260059246311921
519,0.0265835599859164
520,0.0270287068891008
521,0.0274056561104996
522,0.0277826053318985
523,0.0281595545532973
524,0.0281193978565259
525,0.0281942048474259
526,0.0284022875775633
527,0.0281936073632606
528,0.0283970575681514
529,0.0289042135623648
530,0.0290221641908894
531,0.0291406789722243
532,0.029096005993569
533,0.0294506017510283
534,0.0296108283486707
535,0.0293400247888884
536,0.029940781445667
537,0.030012295545778
538,0.0301836617694357
539,0.0304189846776214
540,0.0308826641643429
541,0.030999426590585
542,0.0311834979445857
543,0.0316104144621812
544,0.0318952215718163
545,0.031734129612903
546,0.0319568661019077
547,0.0315955368539173
548,0.031234207605927
549,0.0308728783579366
550,0.0302402264288002
551,0.0301305708605757
552,0.0301476732658087
553,0.0297094231828123
554,0.029518186196015
555,0.0297256104753416
556,0.0292592404625758
557,0.0290939357370746
558,0.0289624686445091
559,0.0287115899295011
560,0.0289254722217
561,0.0284812151135188
562,0.0290406454140716
563,0.0285823388780663
564,0.0287509391263451
565,0.0283482248708625
566,0.0280891968249827
567,0.0277712146676985
568,0.027891174716147
569,0.0275542914992762
570,0.0275094676502712
571,0.0275655246189194
572,0.0276011786777593
573,0.0276698583006565
574,0.02787008737851
575,0.0276119449172473
576,0.0277586594317195
577,0.0279053739461916
578,0.0280520884606638
579,0.028198802975136
580,0.0283455174896081
581,0.028747813103489
582,0.0285571266084694
583,0.0287469168583306
584,0.028283388881872
585,0.0281636545182155
586,0.0272068273179491
587,0.0267605184937237
588,0.0263262064006159
589,0.0258918943075082
590,0.0254575822144004
591,0.0255042200446271
592,0.0256767383375083
593,0.0256225685334812
594,0.026036971817095
595,0.0258225119835677
596,0.0261670371569035
597,0.0262604233905799
598,0.0263205729700265
599,0.0264207793935988
600,0.0266701193452702
601,0.0268167688007123
602,0.0269621831889062
603,0.0268606235632296
604,0.0271913226278784
605,0.0270301318556043
606,0.0273087233823654
607,0.027675482033167
608,0.0279398104070284
609,0.0286149243427458
610,0.028880291624215
611,0.0290419743496124
612,0.0286114324774025
613,0.0279571942921946
614,0.0270680063790997
615,0.0269285786328101
616,0.0262154523508673
617,0.0261734753703237
618,0.0258743448104021
619,0.0258848592158154
620,0.0256624847999249
621,0.0258450535718336
622,0.025294735403018
623,0.0251474807882263
624,0.0249474091901317
625,0.0247473375920371
626,0.0245472659939425
627,0.0245050135439548
628,0.0245046216844774
629,0.0243303309409673
630,0.0244576719719379
631,0.0240397878260174
632,0.0241526968211484
633,0.0240913809621516
634,0.0239764582638933
635,0.0240926222419503
636,0.0237386467256308
637,0.0239900182999594
638,0.0238303633420611
639,0.0238204457000554
640,0.0236646498515991
641,0.0234900724147739
642,0.0232938614619002
643,0.0230101007083586
644,0.022726339954817
645,0.0224425792012754
646,0.0223894077150478
647,0.0222524750783979
648,0.0218170470958561
649,0.0221449133022043
650,0.0218377871889971
651,0.0220316045849976
652,0.0217862241032222
653,0.0213817430240459
654,0.0209424436973205
655,0.0211726533744108
656,0.0207837594318782
657,0.0210969587681119
658,0.0213433003037842
659,0.0219048664446762
660,0.0220088916557779
661,0.0220690217034756
662,0.0221571095333437
663,0.0220494288428152
664,0.0218139806388147
665,0.021853125965515
666,0.021803103930794
667,0.0217615343262679
668,0.0217430089364745
669,0.0213555667835544
670,0.0214084102641874
671,0.0212382291653451
672,0.0211246216760273
673,0.0211224355189988
674,0.0211416224520263
675,0.0210430683965704
676,0.0209088322158041
677,0.0210343330175046
678,0.0207012356263735
679,0.0207213072867538
680,0.0210443706824093
681,0.0206792336752337
682,0.0202652037838094
683,0.0197068150343265
684,0.0189972143918983
685,0.0184184740943258
686,0.0179709722582646
687,0.0175118099056356
688,0.0172651266520466
689,0.0172865382697583
690,0.0174466159798215
691,0.0177009580919077
692,0.0177337907301639
693,0.0179098172537318
694,0.0181431362389044
695,0.0180375857272741
696,0.0184911517935232
697,0.0186174125734953
698,0.0183178271925467
699,0.0183794236377827
700,0.0186037578353776
701,0.018635422210584
702,0.0189779573362244
703,0.0191999272647329
704,0.019539209416279
705,0.0197294516311862
706,0.020057571250349
707,0.0203840201935203
708,0.0204130027039031
709,0.0206938450852767
710,0.0204747367308241
711,0.0205447362214079
712,0.0204749562218883
713,0.019429954925883
714,0.0187890736642705
715,0.0175145578525356
716,0.0164393139722637
717,0.0156275264422541
718,0.0153757127864472
719,0.0154682531336078
720,0.015558764878825
721,0.0155265921589524
722,0.01593817793754
723,0.0157903663159964
724,0.0157150879736304
725,0.0156620802509443
726,0.0155928002718671
727,0.0158168905255198
728,0.0160218642945514
729,0.0165577192508659
730,0.0169441598942697
731,0.0176654935580687
732,0.0182003136223618
733,0.0189227356790172
734,0.0194394662926561
735,0.0195003284215865
736,0.0199256552433074
737,0.0200915854311111
738,0.0202575156189147
739,0.0204234458067183
740,0.0208282325446388
741,0.0210177012940157
742,0.0211659681453346
743,0.0213142349966534
744,0.0214625018479723
745,0.0214887095985646
746,0.021379224002904
747,0.0214613427947108
748,0.0211482437993376
749,0.021204486961732
750,0.021105985776163
751,0.0208084191825676
752,0.0211465090107167
753,0.0208855655002313
754,0.0206419839558606
755,0.0192452193745871
756,0.0178484547933136
757,0.0164516902120401
758,0.0141577241013914
759,0.0123561155144467
760,0.0107941232948418
761,0.010357134348166
762,0.010646978581259
763,0.0113985837616691
764,0.0127225928543321
765,0.0138378315536295
766,0.0155010239617991
767,0.0167704840368035
768,0.0174918265195485
769,0.0180265950742894
770,0.0186029895270547
771,0.0187082027999897
772,0.018939596932007
773,0.0189631874592364
774,0.0189707695416679
775,0.0188779431821807
776,0.0188887135013674
777,0.0187695254290736
778,0.0188318354378395
779,0.0184636117085225
780,0.0187307032799624
