"wavelength","measurement"
380,0.0155864672142393
381,0.0151268020332474
382,0.0147976572557729
383,0.0146086385310166
384,0.0147507430578646
385,0.0155074959736895
386,0.0161155323534218
387,0.0170782135116198
388,0.0175257269483544
389,0.0180089330747839
390,0.0177222906333004
391,0.0176364330277132
392,0.017969857061198
393,0.0178523687427837
394,0.0180506918556499
395,0.0191888595580556
396,0.0211078660790119
397,0.0233064836012974
398,0.0255051011235828
399,0.0277037186458682
400,0.0288753980525281
401,0.0302608597888881
402,0.0314730706891534
403,0.0314935313420585
404,0.0315921268336829
405,0.0317240663198885
406,0.0319117612744055
407,0.0321435535248772
408,0.0323198279048283
409,0.0329422850848916
410,0.0340848713910198
411,0.0344847524300125
412,0.0354189700441061
413,0.0361149755245029
414,0.0361912314583875
415,0.036612608678608
416,0.0366084455965581
417,0.036413927222219
418,0.0373666958921407
419,0.0367291768663906
420,0.037777498117068
421,0.0377963255954012
422,0.038124275273859
423,0.0384722968011927
424,0.039033447445729
425,0.0384699429823048
426,0.0381383956818687
427,0.0371897033571321
428,0.0360325483415046
429,0.0363536910909958
430,0.0361397023677961
431,0.0376692615330952
432,0.0388804258339419
433,0.0403753164465849
434,0.0420965055924303
435,0.0430755836237487
436,0.0433300358161803
437,0.0440711338980361
438,0.044812231979892
439,0.0455533300617478
440,0.0457972592534111
441,0.0464301596324962
442,0.0473501405907886
443,0.0476511114597438
444,0.048273911762556
445,0.0488967120653682
446,0.0495195123681804
447,0.0504373199591759
448,0.0505942181151068
449,0.0523608402430411
450,0.0518681448410526
451,0.0515347874220999
452,0.0513722006484803
453,0.0512096138748608
454,0.0510470271012412
455,0.0509292852899418
456,0.0510815688092472
457,0.0512523157212167
458,0.0516930187028033
459,0.0525401997921508
460,0.0524451283261097
461,0.0519792938169893
462,0.0534581371967798
463,0.0518905145114063
464,0.0513220572762218
465,0.0510764703930102
466,0.0503125880624075
467,0.0501648247364715
468,0.0497294848494771
469,0.0492013633630089
470,0.0502026180766832
471,0.0502714041330232
472,0.0503994656659311
473,0.0511205998536409
474,0.0510127463709719
475,0.0518253846921093
476,0.0505286280688316
477,0.0505812915439978
478,0.050633955019164
479,0.0506866184943303
480,0.0505299176075822
481,0.0493466443838616
482,0.0485696377451258
483,0.0481457460102959
484,0.047109775180472
485,0.0458033075949512
486,0.0463428154951746
487,0.046595131746056
488,0.0470887430170094
489,0.0482107466283731
490,0.0486328690969161
491,0.0490599147656667
492,0.0501119475921568
493,0.0497154543704751
494,0.0505522392133852
495,0.0497871533052446
496,0.050027167756546
497,0.0493165701586705
498,0.0496834855198589
499,0.0483966833002759
500,0.0487407080240996
501,0.0483924724660096
502,0.0491968130835751
503,0.0494745797130901
504,0.0488454322561985
505,0.0505962563659005
506,0.0504678413568517
507,0.050668676973492
508,0.0510771135780643
509,0.0512061652711327
510,0.0504646331290597
511,0.0512262550188793
512,0.0512366856767128
513,0.049772620702381
514,0.0495128665471929
515,0.0487638571818552
516,0.048534990332081
517,0.0484257018320387
518,0.0485217869074843
519,0.0495015237467159
520,0.050505635945668
521,0.0511569935864148
522,0.0518083512271617
523,0.0524597088679085
524,0.0524061079566017
525,0.0526156798734791
526,0.0530132971491814
527,0.0528082611911348
528,0.0532297719942913
529,0.0539465625947428
530,0.0541542848833008
531,0.0543258695015997
532,0.0542722151672202
533,0.054763115777308
534,0.0550783102419231
535,0.0545040534246553
536,0.0551688012076177
537,0.0547356834726028
538,0.0544159917211572
539,0.0539967233525528
540,0.0543277284740742
541,0.0539872536479926
542,0.0538802728634478
543,0.0541054496927973
544,0.0543347541218212
545,0.0540563468496244
546,0.0545704156331306
547,0.0545982313118781
548,0.0546260469906255
549,0.054653862669373
550,0.0543985426076446
551,0.0548363171504817
552,0.0554070782385876
553,0.0548864969100841
554,0.0547419333749191
555,0.055300974304982
556,0.0544655159343724
557,0.0544180931718897
558,0.0540911082705044
559,0.0537361422926203
560,0.0542606866238354
561,0.0533887204725448
562,0.0543383249504836
563,0.0536040239908735
564,0.0538434758609818
565,0.0530338318195828
566,0.0526490743378955
567,0.0519129561730745
568,0.0524196765845146
569,0.0516675730672562
570,0.051670494683165
571,0.0517673130822962
572,0.0517432837105234
573,0.0517555268508003
574,0.0521582020315102
575,0.0514325847571674
576,0.0515979534200255
577,0.0517633220828836
578,0.0519286907457418
579,0.0520940594085999
580,0.052259428071458
581,0.0530214547515848
582,0.0527513332663102
583,0.0530013217561939
584,0.0520372838768179
585,0.0517035455499147
586,0.0500806261062931
587,0.0490030083217899
588,0.0483567899084776
589,0.0477105714951653
590,0.047064353081853
591,0.0471765146943751
592,0.0477519089469184
593,0.0480017151857841
594,0.048763363824225
595,0.0488043953115666
596,0.0493142862587706
597,0.049615089422987
598,0.0498590150434335
599,0.0501989330272711
600,0.050691750114158
601,0.0510231136633001
602,0.0513404428807857
603,0.0512904041106458
604,0.051911629982951
605,0.051473649993445
606,0.051717304707718
607,0.0513692906922205
608,0.0507868707592411
609,0.0507736991004849
610,0.050288748022922
611,0.0500242316690676
612,0.0496229669236236
613,0.0495219907367795
614,0.0489670926311136
615,0.049645815275396
616,0.0488963341292903
617,0.0494494272155795
618,0.0492920407286431
619,0.0494319589070592
620,0.0491844292334463
621,0.0496455787873038
622,0.0485708340642462
623,0.0486041023414284
624,0.0482519993491569
625,0.0478998963568855
626,0.047547793364614
627,0.0472688445688176
628,0.0472258537487938
629,0.0470829836392929
630,0.0474343387386151
631,0.0469532650751987
632,0.0473476756262581
633,0.0476686316389566
634,0.0476077378991953
635,0.0478539883810856
636,0.0476172405525193
637,0.0481114045985906
638,0.0478296571116946
639,0.0480273319283971
640,0.0478261492744895
641,0.0475532645937261
642,0.0471691094632888
643,0.0467105973687417
644,0.0462520852741947
645,0.0457935731796476
646,0.0458198128288036
647,0.0456665354900615
648,0.0447380527249169
649,0.0455234553316009
650,0.04513964281036
651,0.0456529341702407
652,0.0450308938971009
653,0.044437709728548
654,0.04365702670514
655,0.0440797643341674
656,0.0436468376119614
657,0.0443130587821232
658,0.0447750980276966
659,0.0461528611945369
660,0.0465597197514584
661,0.0468874925418113
662,0.047057970460601
663,0.0468595652600815
664,0.0465714477936067
665,0.046729307806513
666,0.0468880585976403
667,0.0471096859287021
668,0.0469702079851466
669,0.0462039900305641
670,0.0464907669383864
671,0.0463553458512416
672,0.0461795477063221
673,0.0464305419518183
674,0.0464904090359319
675,0.0464527137474881
676,0.0464870735425546
677,0.0469985567150266
678,0.0462593768181662
679,0.0462970684275396
680,0.0472832214333162
681,0.0465989628656492
682,0.045532351383245
683,0.044826855664175
684,0.0432122277063061
685,0.0421134438473372
686,0.0410968625694919
687,0.0401789883680155
688,0.0399471001586006
689,0.0400604709547791
690,0.040649288213564
691,0.0413493120895875
692,0.0415731737631043
693,0.042052280675075
694,0.0428763920134096
695,0.0432886672510494
696,0.0443087878526744
697,0.044775398469915
698,0.044543652150736
699,0.0449205853991625
700,0.0460695041901572
701,0.046068653084323
702,0.0473142260357401
703,0.0477939294913159
704,0.0490560777710938
705,0.0496739374306266
706,0.0508021534120942
707,0.0520696096647678
708,0.0527702271544384
709,0.053934408553676
710,0.0537137437536259
711,0.0541206816218102
712,0.054571757813785
713,0.052567928460645
714,0.0511689878772239
715,0.0482465514629284
716,0.0458602776573427
717,0.0442165359377826
718,0.0439582642658885
719,0.0447295829023799
720,0.0456858466617969
721,0.0457975343588671
722,0.0474899053962893
723,0.0475857720975395
724,0.047742068562202
725,0.0481186759712709
726,0.0484347097725084
727,0.0496938576959401
728,0.0509279579408191
729,0.0530345586206732
730,0.0550590547090619
731,0.0577528211177898
732,0.0604572542507467
733,0.0632879188418658
734,0.065468614016356
735,0.0665644991205088
736,0.0682450441649992
737,0.0695525510474326
738,0.0708600579298659
739,0.0721675648122993
740,0.0745077214466032
741,0.0753567946734897
742,0.0764688240387102
743,0.0775808534039306
744,0.0786928827691511
745,0.0793534237423421
746,0.0796377899632126
747,0.0803534101244818
748,0.0797562619031858
749,0.0805081205971154
750,0.0803128439480568
751,0.080473595811167
752,0.0818174957335719
753,0.0812701698201068
754,0.0804292089489994
755,0.0751937314390029
756,0.0699582539290064
757,0.0647227764190098
758,0.0561499450690219
759,0.0484817309998182
760,0.042903806449086
761,0.0418609888884871
762,0.0430912430453669
763,0.0469540847628105
764,0.0521158142351446
765,0.0574750974741956
766,0.0638148834199831
767,0.0697652464144017
768,0.0733698189800304
769,0.0760155785795363
770,0.078428363028585
771,0.079504560378261
772,0.0804923109442211
773,0.0817223403234187
774,0.081310888533967
775,0.0814733986160329
776,0.0818080766857472
777,0.081324099301601
778,0.0822154721533697
779,0.0813407298034257
780,0.082219219520517
