"wavelength","measurement"
380,0.00241892433079631
381,0.0022843217058206
382,0.00255495105826722
383,0.00232357570906719
384,0.00252228417590492
385,0.00263631241085988
386,0.00276107952803402
387,0.00303001125685919
388,0.00320805827433581
389,0.0034026167793292
390,0.0034542134756604
391,0.00355004702952028
392,0.00345167927034751
393,0.00373477479556644
394,0.00396220757145518
395,0.00422436441965297
396,0.00470110374024349
397,0.00526741271511293
398,0.00583372168998237
399,0.00640003066485181
400,0.00696301954744676
401,0.00746512552033053
402,0.00803337722839838
403,0.00832046328126193
404,0.00853322476303964
405,0.00889169032480961
406,0.00914352922328755
407,0.00931898543995523
408,0.00966638411678047
409,0.0100382699036401
410,0.0106781741915182
411,0.010878995499666
412,0.0114360491413223
413,0.0118973585637279
414,0.0119562051109274
415,0.0123703009588804
416,0.012368881846521
417,0.0125663860644973
418,0.0128790849131875
419,0.0126337010004462
420,0.0132116281093887
421,0.0131499342854026
422,0.0133120485675076
423,0.0135616786413672
424,0.0135895725121463
425,0.013449067567749
426,0.0135843613085839
427,0.0131411107816157
428,0.0129178375349595
429,0.0129973504909779
430,0.0130573462559544
431,0.0138139539857256
432,0.0145264842242615
433,0.0154310815862813
434,0.0163096354941647
435,0.0167274449354504
436,0.0168275180935381
437,0.0169231964819447
438,0.0170188748703513
439,0.0171145532587579
440,0.0172672849465728
441,0.0175643850714538
442,0.0179482379010815
443,0.0183565816077256
444,0.0187071773141332
445,0.0190577730205408
446,0.0194083687269484
447,0.0199479426052856
448,0.0199614169862509
449,0.0209064514045626
450,0.0209792245273095
451,0.0208955474469335
452,0.0209440192042917
453,0.0209924909616498
454,0.0210409627190079
455,0.0210335514629199
456,0.0211119928311627
457,0.0214481687507455
458,0.0216199910713141
459,0.0220784103367691
460,0.0221954389396349
461,0.0219857961499856
462,0.0225768535142904
463,0.0223054849992923
464,0.0219988073262607
465,0.0219000122343151
466,0.0217832166488694
467,0.0218056271955712
468,0.0215538536438187
469,0.021633877662725
470,0.022095470284256
471,0.0221451234010911
472,0.0222599143383
473,0.0226372502791635
474,0.0227504957680169
475,0.0231839685398691
476,0.0226815215865474
477,0.02278947964607
478,0.0228974377055925
479,0.023005395765115
480,0.0229829295535128
481,0.0226262359637212
482,0.0224961339237548
483,0.0224361531931669
484,0.0221320918240421
485,0.0217485452738871
486,0.0220016821145557
487,0.0222307571136495
488,0.0224571352409836
489,0.0230739961281973
490,0.0230741501696482
491,0.0235075329826956
492,0.0239743876111833
493,0.0237684498145962
494,0.0241590476747178
495,0.0239639938663263
496,0.0241003009744852
497,0.0236306033637592
498,0.0237449070669436
499,0.0232616207851705
500,0.0233907968998998
501,0.0231942680366441
502,0.0235634019298793
503,0.0237061246923306
504,0.0235912535876027
505,0.0242559606553309
506,0.0242475366173565
507,0.0244282222524315
508,0.0245926294030268
509,0.0247017256819302
510,0.0243553696490427
511,0.0248147923317815
512,0.0247951915404067
513,0.0241055596762844
514,0.0240551107215378
515,0.0236312660589621
516,0.0236166907717012
517,0.0236421573460238
518,0.0235409806056347
519,0.0240672720260258
520,0.0245312648191288
521,0.024875478792171
522,0.0252196927652132
523,0.0255639067382555
524,0.0254664762978692
525,0.0255351132070419
526,0.0257058835060383
527,0.0255737260803135
528,0.025714265361072
529,0.0261634620534061
530,0.0262206778905753
531,0.0263363325076078
532,0.026316260431113
533,0.0266263909962742
534,0.0268265203758162
535,0.0266314094596538
536,0.0271075061667871
537,0.0271778630187221
538,0.0273817106189712
539,0.0276333955749441
540,0.0280208909139505
541,0.0282522725886479
542,0.0282991399844224
543,0.0287111210183104
544,0.0290857035139366
545,0.0288203331009278
546,0.0290850700120743
547,0.0287187715970532
548,0.0283524731820321
549,0.027986174767011
550,0.0273909918486288
551,0.0272688927192823
552,0.0272890994061707
553,0.0269484207333964
554,0.0267146390775853
555,0.0268297872450688
556,0.0264214791083035
557,0.0262969770018675
558,0.0261238606570112
559,0.0258113742973746
560,0.0261533224594755
561,0.0257065730967353
562,0.0262146413994982
563,0.0257396985665878
564,0.0259119831548177
565,0.0255589802044701
566,0.0253692888929442
567,0.0250000726007378
568,0.0251958560736683
569,0.0247966921266669
570,0.0248595861445642
571,0.0248447899160905
572,0.0249629773343423
573,0.0248654382683499
574,0.0251017265696708
575,0.024831213694854
576,0.0249736014050102
577,0.0251159891151664
578,0.0252583768253225
579,0.0254007645354787
580,0.0255431522456348
581,0.0258493981130886
582,0.0257789693855664
583,0.0259479523749439
584,0.0255131413909959
585,0.0254053750522698
586,0.024611649667319
587,0.0241392373490028
588,0.0237526133687313
589,0.0233659893884598
590,0.0229793654081883
591,0.0229344157762721
592,0.0231332265440642
593,0.0231358535594177
594,0.0234708158138463
595,0.0232947874964503
596,0.0234760807545906
597,0.0236521082274448
598,0.0236631504176083
599,0.023717559530548
600,0.0239455349091131
601,0.0240751394792214
602,0.0242959531231493
603,0.0240921874828522
604,0.0243948923476
605,0.0242069311916343
606,0.0245105369822271
607,0.0248995118563179
608,0.0252418885405143
609,0.0258414010008723
610,0.0261008036210871
611,0.0262266665342675
612,0.0258622079523276
613,0.0252920272880392
614,0.024412555635154
615,0.0242563861649895
616,0.0235750668899784
617,0.0234933661026755
618,0.0232571921692897
619,0.0231978883659869
620,0.0230634678940476
621,0.0231425450549743
622,0.022738641204699
623,0.0226855854707474
624,0.0224479970359589
625,0.0222104086011704
626,0.0219728201663819
627,0.0219855068759404
628,0.0218285120011051
629,0.0217926533831985
630,0.0219129956573918
631,0.0215889372899878
632,0.0215691115399584
633,0.0216254643807606
634,0.0214720345176036
635,0.0215327807260062
636,0.0212507212340817
637,0.0214951010321167
638,0.0213031713681458
639,0.0213443812872019
640,0.021157983042358
641,0.0210227884851436
642,0.0208553665841282
643,0.0206052378530435
644,0.0203551091219588
645,0.0201049803908741
646,0.0200260987384912
647,0.0198541210679555
648,0.0195514353954912
649,0.0196856949162832
650,0.0195733635676596
651,0.0197036770699241
652,0.0194310966801295
653,0.0191222141172363
654,0.0186996583904094
655,0.0188760592136602
656,0.0187715272670871
657,0.0188332123541891
658,0.0190858779791535
659,0.0195251976621645
660,0.0195803499033594
661,0.0197443879668406
662,0.0198511894855846
663,0.0197238372015329
664,0.0194974052688243
665,0.0195074619211076
666,0.0195349562082468
667,0.0193944482130511
668,0.0193978437465801
669,0.0190021025754478
670,0.0190710097050607
671,0.0190886472328639
672,0.0188099228674507
673,0.0188286659012022
674,0.0188467508985873
675,0.0188129439752155
676,0.0186769170870854
677,0.0188227823326907
678,0.0184349926304826
679,0.0184450019530066
680,0.0187877350838714
681,0.0184329047112761
682,0.0180522456225191
683,0.0176961409258077
684,0.0170062709505109
685,0.0164713283178522
686,0.0160497710610008
687,0.0155655241915585
688,0.0154883577904634
689,0.0153836740468835
690,0.0156882347405855
691,0.01581459303348
692,0.015855359921241
693,0.0159448753975028
694,0.0161345547353678
695,0.0162154743798248
696,0.01651710689004
697,0.0165824452603974
698,0.016414371083168
699,0.0164360498497492
700,0.0167042932768007
701,0.0165704733203491
702,0.0169689708588341
703,0.0171002001746668
704,0.0175871644481478
705,0.0175416270130386
706,0.0179016034748533
707,0.0182365839646164
708,0.0182908428014398
709,0.0185458619636753
710,0.0184005083750139
711,0.0182879222988678
712,0.0183578557586782
713,0.0174111506924064
714,0.0168242908618795
715,0.0157109189654211
716,0.0147188021104717
717,0.0140092588631513
718,0.0138032580324511
719,0.0137754139831395
720,0.0140182183247833
721,0.0138384125887787
722,0.0143492163789855
723,0.0142285496916456
724,0.0140254598350703
725,0.0140634894854659
726,0.0138985735098169
727,0.0141697800594697
728,0.0143670183710349
729,0.0147853543383639
730,0.0152764525023117
731,0.0158225960131321
732,0.0164141237573002
733,0.0170186632478609
734,0.0173966847216242
735,0.017576443044837
736,0.0179684444044447
737,0.0181280539058122
738,0.0182876634071798
739,0.0184472729085473
740,0.0188111624551923
741,0.0188886683846005
742,0.0190475975910811
743,0.0192065267975617
744,0.0193654560040422
745,0.0193729258330492
746,0.0192406843284596
747,0.0193931871813228
748,0.0190806423097377
749,0.0191441198570589
750,0.019109569334377
751,0.0188236249002245
752,0.0190557352505404
753,0.0189247667939589
754,0.0185480968750163
755,0.0173406047731185
756,0.0161331126712207
757,0.014925620569323
758,0.0128407467221103
759,0.0109869933439733
760,0.0096808642806214
761,0.00946454082949334
762,0.0096031417365288
763,0.0103301519377019
764,0.0114421451173863
765,0.0125437032223161
766,0.0138682950586034
767,0.0150700189253183
768,0.0157944534795794
769,0.0163713159122428
770,0.0168268162497399
771,0.0169512747652243
772,0.0170488988799906
773,0.0172780607081547
774,0.0170482026716583
775,0.0170584600148771
776,0.0171091865751973
777,0.0168143670959339
778,0.0169469086626789
779,0.0166204356601582
780,0.016823347174907
