"wavelength","measurement"
380,0.0244747510993577
381,0.0236301394587361
382,0.0230435657452311
383,0.0235416856459477
384,0.0238516447942103
385,0.0243536819733623
386,0.0254075912350074
387,0.0274211413596327
388,0.0284298378691914
389,0.0293135295732993
390,0.0293024629310841
391,0.0294879093691826
392,0.0302967917520842
393,0.0305579752833103
394,0.0314867551370746
395,0.0333612069880828
396,0.0376114054304158
397,0.0421148074277236
398,0.0466182094250315
399,0.0511216114223393
400,0.0544437703196534
401,0.0581796452862333
402,0.061396950310189
403,0.0626189636666232
404,0.0645560305140213
405,0.0650671152755208
406,0.0672142505003028
407,0.0682193746469482
408,0.0697832690672965
409,0.0723865586802292
410,0.075763605081353
411,0.0777143464276327
412,0.0807108386558592
413,0.083198948447195
414,0.0834570650078498
415,0.0854119673464646
416,0.0853731270771989
417,0.085886261612143
418,0.0880915851569438
419,0.086406563585313
420,0.0899338283946341
421,0.0898027595299789
422,0.0911282255991259
423,0.0913766497493926
424,0.0932797880674021
425,0.0907521688765605
426,0.0908550063096388
427,0.0879655796343521
428,0.0860853825515427
429,0.0858828725222271
430,0.0862381933511879
431,0.0897321172059144
432,0.0925106978952337
433,0.0953148716956267
434,0.0999128549881565
435,0.101593075610254
436,0.10295258243966
437,0.104678950461426
438,0.106405318483192
439,0.108131686504958
440,0.108134706491302
441,0.109601116193389
442,0.112203646718094
443,0.11295715797084
444,0.11467953607016
445,0.11640191416948
446,0.1181242922688
447,0.119310441635225
448,0.119689282703137
449,0.124193559494343
450,0.123167481702509
451,0.12236029839592
452,0.121810261673664
453,0.121260224951409
454,0.120710188229154
455,0.121607621100735
456,0.120605511055167
457,0.12191343030126
458,0.122610213695009
459,0.124295280419683
460,0.1248146135296
461,0.123531724531119
462,0.126934864088766
463,0.123476085215597
464,0.122588086360275
465,0.121932611568096
466,0.120570526284774
467,0.120089482851688
468,0.119732651286421
469,0.118166801784583
470,0.121381723253257
471,0.121161504348832
472,0.122042669591016
473,0.123650665472431
474,0.124406236605622
475,0.126596586425543
476,0.123942392827571
477,0.12414245348826
478,0.12434251414895
479,0.12454257480964
480,0.124621835248977
481,0.121995861130164
482,0.119554566976967
483,0.119399813442036
484,0.116267625289073
485,0.113734598129997
486,0.114978142841898
487,0.115874506362921
488,0.116696111908618
489,0.119696076115628
490,0.120105789413521
491,0.121192313319892
492,0.124532521423861
493,0.123000375825796
494,0.124902199872772
495,0.123210753190789
496,0.123893064041682
497,0.121658017133275
498,0.122095689310083
499,0.119550193280133
500,0.119949506756863
501,0.118904511639901
502,0.12064025583141
503,0.121199808169952
504,0.11957355124811
505,0.123460414015365
506,0.123244121326272
507,0.123619861321099
508,0.124586429175047
509,0.124424910721054
510,0.122850259694625
511,0.12403146756435
512,0.123791159752696
513,0.119846450255545
514,0.119441088255767
515,0.117492011862111
516,0.116314135585113
517,0.116153965969849
518,0.115780373026184
519,0.118649937976736
520,0.119975007051109
521,0.121364350592449
522,0.122753694133788
523,0.124143037675128
524,0.123734149485179
525,0.123808689712885
526,0.124342923074476
527,0.123550360876133
528,0.124481412708763
529,0.126072402084558
530,0.126064064034152
531,0.126684605974523
532,0.126040579938103
533,0.127186763447516
534,0.12720618910723
535,0.125795467476705
536,0.127396374481676
537,0.12668536643944
538,0.125426311171338
539,0.124884813805458
540,0.125295351126597
541,0.124389639563573
542,0.12346347232678
543,0.12420210712308
544,0.125177294074161
545,0.124052309208604
546,0.125341396251685
547,0.125220960103821
548,0.125100523955956
549,0.124980087808091
550,0.124585147783395
551,0.125592511393922
552,0.126532265813895
553,0.125082297426076
554,0.124752422149195
555,0.126367090769295
556,0.124561330684089
557,0.123846746971088
558,0.123276108599043
559,0.121926425412079
560,0.123074718471829
561,0.121166512310412
562,0.123284355758676
563,0.12130828859694
564,0.121741776130483
565,0.119944354046432
566,0.119168130736848
567,0.117545417660053
568,0.118499827271426
569,0.116726256023051
570,0.116601116402373
571,0.116704945035875
572,0.116815593732762
573,0.116787336938858
574,0.117289827777427
575,0.115879101353665
576,0.11642838620828
577,0.116977671062894
578,0.117526955917508
579,0.118076240772123
580,0.118625525626737
581,0.120513377935963
582,0.11974153798451
583,0.120477881673293
584,0.118395831484769
585,0.117901691721501
586,0.114352914270636
587,0.112059355269707
588,0.110570146454652
589,0.109080937639597
590,0.107591728824542
591,0.108172840191651
592,0.109569695418777
593,0.109967314903046
594,0.111783626402586
595,0.111902128926385
596,0.113460439352201
597,0.114094091438456
598,0.114844087053515
599,0.115817631501932
600,0.117232414107556
601,0.117647894954635
602,0.118577770465001
603,0.118441075542648
604,0.120295442595917
605,0.119336293464094
606,0.120024388183009
607,0.119425725310725
608,0.118140467161067
609,0.118240156015058
610,0.117131197120613
611,0.117044463598517
612,0.115856156730902
613,0.115600110457527
614,0.114530605374159
615,0.116553913702762
616,0.114710997972066
617,0.115414781521158
618,0.115627363790965
619,0.11608063114567
620,0.115835519346608
621,0.116552428172099
622,0.114414600510189
623,0.114442203965646
624,0.113674052003813
625,0.11290590004198
626,0.112137748080147
627,0.111951485583121
628,0.11182416587349
629,0.111479621470852
630,0.112540658521534
631,0.110950798296545
632,0.111824637077359
633,0.112880031953458
634,0.113448793667141
635,0.113885255327517
636,0.113230007998214
637,0.114167854897722
638,0.113907551228162
639,0.114548194744514
640,0.114079151813957
641,0.113293195015913
642,0.112847320295249
643,0.111850983790105
644,0.110854647284962
645,0.109858310779818
646,0.109867408584537
647,0.109726209335021
648,0.107327039844478
649,0.109079172304267
650,0.108326533400097
651,0.109777844765853
652,0.108746465403072
653,0.107113185764329
654,0.105331430977783
655,0.106541971336256
656,0.105438536557585
657,0.106973259203567
658,0.108379572648179
659,0.111455238427075
660,0.112806388559677
661,0.113655659276292
662,0.114256258884749
663,0.113946024456821
664,0.113463078601567
665,0.114148862600925
666,0.114117614109234
667,0.114751016114471
668,0.114672687323332
669,0.1129781281293
670,0.113687654354511
671,0.113404254053146
672,0.113180223684156
673,0.113288466569714
674,0.113487745366414
675,0.113966912722653
676,0.11343241518986
677,0.114545889318471
678,0.113073079365022
679,0.113333480525427
680,0.115983775726112
681,0.113241653600168
682,0.111336918222937
683,0.109246590340408
684,0.105638513069872
685,0.10248531116083
686,0.10049572397989
687,0.0978810276544429
688,0.0971805941961992
689,0.0975685672171783
690,0.0985038767518921
691,0.100407125484694
692,0.100551119842205
693,0.101936880186151
694,0.104001729822563
695,0.104262113826095
696,0.106601170908761
697,0.107494513221179
698,0.106958227613097
699,0.107785760174734
700,0.109804926313253
701,0.110028468317186
702,0.112920245308781
703,0.114041168836391
704,0.116813657791207
705,0.117853354528415
706,0.1208859393546
707,0.123494845075897
708,0.124357769419867
709,0.127353824366137
710,0.126881868836661
711,0.127514361646516
712,0.128328045718711
713,0.123479364427161
714,0.120098713969037
715,0.113278840292738
716,0.106937495967422
717,0.103272059385208
718,0.102753278843062
719,0.103574114955961
720,0.106536150709244
721,0.106420159207148
722,0.110012506491833
723,0.109893328864652
724,0.10981011882352
725,0.110968733609395
726,0.1109874079088
727,0.113891646005138
728,0.116417568864844
729,0.120928700618293
730,0.125851779532507
731,0.131586360472624
732,0.137443739663249
733,0.14329808203774
734,0.148271541703606
735,0.150869154302217
736,0.155066298937719
737,0.157769770363713
738,0.160473241789708
739,0.163176713215703
740,0.167968847803611
741,0.169942078608087
742,0.172278476076211
743,0.174614873544336
744,0.17695127101246
745,0.178513268409642
746,0.179207000462313
747,0.181055967240212
748,0.180248185820068
749,0.181109090332357
750,0.18192993429291
751,0.181310547158073
752,0.184392924963309
753,0.183537230320733
754,0.181975313137146
755,0.170165583425506
756,0.158355853713867
757,0.146546124002227
758,0.127691974904755
759,0.109929766117673
760,0.098201285989639
761,0.0952852350705052
762,0.0986447319280395
763,0.107059381044203
764,0.118551506103188
765,0.13054544036639
766,0.14464711880371
767,0.158820797776523
768,0.166667945364147
769,0.173164393110655
770,0.178053758439503
771,0.181007612476312
772,0.182818171708984
773,0.185665362799036
774,0.184913388484893
775,0.185671275518815
776,0.185990762480426
777,0.184471688772405
778,0.187035464585955
779,0.184979947226587
780,0.187363147037656
