"wavelength","measurement"
380,0.0124304204420602
381,0.0119211174026509
382,0.0118266614465584
383,0.0113191622329408
384,0.0115370246426157
385,0.0121947194434099
386,0.0128048381894439
387,0.0131990052797692
388,0.0138752024012199
389,0.0141739569023826
390,0.0143214615786003
391,0.0139880808884885
392,0.0141162972366279
393,0.0142031117528183
394,0.0145073743985892
395,0.0153797738334329
396,0.017207844876655
397,0.0189601028917008
398,0.0207123609067466
399,0.0224646189217924
400,0.0235881196953363
401,0.0248406942397283
402,0.0259978241058006
403,0.0261376554230171
404,0.0264383671967139
405,0.0264821330872212
406,0.0266895963258133
407,0.0267477061276057
408,0.0271654571267925
409,0.0276755423353246
410,0.028761377289377
411,0.0290862176939493
412,0.0295912626460434
413,0.0302530301299794
414,0.0302494734292957
415,0.0305239096887308
416,0.0304399908548169
417,0.030268938147074
418,0.0304562164776922
419,0.030046247620284
420,0.0308330814206089
421,0.0307466531648664
422,0.0310255948322598
423,0.0312773841734752
424,0.0315776094415227
425,0.0308023057802631
426,0.0306837699316341
427,0.0298083088752077
428,0.028817754282322
429,0.0288961122585686
430,0.028776859691706
431,0.030083865670495
432,0.0312327696006685
433,0.032189214282398
434,0.0336098334189965
435,0.0342587737262001
436,0.0346464777988991
437,0.0352359319979189
438,0.0358253861969386
439,0.0364148403959583
440,0.0366697769531466
441,0.0372421852003137
442,0.0379761306650878
443,0.0385736558450289
444,0.039167741982872
445,0.039761828120715
446,0.040355914258558
447,0.0410042490872515
448,0.0412769584461596
449,0.0427974496034393
450,0.0424490148795495
451,0.0423106433926248
452,0.042269331730114
453,0.0422280200676033
454,0.0421867084050925
455,0.0422385456419707
456,0.0423845502981455
457,0.042695713382689
458,0.0430951845742976
459,0.043489741046845
460,0.0438069446945393
461,0.0434390849079392
462,0.0445862646805789
463,0.0433568933985882
464,0.0430316633701419
465,0.0428370157243314
466,0.0422021014138229
467,0.0422300700024447
468,0.0418635384456483
469,0.0416756937319927
470,0.0424003756886558
471,0.0423655529490226
472,0.0427668343254609
473,0.0433559579643999
474,0.0433608545712976
475,0.04420306580667
476,0.0432294263593492
477,0.0433270306014721
478,0.0434246348435951
479,0.043522239085718
480,0.0434617908035259
481,0.0424118903074102
482,0.0417762700356278
483,0.0415314972019485
484,0.040573977530389
485,0.0396423719179182
486,0.0400952709891167
487,0.0403322174560998
488,0.0408487669985199
489,0.0419492182568375
490,0.0423679895677837
491,0.0427806490585423
492,0.0437522435365059
493,0.0435232910697068
494,0.0441677089443779
495,0.0435856107056026
496,0.04386431057481
497,0.0432500371238239
498,0.0435035574256147
499,0.0426309340957666
500,0.0428561834318528
501,0.0425599248970207
502,0.0431853172518079
503,0.0435291376846797
504,0.0431907726995836
505,0.0446853338125678
506,0.0446031174736111
507,0.0449220407737654
508,0.0452852000333038
509,0.0453834894877228
510,0.0447659455277719
511,0.0455605108800446
512,0.0453908745325351
513,0.0442311165235608
514,0.0440510510069105
515,0.0433294706132194
516,0.0432346787650297
517,0.0432918094723431
518,0.0432261649932522
519,0.0442904188471721
520,0.0451547708886051
521,0.0458271326609841
522,0.0464994944333631
523,0.047171856205742
524,0.0470680385771601
525,0.0473432076300614
526,0.0476933265298992
527,0.0477104642415356
528,0.0479578411823212
529,0.0488593677353985
530,0.0488798697286241
531,0.0491506477836632
532,0.0491601868377723
533,0.0498680763126371
534,0.0501039345718658
535,0.0496943659884518
536,0.0502640870377591
537,0.0500253775829364
538,0.0497295213465714
539,0.0496454255840684
540,0.04990435356723
541,0.04967187480924
542,0.0495029553720687
543,0.0498582331853919
544,0.0502117568857817
545,0.0500277686420693
546,0.050662883213361
547,0.0507477828842006
548,0.0508326825550402
549,0.0509175822258797
550,0.0505603146205123
551,0.0510719125698282
552,0.051621712728445
553,0.0512658559779635
554,0.0511369364784259
555,0.0518353340818496
556,0.0512333776163992
557,0.0509550136716576
558,0.0509286124135014
559,0.0504823973661916
560,0.0512153094992595
561,0.0503450489452
562,0.0512593881266348
563,0.0505855547363058
564,0.0508654238976924
565,0.0501653278545575
566,0.049979695634706
567,0.0494365981203003
568,0.0497189073864666
569,0.0491050487679569
570,0.0491222381342583
571,0.0492683981945852
572,0.0492423605803206
573,0.049185159099681
574,0.0496133660163165
575,0.0489990091739057
576,0.0492053875218619
577,0.0494117658698182
578,0.0496181442177744
579,0.0498245225657307
580,0.0500309009136869
581,0.0506472203495058
582,0.0503348192406656
583,0.0506712520149683
584,0.0498184087367314
585,0.0493910103630145
586,0.0478613443169131
587,0.0468775948931111
588,0.0462652797855007
589,0.0456529646778903
590,0.0450406495702799
591,0.0453294936060012
592,0.0458445060376185
593,0.046003836293671
594,0.0465698007018529
595,0.0467918855457481
596,0.0472289663753045
597,0.0475711209405672
598,0.0478292838330913
599,0.0481309366573221
600,0.0487001578702098
601,0.0489709280363978
602,0.0493685101399428
603,0.0491380596390924
604,0.0497981846551753
605,0.0495473239769874
606,0.0496882863092827
607,0.0494355227482351
608,0.049014458885459
609,0.0490387323835746
610,0.0486667741144949
611,0.0483585089559365
612,0.0480260146237611
613,0.0478372059577016
614,0.0472449975719931
615,0.0480633584175326
616,0.0473878906729271
617,0.0477938614455557
618,0.0477457602310087
619,0.0479646242685177
620,0.0477827370966613
621,0.0481727759544249
622,0.0472666888863841
623,0.0472685618307781
624,0.0469468164191789
625,0.0466250710075797
626,0.0463033255959804
627,0.0462913413017455
628,0.0461367548716804
629,0.046023804900937
630,0.0464115884304378
631,0.0457792401376769
632,0.0462701697802542
633,0.0464996829221963
634,0.046618117818717
635,0.0469267607273095
636,0.0465446203856291
637,0.0470846744176916
638,0.046849957879763
639,0.0470824123529959
640,0.0469057115166085
641,0.0466939438887691
642,0.0463301536618463
643,0.0459370845676466
644,0.0455440154734469
645,0.0451509463792472
646,0.0449520327128847
647,0.0449628652288916
648,0.0440471691942273
649,0.0448461156939668
650,0.0445398113889534
651,0.0449826083156973
652,0.0444576915688337
653,0.0438758411317048
654,0.0431576088635231
655,0.0437615535475272
656,0.0432598194790217
657,0.0438613044466094
658,0.0444399705708077
659,0.0456945694368678
660,0.0461259815618294
661,0.0464165653473612
662,0.0467507014289746
663,0.046576596640084
664,0.0462653220860881
665,0.0463374075205401
666,0.0465801566079509
667,0.046771488731161
668,0.0468855692596033
669,0.0459569874142044
670,0.0463061452100713
671,0.0464049901379931
672,0.0460879835230152
673,0.0463385788531909
674,0.0463674162513219
675,0.0463074930584663
676,0.0463439600777275
677,0.0466575857375483
678,0.0461235252697636
679,0.0459972317732767
680,0.0472672079122265
681,0.0464811527375674
682,0.0454885414921244
683,0.044693864316002
684,0.0431477878601745
685,0.041838929714807
686,0.0410061596004365
687,0.0400248482259922
688,0.0396593996196375
689,0.0399228937096961
690,0.0402026872156385
691,0.0410265225677093
692,0.0413088319641029
693,0.0417435356769612
694,0.0425174455517483
695,0.0427171378099042
696,0.0436544086444741
697,0.04417244801149
698,0.043797261989743
699,0.0441001602413814
700,0.0450852718611594
701,0.0450971235527026
702,0.0463103353524104
703,0.0466671699736853
704,0.0479670575479029
705,0.048495986558769
706,0.0495369548640925
707,0.0506293426013759
708,0.0510855277391655
709,0.0520594419095355
710,0.0521011266016631
711,0.0525399345335843
712,0.05267241628113
713,0.0506310724257866
714,0.0495136185896064
715,0.0466053042594614
716,0.0443697666002573
717,0.0425344040140661
718,0.0425025203798999
719,0.0430405317945711
720,0.0441615883086572
721,0.0442269403660975
722,0.0459412144345715
723,0.0460694121310174
724,0.0461025088396963
725,0.0466426649932234
726,0.0468771921918367
727,0.0481535873454057
728,0.0494583824039949
729,0.0514934145338917
730,0.0535298137181247
731,0.0562575402750252
732,0.0590581478712758
733,0.0616362776506905
734,0.0638912773047175
735,0.0651890330677995
736,0.0671116885849052
737,0.0683576847696549
738,0.0696036809544047
739,0.0708496771391544
740,0.0730845801461878
741,0.0742236168132405
742,0.0753787872917428
743,0.0765339577702452
744,0.0776891282487475
745,0.0786178800687259
746,0.0788639998478622
747,0.0797202579270263
748,0.079102539050866
749,0.0799246665872248
750,0.080223240585336
751,0.0800406687507901
752,0.0812854646001393
753,0.0813065401596847
754,0.0802592593673667
755,0.0751134479465766
756,0.0699676365257865
757,0.0648218251049964
758,0.0561710260990403
759,0.0486394254214976
760,0.0432727306055935
761,0.0421145992499576
762,0.0437453834545127
763,0.0472422349465671
764,0.052585202382912
765,0.05753136183802
766,0.0640272373757984
767,0.0701602151492595
768,0.0738033588462853
769,0.0765275295886588
770,0.0786346610046351
771,0.0799267220802223
772,0.0809638063809985
773,0.0820936250832038
774,0.0816842408423798
775,0.0820866402796567
776,0.0824449360022726
777,0.0814532107511302
778,0.0828315440582646
779,0.0818644527829284
780,0.0829408236102408
