"wavelength","measurement"
380,0.0162313618379666
381,0.0157341875144707
382,0.015272383699598
383,0.0147995770252476
384,0.0151115985301877
385,0.0160202065464486
386,0.0165447023388734
387,0.0175449309943747
388,0.0181663542910593
389,0.0188701789898629
390,0.0185438237089464
391,0.0187265567639022
392,0.0187006242323201
393,0.0189586180530522
394,0.0195861937706438
395,0.020227967880658
396,0.0224585964112838
397,0.024856175578954
398,0.0272537547466242
399,0.0296513339142944
400,0.0309949889349186
401,0.0325506629691578
402,0.0338730698551477
403,0.0341820971039946
404,0.0344588586169921
405,0.0346893701986949
406,0.0354420137022605
407,0.0359664620319561
408,0.0365272743155361
409,0.0373457695101458
410,0.0394007930656352
411,0.0401207809257111
412,0.0414002221752832
413,0.0426535943030992
414,0.0434458052892366
415,0.0447686308815317
416,0.0451950391101253
417,0.0455114567104936
418,0.0468606505025304
419,0.0466399219780202
420,0.0486939416865321
421,0.0490974858240122
422,0.0500796576895917
423,0.0508230746174959
424,0.0520046007106248
425,0.0511605533505618
426,0.051135039303273
427,0.0501533565975759
428,0.0491849695113609
429,0.0493007526545087
430,0.0496656991399
431,0.0519353150706552
432,0.0536981991478334
433,0.0554969318027939
434,0.0580135914975213
435,0.0593034347357385
436,0.0601756326809834
437,0.0611758319140154
438,0.0621760311470474
439,0.0631762303800795
440,0.0634273996532769
441,0.0644296614571319
442,0.0660459024875259
443,0.0663961736942111
444,0.0673187985824228
445,0.0682414234706345
446,0.0691640483588463
447,0.0700258547121531
448,0.0699911189200188
449,0.0724952535384489
450,0.0717579854202251
451,0.0710248403158109
452,0.0707418007401579
453,0.0704587611645049
454,0.0701757215888519
455,0.0697554739926429
456,0.069770521908831
457,0.0704049051492987
458,0.0705563398486166
459,0.0714536487530044
460,0.0713278814037826
461,0.0707146608968768
462,0.0726113955289371
463,0.0705316084613988
464,0.0698340781835226
465,0.0692496656938705
466,0.0685603705702664
467,0.0682700033492842
468,0.0675463378423763
469,0.0669381820544954
470,0.0681456813178531
471,0.0681891707564242
472,0.068173266735379
473,0.068954673199272
474,0.0692089553494729
475,0.0700855324607814
476,0.0684799987487306
477,0.0683991175257801
478,0.0683182363028296
479,0.0682373550798791
480,0.0680726832952328
481,0.0661689816573397
482,0.0650534672972705
483,0.064705778872322
484,0.0629874561103334
485,0.0616747887366597
486,0.0619326308401846
487,0.0623531246114163
488,0.0629630563967169
489,0.0644449895053276
490,0.0646819698327725
491,0.0654631623542618
492,0.0670070457450363
493,0.0662143905800992
494,0.0671774699702758
495,0.0663357772294277
496,0.0666501912334853
497,0.0654850624458815
498,0.0658894914528843
499,0.0643592378121297
500,0.0648175622675836
501,0.0641862860070483
502,0.0652611384018672
503,0.0655493909133951
504,0.0649272753850529
505,0.0669308982074645
506,0.066771568872512
507,0.0670915117962341
508,0.067587493328884
509,0.067660930589553
510,0.0666160305893912
511,0.0675962329510498
512,0.0672928996567974
513,0.0654334210399995
514,0.0651824209833271
515,0.0641407253888257
516,0.0638392868040226
517,0.0635967195942476
518,0.0635404154894326
519,0.064815431232343
520,0.0660801021157799
521,0.066821806876503
522,0.0675635116372261
523,0.0683052163979491
524,0.0680775694342674
525,0.0681815024906135
526,0.0685734240165696
527,0.0683113143260332
528,0.0686967596513771
529,0.0696164314258513
530,0.0695620934032233
531,0.0698660247667589
532,0.0697776077453729
533,0.0703751751475001
534,0.0705093276277052
535,0.0697534157658625
536,0.0703026345579623
537,0.0699289446448805
538,0.0696060365368799
539,0.0691251732036554
540,0.0694791685342084
541,0.0689417882663348
542,0.0685353928191933
543,0.0688693236518879
544,0.0693549391865474
545,0.0687444975658685
546,0.0695164578978397
547,0.0695072072006018
548,0.0694979565033639
549,0.069488705806126
550,0.0689002741798987
551,0.0693555016946922
552,0.0700815556102628
553,0.0694790472608528
554,0.0692761721005052
555,0.0699375069168638
556,0.0690992384926857
557,0.0689649392944378
558,0.0686038573610847
559,0.0679232264060926
560,0.0687604418750228
561,0.0676352902337328
562,0.0688313598101063
563,0.0677333569294289
564,0.0680826372962204
565,0.0671581369870498
566,0.0667771525872438
567,0.0656461464865421
568,0.0661710651213002
569,0.0653666826544735
570,0.0654397780943917
571,0.0655405747720812
572,0.0655468066854683
573,0.0655148892776034
574,0.065881176957046
575,0.0650950137988757
576,0.06536930400506
577,0.0656435942112443
578,0.0659178844174285
579,0.0661921746236128
580,0.0664664648297971
581,0.0674230723165254
582,0.0670219469689854
583,0.0673208506330652
584,0.0664026602586072
585,0.06598346071191
586,0.0641264043121794
587,0.0629201010592503
588,0.0621279274329419
589,0.0613357538066335
590,0.0605435801803251
591,0.0609162675327658
592,0.0617326533472791
593,0.0618798039395636
594,0.0628392509278233
595,0.0631740868341524
596,0.0638374009766688
597,0.0643325962510236
598,0.0646718874584092
599,0.0650911577996215
600,0.0656697924221479
601,0.066318877647085
602,0.0669602131720658
603,0.0666298524438853
604,0.0675830706770585
605,0.0672467275987074
606,0.0673622993172415
607,0.0671497016065336
608,0.0663801645104991
609,0.0664279516829272
610,0.0660569252121912
611,0.065827353750913
612,0.06531928978306
613,0.0651897326927266
614,0.0643969053001937
615,0.0654391950991912
616,0.0646251359785286
617,0.0650972897768796
618,0.0650665525958584
619,0.0654294850846602
620,0.0651975759798343
621,0.0655906709977948
622,0.0645780927027952
623,0.0643235835497213
624,0.0639164393309837
625,0.0635092951122462
626,0.0631021508935087
627,0.0630833364989081
628,0.0628796467487827
629,0.0627734624202246
630,0.0631382023334689
631,0.0626337001816789
632,0.0630542900848391
633,0.0635180739533243
634,0.0635522756113066
635,0.0638632918729083
636,0.0634107427339464
637,0.0640982569962351
638,0.0636886100366136
639,0.0641550426904945
640,0.0637357485960118
641,0.0635006659954717
642,0.0631959267749781
643,0.0626041932855941
644,0.0620124597962102
645,0.0614207263068262
646,0.0614795425805878
647,0.0613635960099838
648,0.0601997959450174
649,0.0611315521382942
650,0.0606152027465174
651,0.061269117496916
652,0.0605355126486683
653,0.0597231987923745
654,0.0586952487026956
655,0.059478579054645
656,0.0587429910451367
657,0.0596243222684154
658,0.0603109533568283
659,0.062020759079725
660,0.0626429505809114
661,0.0630700218092972
662,0.0634855239475059
663,0.063295684043907
664,0.0628925381880242
665,0.0631616363245308
666,0.0634595824403345
667,0.0636525716838434
668,0.0636232175720156
669,0.062617538162827
670,0.0628402442563677
671,0.0629443872352061
672,0.0626338025271104
673,0.0629347881995417
674,0.0629517123652143
675,0.0630680641476046
676,0.0629356440578937
677,0.0636076321790944
678,0.0627856888324654
679,0.0630070187399551
680,0.0641768353678764
681,0.0633311164132291
682,0.0618155487069737
683,0.0608001717742682
684,0.0588478929774275
685,0.0571846267457029
686,0.0558896858775097
687,0.0547334127473983
688,0.0543748688819011
689,0.0544257591791961
690,0.0553975678922285
691,0.0562720187107831
692,0.0564500275107236
693,0.057116414021108
694,0.0580565562867909
695,0.0583197308412442
696,0.0598545874767957
697,0.0603432352584538
698,0.0598366545839957
699,0.0602040536876986
700,0.0615230479465765
701,0.0616123775490335
702,0.0629562982155895
703,0.0637810013817321
704,0.0652374765724542
705,0.0657756456736218
706,0.0672147048460886
707,0.0686407140774777
708,0.0693424430662044
709,0.070823837502297
710,0.0706175500117315
711,0.0708595583303434
712,0.0714285980779065
713,0.0684440409095722
714,0.0667324236801595
715,0.0630794015646528
716,0.0598684026400642
717,0.0574769609931443
718,0.0572316827308974
719,0.057855167794389
720,0.0591905252478651
721,0.0590822619332419
722,0.0613248501712258
723,0.0610497658885697
724,0.0611600290370886
725,0.0617793260254344
726,0.0618052108442516
727,0.0632692634368695
728,0.0648025770695826
729,0.0672540846634328
730,0.0698011573890722
731,0.0731269226410892
732,0.0762554949768038
733,0.0795275901123185
734,0.0821636465217463
735,0.0834372623937724
736,0.0853376766448783
737,0.086849680901592
738,0.0883616851583056
739,0.0898736894150192
740,0.0923966948414903
741,0.0933415721054739
742,0.094704395088497
743,0.0960672180715201
744,0.0974300410545431
745,0.0980247800522576
746,0.0984178454062877
747,0.099037339453462
748,0.0983645190970336
749,0.0993538388689436
750,0.0996929613105574
751,0.0991846674823657
752,0.100797958853942
753,0.100257821980527
754,0.0992447230934816
755,0.0927553908120878
756,0.0862660585306939
757,0.0797767262493
758,0.0694946727431975
759,0.0599030578331699
760,0.0534825643774207
761,0.0520263158588233
762,0.0539719852933622
763,0.0581555318693919
764,0.0648019809045836
765,0.0709858528192155
766,0.0788667124775424
767,0.0862974314966246
768,0.0906275066949264
769,0.0939989423569924
770,0.0965960923530027
771,0.0980436456772118
772,0.0992638929057584
773,0.100799919439016
774,0.10034396728318
775,0.100709023573356
776,0.100947112585071
777,0.100179580380537
778,0.101306739890889
779,0.100310667595862
780,0.101757522507596
