"wavelength","measurement"
380,0.00419704180352082
381,0.00430496245060703
382,0.00427580094620655
383,0.00404097374217337
384,0.00447466476753545
385,0.00475024942688532
386,0.00490052062581365
387,0.00546916956677038
388,0.00568758073908373
389,0.00588001256067768
390,0.00599126060314988
391,0.00616927725063153
392,0.00643558245904698
393,0.00672340435675596
394,0.00679718311161675
395,0.00727198711180846
396,0.00799934482261505
397,0.00914215788733309
398,0.0102849709520511
399,0.0114277840167692
400,0.0120602962580718
401,0.0129826872599917
402,0.0138271151978774
403,0.0141893854737264
404,0.0144793235759121
405,0.0147209781393923
406,0.015251612025793
407,0.015695728361735
408,0.0160479524976218
409,0.0165261136977898
410,0.0174193146460113
411,0.0177924921618701
412,0.0184252952193273
413,0.0190544583788151
414,0.0194330142780753
415,0.0196891917177669
416,0.0197988709440544
417,0.0198971184559175
418,0.0202738253597343
419,0.0198872925469515
420,0.0205772264265833
421,0.0206241099766238
422,0.0209368834980806
423,0.0214102353107034
424,0.0215805586629007
425,0.0212647172340261
426,0.021241178280639
427,0.0207738881358038
428,0.0200598628417309
429,0.0202356000432265
430,0.0202931972766297
431,0.0216359057299372
432,0.0224525220255317
433,0.023792855400808
434,0.0249789124089415
435,0.0257258966703128
436,0.025954155711146
437,0.0261866879132503
438,0.0264192201153546
439,0.0266517523174589
440,0.0268467727647636
441,0.0272817414921935
442,0.0282422559418022
443,0.0285260262519918
444,0.0291627441592604
445,0.029799462066529
446,0.0304361799737976
447,0.0309524125028998
448,0.0313549836210755
449,0.032650550618831
450,0.0326219584512556
451,0.0326203734906794
452,0.0326915820644916
453,0.0327627906383037
454,0.0328339992121158
455,0.0328200130020969
456,0.0330489581005459
457,0.0336119585313971
458,0.0338562449587641
459,0.0345106442882294
460,0.0345601816732347
461,0.0344326919267185
462,0.0354600733761233
463,0.034664151646241
464,0.0344136145870541
465,0.034408711683299
466,0.0340203172589327
467,0.0340130188308814
468,0.0338671302978588
469,0.033644551243265
470,0.0346362867725673
471,0.0344009235662557
472,0.034895548436172
473,0.0353320100175223
474,0.0356080820419415
475,0.0361659900638012
476,0.0353790345421385
477,0.0355852515478473
478,0.035791468553556
479,0.0359976855592647
480,0.036081741761248
481,0.0354374826113715
482,0.0350358124250873
483,0.0349221586622337
484,0.0342786728569708
485,0.0337917332551369
486,0.0342417921275578
487,0.034529752681595
488,0.0350620408913702
489,0.0359018202749946
490,0.0361199918368597
491,0.0366043673834528
492,0.0374558544546582
493,0.0370724612527002
494,0.0377361491723968
495,0.0372736621541057
496,0.0375195388618407
497,0.0370039778572567
498,0.0371606075898038
499,0.0363538342191101
500,0.0364961201548635
501,0.036209104746031
502,0.0367988835656855
503,0.0370109796660202
504,0.0366767899551684
505,0.0380645783386033
506,0.0378086178829701
507,0.0381286588961539
508,0.0383520944605619
509,0.0385668405477214
510,0.038027604154073
511,0.0387188155267288
512,0.0384563649660276
513,0.0374803771436035
514,0.0372122333114345
515,0.0366219285671303
516,0.0363812767787324
517,0.0363462009787047
518,0.0363644972415037
519,0.0369890951141868
520,0.037828349594189
521,0.0382543337315605
522,0.038680317868932
523,0.0391063020063035
524,0.0390194476803482
525,0.0390011754309603
526,0.0391664711624635
527,0.0389598066962089
528,0.0392913733808367
529,0.039877494860467
530,0.0399020537348464
531,0.0399720968274544
532,0.0399472635233784
533,0.0404193230521869
534,0.0404921315196459
535,0.0403536113956687
536,0.0408983952450278
537,0.0410857914872157
538,0.0411411067279376
539,0.0412674261328675
540,0.0418463806413574
541,0.0419048813798376
542,0.0419303011173944
543,0.0424774545674984
544,0.0429760384229065
545,0.0427820002310582
546,0.04307707589951
547,0.0426138881920486
548,0.0421507004845871
549,0.0416875127771256
550,0.0409506425738638
551,0.0408406307538526
552,0.0409315149791853
553,0.0404288152642532
554,0.0400983467306142
555,0.0405225401686729
556,0.0398686766668499
557,0.0396611210028156
558,0.0394409225027145
559,0.0391275478376107
560,0.0395492363961915
561,0.0388387406683475
562,0.0395067697899015
563,0.0389953349673144
564,0.0393234036140008
565,0.0386866493673698
566,0.0384237354817606
567,0.0379203699321387
568,0.0381691555315599
569,0.037728950811517
570,0.0378212553379426
571,0.037744266055018
572,0.0378230294654046
573,0.0377834393625965
574,0.0380823227327207
575,0.0376848705149087
576,0.03791069948403
577,0.0381365284531513
578,0.0383623574222726
579,0.0385881863913939
580,0.0388140153605152
581,0.0393243784389405
582,0.0392629670979992
583,0.0394580160884631
584,0.0387295548911378
585,0.0387248021020247
586,0.0374466148174791
587,0.0368769302938071
588,0.0363127784607754
589,0.0357486266277438
590,0.0351844747947121
591,0.0353059322014141
592,0.0355573998649704
593,0.0355511717556854
594,0.036104359383621
595,0.035979367383406
596,0.0363449407474619
597,0.03649962063174
598,0.0366857441531658
599,0.0368676818734517
600,0.0372697805877443
601,0.0374061321962788
602,0.0376011710866703
603,0.0374540072464591
604,0.0379029943662275
605,0.0377169899960387
606,0.0381122115444886
607,0.0385967586093349
608,0.0388236928332744
609,0.0396156836423246
610,0.0398662922519976
611,0.0400037438876254
612,0.0395226662347588
613,0.0387436284156307
614,0.0377126162629447
615,0.0375656660343256
616,0.0366640779979103
617,0.0365903619810357
618,0.0363487141980839
619,0.0363235165963606
620,0.0361222263771577
621,0.0362842186916951
622,0.0354817218200111
623,0.0353770707623145
624,0.0350768662035104
625,0.0347766616447064
626,0.0344764570859023
627,0.0343838782703457
628,0.0342438162298449
629,0.0340478208112471
630,0.0343199617595099
631,0.0337480585985053
632,0.0337903754048478
633,0.033876502639955
634,0.0338523160472408
635,0.0339403770039293
636,0.0335061989343484
637,0.033880105912337
638,0.0335894085217442
639,0.0336229650412118
640,0.033444959860939
641,0.0332772676012183
642,0.0329820098236242
643,0.0325945719049837
644,0.0322071339863432
645,0.0318196960677028
646,0.0318166936479959
647,0.0316874738912074
648,0.0309229256879485
649,0.0314041067587527
650,0.0310786212136459
651,0.0313254732783538
652,0.0309985016744497
653,0.0304425387371725
654,0.029751032722682
655,0.0301162997023352
656,0.0297083152081829
657,0.030007661517339
658,0.0302785065121509
659,0.0311221556119572
660,0.0312655375116386
661,0.0315681893675751
662,0.0316576118920744
663,0.0314024463708246
664,0.0312399405077344
665,0.0311608005501797
666,0.0312824516375875
667,0.0311379488655688
668,0.03112760885909
669,0.0304102045559774
670,0.0305711330743251
671,0.0304533496311032
672,0.0301413011213031
673,0.0302831975974263
674,0.0301590222022685
675,0.0301621077966802
676,0.0300300852682364
677,0.0301293483058559
678,0.0297259338873788
679,0.0297524836806454
680,0.0301353156773687
681,0.0295449832325626
682,0.0288046174446901
683,0.028198441307536
684,0.0272020954477537
685,0.0261988577782726
686,0.0255640015726036
687,0.0249524999603628
688,0.0243986638550247
689,0.0245174538692904
690,0.0246547501400863
691,0.0249699154840772
692,0.0247689339079069
693,0.0249801807651285
694,0.0253050909920488
695,0.0252706180303188
696,0.025696269078436
697,0.0256926425295219
698,0.0253205936141053
699,0.0252273329819016
700,0.025603091878501
701,0.0253258706723379
702,0.0255530240905735
703,0.025740439694006
704,0.0261909998278487
705,0.026525551616718
706,0.0267188273596464
707,0.0271247710364466
708,0.0272364152143276
709,0.0275068141196015
710,0.0271809856531115
711,0.0269126870266279
712,0.0268485520032486
713,0.0253896281368287
714,0.0244498411844134
715,0.0227644234662461
716,0.0214261479775895
717,0.0202305210057343
718,0.0197308882818944
719,0.0196798192367979
720,0.0200350850961057
721,0.019644191070275
722,0.0202672220026234
723,0.0199628651380694
724,0.0198890980705051
725,0.0198615438854377
726,0.0196481790249408
727,0.0196942042920555
728,0.01998467859805
729,0.0206023831690428
730,0.0211273362940093
731,0.0217055373090341
732,0.0226875219912366
733,0.0234032047786467
734,0.0240838871295233
735,0.0239064028634972
736,0.0244833903264514
737,0.0246650992657978
738,0.0248468082051443
739,0.0250285171444907
740,0.0253396798148149
741,0.0256127810856297
742,0.0257404422667331
743,0.0258681034478364
744,0.0259957646289398
745,0.0260643773691634
746,0.0259216654362967
747,0.0259488586846434
748,0.0254335811455339
749,0.0257225504455933
750,0.0255832772465526
751,0.0252473347089886
752,0.0255281528598607
753,0.0251078472449186
754,0.0247974320630942
755,0.0230911821338531
756,0.0213849322046121
757,0.0196786822753711
758,0.0170623918520184
759,0.0147773288657778
760,0.0128916551325679
761,0.0125265210565166
762,0.0127727645156608
763,0.0137821001843708
764,0.0152029617561802
765,0.0167021382975178
766,0.0183899380186739
767,0.0196241878314428
768,0.0208862723744381
769,0.021630124093627
770,0.022096887676042
771,0.0223054933276259
772,0.0225585574026546
773,0.0227863238049337
774,0.0225899452830642
775,0.0227014662829973
776,0.0223767189614201
777,0.0223164431496428
778,0.0224306376817926
779,0.0221054229201974
780,0.0221929336180677
