"wavelength","measurement"
380,0.00148005452036647
381,0.00145469056426887
382,0.00169611062562937
383,0.00162549453508085
384,0.00170713850857023
385,0.00184485165641203
386,0.00181792176511222
387,0.0020494613340751
388,0.00228031347055022
389,0.00231453210934768
390,0.00236904637718537
391,0.00244758761584529
392,0.002610976283585
393,0.0027016865232647
394,0.00283607456283544
395,0.00309282271717479
396,0.00358328185344884
397,0.00405739981243482
398,0.00453151777142081
399,0.00500563573040679
400,0.00549979107724322
401,0.00598604398741451
402,0.00653915582370421
403,0.00667466609641739
404,0.00708091584652537
405,0.00737107671426989
406,0.00763465185064502
407,0.00792011223828384
408,0.00823063989235427
409,0.00871189604749335
410,0.00930130328990074
411,0.00955536054787159
412,0.0100507619114783
413,0.0105094029912152
414,0.0107462019047064
415,0.0110765652371955
416,0.0111798142654063
417,0.0112317380254036
418,0.0115041535900237
419,0.0115221823249816
420,0.0119433952479015
421,0.011983316796798
422,0.0121954588797431
423,0.0124210122418486
424,0.0125092240029833
425,0.012424244429203
426,0.0124354068599555
427,0.0122204308826818
428,0.011843030311585
429,0.0118844699842479
430,0.0120859303979802
431,0.0127962303501604
432,0.0135517827325684
433,0.0143862311528606
434,0.0154248403797381
435,0.0157213481992248
436,0.0158303271683271
437,0.0158249548212157
438,0.0158195824741043
439,0.0158142101269929
440,0.0159204782743094
441,0.0161945581351461
442,0.0166683591529922
443,0.0168403184220365
444,0.0172279622411791
445,0.0176156060603218
446,0.0180032498794644
447,0.0182745509966777
448,0.018508782029379
449,0.0193109255922043
450,0.0193003750743837
451,0.0191830864895134
452,0.0192645459955597
453,0.0193460055016061
454,0.0194274650076524
455,0.0194803851080276
456,0.0195628322636909
457,0.0199492688339065
458,0.0201088787120411
459,0.0204855062921464
460,0.0205835089825781
461,0.0205768131529539
462,0.02107447400889
463,0.0206130567262664
464,0.0205594411277727
465,0.0205029583198534
466,0.0202869211206171
467,0.0203094053388373
468,0.0202152971620439
469,0.0200865739600742
470,0.0205930032888421
471,0.0206349268140293
472,0.0208493295986285
473,0.0212143195951787
474,0.0213232136406966
475,0.0216855806755862
476,0.0212580578373707
477,0.0213828888979387
478,0.0215077199585067
479,0.0216325510190747
480,0.0217162054379398
481,0.0213092344685784
482,0.0211679253909161
483,0.0211533232881189
484,0.0208389696543845
485,0.0204924699485338
486,0.0207895077740602
487,0.0210722332341328
488,0.0212859937565228
489,0.0218074957695818
490,0.0220018153669655
491,0.0222157265319447
492,0.0227032822711394
493,0.0224138441245466
494,0.0227441468867876
495,0.0225065015879457
496,0.0225429240998888
497,0.0222499909250812
498,0.0223670821018554
499,0.0218730537483717
500,0.0219819659711205
501,0.0218075454745634
502,0.0221228097607781
503,0.0222966123209196
504,0.0220399601560512
505,0.0227311840164416
506,0.0226928001117045
507,0.0228030377608494
508,0.0229605546231865
509,0.023018828748352
510,0.0227163270843997
511,0.0230555016440257
512,0.0229293421001002
513,0.0222651476730456
514,0.0222006518951262
515,0.0218903326503201
516,0.0217250508194329
517,0.0216732162598367
518,0.0216896577111638
519,0.022049897432154
520,0.0225022436314743
521,0.0227825322856178
522,0.0230628209397613
523,0.0233431095939048
524,0.0232348740717567
525,0.023284150547167
526,0.0234135318018607
527,0.023280267925442
528,0.0234247681386584
529,0.0238198750307043
530,0.0238429816560685
531,0.0239082045678486
532,0.0238937516962
533,0.0242489431839271
534,0.0243775980805074
535,0.0242956698703145
536,0.0246862954049812
537,0.0249146281591462
538,0.025095562201126
539,0.0254422029414332
540,0.0259292512684131
541,0.0261486065923075
542,0.026459336387177
543,0.0268305904017315
544,0.0271124487638451
545,0.0270030689794807
546,0.0271348486442567
547,0.0266877277662433
548,0.0262406068882299
549,0.0257934860102165
550,0.0251107474573261
551,0.0249295388873457
552,0.0248208165907239
553,0.0244882369370299
554,0.0242204281873113
555,0.0243581426487858
556,0.0239258220551967
557,0.0238465563659858
558,0.0236234151610654
559,0.0234130540547214
560,0.023735504133652
561,0.0233008662135237
562,0.0237099264615465
563,0.0233855813176242
564,0.0235081798471451
565,0.0231473454007537
566,0.0230455333923504
567,0.022733357857739
568,0.0229559576687825
569,0.0226486185963321
570,0.0227162327997684
571,0.0227442929828883
572,0.0227896939083145
573,0.0228017178918613
574,0.0230304162931455
575,0.0228853204774156
576,0.0230229864957235
577,0.0231606525140314
578,0.0232983185323392
579,0.0234359845506471
580,0.023573650568955
581,0.023857720972064
582,0.0238311044959587
583,0.0239303370639542
584,0.0235923956407295
585,0.0234798876105805
586,0.0228627798218197
587,0.0224424685401566
588,0.0220991871886132
589,0.0217559058370699
590,0.0214126244855265
591,0.0214082462864296
592,0.021611503421386
593,0.0215742246816657
594,0.021777387268332
595,0.0217169424575812
596,0.0218398550772549
597,0.0218847452097478
598,0.0220158434547056
599,0.0219812639946746
600,0.02220315060766
601,0.0222586441572267
602,0.0223666194764322
603,0.0222387833896563
604,0.0225247548773524
605,0.0224230297882497
606,0.0227214656677403
607,0.0232485678249199
608,0.0237162742412073
609,0.0245162717796622
610,0.0248457760138455
611,0.025162228608215
612,0.024677157418849
613,0.02403529541827
614,0.0230234964458376
615,0.0227785572060634
616,0.0220293661843545
617,0.0218748994055443
618,0.0216678475473407
619,0.0215751174584054
620,0.0214242461411009
621,0.0215073113202083
622,0.0210709842597619
623,0.0210350103900217
624,0.0208619748770964
625,0.020688939364171
626,0.0205159038512456
627,0.0205352581431357
628,0.0204980179562925
629,0.0203972725762243
630,0.0205195076242218
631,0.0201097618781622
632,0.0201242169416582
633,0.0201203155224243
634,0.0199814210073365
635,0.0199916909361098
636,0.019723283534534
637,0.0199393605374101
638,0.0197361879729916
639,0.01973886798718
640,0.0196706918115034
641,0.0195561724529992
642,0.0193913154427678
643,0.0191572987478381
644,0.0189232820529083
645,0.0186892653579785
646,0.0187926733258493
647,0.0187257524356613
648,0.0182896258898958
649,0.0185981878372971
650,0.0183996032455527
651,0.0185935268537549
652,0.0182818314585745
653,0.0180221861562329
654,0.0175993338667654
655,0.017715209850819
656,0.0174806912623247
657,0.0177110093292091
658,0.017880797596445
659,0.0183642106911467
660,0.0184906076475023
661,0.0185747093758941
662,0.018621152924342
663,0.0185208253221972
664,0.0183898368845657
665,0.018342579506642
666,0.0184036461548392
667,0.0183632677870309
668,0.0183457520310472
669,0.0179414165327433
670,0.0179673582983128
671,0.0179145731590334
672,0.0177920136744481
673,0.0177908751836531
674,0.0177783028770043
675,0.0177276853406958
676,0.0176667672498912
677,0.0177290905706525
678,0.0174736961075863
679,0.0173767494523028
680,0.0177786504399887
681,0.0173983302248313
682,0.0169976637291685
683,0.016650304158122
684,0.0160711062991749
685,0.015592886580224
686,0.0152063441830314
687,0.0148299364367939
688,0.0146217168424666
689,0.0146437019152513
690,0.0147105379119428
691,0.0149066898824913
692,0.0148854665888435
693,0.0149249484946468
694,0.0150876962612923
695,0.0151206090652849
696,0.0152770698857313
697,0.0153453471020705
698,0.0150514247870392
699,0.0150684223529529
700,0.015312709375484
701,0.0151058326195664
702,0.0154827239604456
703,0.0155242866256223
704,0.0158577177052544
705,0.0158834210475436
706,0.0161479437057938
707,0.0163864641062958
708,0.0163519914821775
709,0.016588156654852
710,0.0163471684458245
711,0.0162922431882447
712,0.0161735693317672
713,0.0153429866701857
714,0.0148155662507557
715,0.0138116344548683
716,0.0130110804518683
717,0.0122997277774533
718,0.0121710951221023
719,0.0121273025737977
720,0.0122459817054385
721,0.012144664784485
722,0.012395287855362
723,0.0122143998739652
724,0.0121564187906951
725,0.0121713992262401
726,0.0120037002718266
727,0.0121814579844993
728,0.0122607193173339
729,0.0126165828374611
730,0.0129584992579091
731,0.013336643296253
732,0.0137755713248666
733,0.0142612638799055
734,0.0145520367600009
735,0.0146163670071445
736,0.0148240974779744
737,0.0149226388579739
738,0.0150211802379734
739,0.0151197216179729
740,0.0153691248387215
741,0.0153882701487529
742,0.0154631777302305
743,0.0155380853117082
744,0.0156129928931858
745,0.0156000091290636
746,0.0155505945546355
747,0.0154641376361391
748,0.0153063223243406
749,0.0153392990166802
750,0.0152383495306121
751,0.0151444927630665
752,0.0152401838845826
753,0.0149988543857468
754,0.0147992277247749
755,0.0138473623867256
756,0.0128954970486762
757,0.0119436317106269
758,0.0103966884093231
759,0.00899070325294465
760,0.00803479817994523
761,0.00780289153629255
762,0.00799438477492092
763,0.00851671691806322
764,0.009445151857161
765,0.0102088827481869
766,0.0113192026695505
767,0.0121907620763916
768,0.0126801102069488
769,0.0130924217338935
770,0.0133261164319977
771,0.0134692373900537
772,0.0135869688482555
773,0.0136169510564935
774,0.0135299382328909
775,0.0135420993198753
776,0.0135377196942425
777,0.0134311301218648
778,0.0134978815910956
779,0.0132551344059757
780,0.013267709205947
