"wavelength","measurement"
380,0.0115150017178477
381,0.0106995403292052
382,0.0111243971163213
383,0.0114072615441607
384,0.011699265215846
385,0.0125461697256651
386,0.0131727915733346
387,0.014348490705804
388,0.0148049883921317
389,0.0156772251294252
390,0.015964804317477
391,0.0156654094148148
392,0.0162185564747098
393,0.0163858035831901
394,0.0168734998484199
395,0.0185701381720098
396,0.0203527281738885
397,0.0227808153760281
398,0.0252089025781678
399,0.0276369897803074
400,0.0293700622926512
401,0.0310523195009546
402,0.0327782811923025
403,0.0330627932460777
404,0.0334188968850179
405,0.0337380937891304
406,0.0343809541979046
407,0.0350976712835804
408,0.03568070689845
409,0.0365444352713098
410,0.0383710790224417
411,0.038639731681243
412,0.0396100284523481
413,0.0407442881480172
414,0.0406992208324402
415,0.0413401286138677
416,0.0413386024865479
417,0.0408403408497553
418,0.041872309055502
419,0.0409439892542839
420,0.0419265271084225
421,0.0422712051909442
422,0.0425805916061115
423,0.0428409328113223
424,0.0433644579598633
425,0.0423063755803766
426,0.0422962000529809
427,0.0409944372358573
428,0.0397349419769549
429,0.0398832729070055
430,0.0398542384540848
431,0.0417197498033174
432,0.043370275476371
433,0.04506276801846
434,0.0472359638615233
435,0.0483572335494107
436,0.0489345384653778
437,0.0495859005606031
438,0.0502372626558285
439,0.0508886247510538
440,0.0513925107471051
441,0.0523284899330438
442,0.0537540414506127
443,0.0541024608477959
444,0.0552403099627794
445,0.0563781590777628
446,0.0575160081927463
447,0.058179526485381
448,0.058975903564841
449,0.0611116366512005
450,0.0613767248076299
451,0.0608951364528172
452,0.0610210134543632
453,0.0611468904559093
454,0.0612727674574553
455,0.0615736882802951
456,0.0619052318131579
457,0.0624032138157279
458,0.06304082237166
459,0.0643800419563185
460,0.0643302210750134
461,0.0640645722109896
462,0.0658505535770832
463,0.0645240377517932
464,0.0637979273679218
465,0.0636995616234685
466,0.0626386599579003
467,0.0630785393589758
468,0.06290528365004
469,0.0618405401884875
470,0.0637595375066441
471,0.0637665159402962
472,0.0640158310987775
473,0.065034592868482
474,0.0655150042135866
475,0.0665478980507025
476,0.0654798858002956
477,0.065622843732829
478,0.0657658016653624
479,0.0659087595978958
480,0.0660777744738575
481,0.0644695098213998
482,0.0638226437884393
483,0.0633867115869397
484,0.0619462031806399
485,0.060849726405682
486,0.0614835472465807
487,0.0620863061422709
488,0.0628703338007279
489,0.0647044970436221
490,0.0649354071392848
491,0.0655767425452673
492,0.0669944766344776
493,0.0665930043495552
494,0.0678369454423937
495,0.0669466443820422
496,0.0669840423475315
497,0.0660643040411203
498,0.0664649721574123
499,0.0650912555924825
500,0.0655534437943708
501,0.064865440440637
502,0.0659448302967011
503,0.0662264451521345
504,0.0653475842267189
505,0.0678092778511809
506,0.0673540680732286
507,0.0678796365138855
508,0.0681549311137515
509,0.0683578845431007
510,0.0676075994729332
511,0.0683665120998748
512,0.0679530355419323
513,0.0662046792032641
514,0.0659275647810082
515,0.0646002043069537
516,0.0642118737815047
517,0.0641720510174738
518,0.0637882807013709
519,0.0652511974003141
520,0.0662396009692497
521,0.0670011427959268
522,0.0677626846226039
523,0.068524226449281
524,0.0683474921017868
525,0.0682359901561352
526,0.0685976462042884
527,0.068134199802417
528,0.068424486823858
529,0.0695779222849945
530,0.0695916542857945
531,0.0697172269573673
532,0.0696887219316294
533,0.0701701917585763
534,0.0701765618435394
535,0.0694069228181132
536,0.0703296011855586
537,0.0700674025829449
538,0.0699464116441332
539,0.0697886526743932
540,0.0705150567315626
541,0.0708499863375731
542,0.0707335060612441
543,0.0713005042805631
544,0.0719682802944222
545,0.071115089790074
546,0.0712078409788594
547,0.070826009464095
548,0.0704441779493307
549,0.0700623464345664
550,0.0695724158303727
551,0.0695342379625054
552,0.0700765791736784
553,0.0691405087412575
554,0.0690333762545101
555,0.0695874859029924
556,0.0686162313096638
557,0.0683071152029836
558,0.0679487517649484
559,0.0673826908230871
560,0.0680458810911289
561,0.0668982928633209
562,0.0680392714238769
563,0.0671841575778708
564,0.0672969709242432
565,0.066396902407005
566,0.0660459307140316
567,0.0651232634986006
568,0.0652701481521362
569,0.0648600545045536
570,0.0648036833109553
571,0.0648649771161425
572,0.0647655210062962
573,0.0648636207780724
574,0.0652991898362708
575,0.0646889196783199
576,0.0649158490254922
577,0.0651427783726646
578,0.0653697077198369
579,0.0655966370670092
580,0.0658235664141815
581,0.0666820141272054
582,0.0663302997342589
583,0.0667205874118456
584,0.0653346562810477
585,0.0648539429495472
586,0.0628259679173502
587,0.0615470295431714
588,0.060495733020402
589,0.0594444364976326
590,0.0583931399748632
591,0.0585403603122235
592,0.0589175828218618
593,0.0590280507317058
594,0.0601143039216678
595,0.0598904213154922
596,0.0607141482065129
597,0.0605902917817848
598,0.0609692513984747
599,0.0609910350147665
600,0.0617551598835467
601,0.062030720014434
602,0.0623838743991055
603,0.0622133222094298
604,0.062655631892735
605,0.0624719950286337
606,0.0624295640509964
607,0.0627576197408649
608,0.0625542251236077
609,0.062903977162233
610,0.0626560810747222
611,0.0626126352335106
612,0.0618219088030526
613,0.0610557513775151
614,0.059964927851621
615,0.0605007306315446
616,0.059287052484744
617,0.0594455609159698
618,0.0594762745392472
619,0.0592949797123143
620,0.0590173270115424
621,0.0591371099412224
622,0.0579459676610337
623,0.0576234504243253
624,0.0570513778393333
625,0.0564793052543413
626,0.0559072326693493
627,0.0557260071697679
628,0.0556015974287395
629,0.0550860557923184
630,0.0556365672108762
631,0.0545972180347746
632,0.0550811888882689
633,0.0550441425471576
634,0.0551911335776203
635,0.0552033981750479
636,0.0545316040430437
637,0.0551228259207372
638,0.0546217515554468
639,0.0548490573200885
640,0.0546316520128047
641,0.0540618799484336
642,0.0537990769800879
643,0.0531178625670855
644,0.0524366481540831
645,0.0517554337410807
646,0.0516878188215147
647,0.0513415878217548
648,0.0502622193599854
649,0.0510833167752143
650,0.0503976102448451
651,0.0510182406093578
652,0.0503487650361818
653,0.049259236784874
654,0.0484619960137309
655,0.0488175117663885
656,0.0483185971407184
657,0.048649162035152
658,0.0492076459800754
659,0.0504230426180775
660,0.0510049436764899
661,0.0512095779052095
662,0.0513862047883459
663,0.0509551832913232
664,0.0507644036153833
665,0.0507160535370103
666,0.0508103341053873
667,0.0504990294442174
668,0.050633161546931
669,0.0495482123439067
670,0.0498860650138962
671,0.049643232452104
672,0.0492766300669814
673,0.0491381625529031
674,0.0493007998344837
675,0.0488833818460319
676,0.048945555190363
677,0.049015698118162
678,0.0484600871965936
679,0.0482611973301244
680,0.0490449896813747
681,0.0478798718752461
682,0.0466842615258807
683,0.0456002476495021
684,0.0438187337539689
685,0.0421729620425313
686,0.0411184295973905
687,0.0398120545682196
688,0.0393987150601966
689,0.0391042723249745
690,0.0394745183280101
691,0.0395570940463019
692,0.0394256368356323
693,0.0398883240928959
694,0.040123130240387
695,0.0400102701220265
696,0.0404137596568579
697,0.0403236314980413
698,0.0398595757251333
699,0.0394965377721334
700,0.0400846653099777
701,0.0395752581083743
702,0.0401360385716869
703,0.0402391560058161
704,0.0409274293827749
705,0.040750495230748
706,0.0409982564771621
707,0.0415241985508755
708,0.0415116389395631
709,0.0422126470210381
710,0.0415579635997012
711,0.0412968522718407
712,0.04082300171635
713,0.0387657737850176
714,0.0372630536113753
715,0.0347584040750305
716,0.0324032058175828
717,0.0304189353570543
718,0.0300357487248212
719,0.0297778532963358
720,0.0300390834001432
721,0.0298252501039976
722,0.0304497118280637
723,0.0299402643394656
724,0.0297759919321522
725,0.0296580243047097
726,0.02919491592236
727,0.0296659764069534
728,0.0297851165569253
729,0.0308018351184624
730,0.0315085973759299
731,0.0328489894550938
732,0.0337059928120169
733,0.0350641487138617
734,0.035522551147601
735,0.036063902597929
736,0.0370463471037495
737,0.0371920404007746
738,0.0373377336977998
739,0.0374834269948249
740,0.0381543949032636
741,0.0383466140100095
742,0.0386372467309453
743,0.0389278794518812
744,0.0392185121728171
745,0.039010965235463
746,0.0390779419808516
747,0.0392600534165004
748,0.038126571648244
749,0.038898156826228
750,0.0384231076685493
751,0.037927379858565
752,0.0386915769922127
753,0.038081624728787
754,0.0375168188718415
755,0.0349394422705849
756,0.0323620656693282
757,0.0297846890680716
758,0.0258172590005574
759,0.0223226983920003
760,0.0193797340155662
761,0.0187049947869797
762,0.0191389022439004
763,0.0206357890049854
764,0.0228357212058046
765,0.0250259032091463
766,0.0278031003359789
767,0.0301331969698624
768,0.0318567143261843
769,0.032680170983046
770,0.0337495590154918
771,0.0338068505183295
772,0.0338351869952148
773,0.03450610975509
774,0.0340141660737218
775,0.0343015756185916
776,0.03419306431131
777,0.0340084827070721
778,0.0340887574311865
779,0.033610117498985
780,0.0335030411718669
