"wavelength","measurement"
380,0.0182319743683237
381,0.0175218271884767
382,0.0171304092745622
383,0.016813841013634
384,0.0167464625590284
385,0.0175777635791788
386,0.018285622212482
387,0.0190396486268779
388,0.0198748429816238
389,0.0204299370218938
390,0.0201563318063003
391,0.020091103484225
392,0.0199902262720519
393,0.0202114495416893
394,0.0205328564156501
395,0.0217003139741709
396,0.024040306675152
397,0.0266777805453398
398,0.0293152544155276
399,0.0319527282857154
400,0.0334195861045758
401,0.035463836184694
402,0.036660215025071
403,0.0369256700366174
404,0.0371170713554621
405,0.0368913435583322
406,0.0376122074633142
407,0.0377452829284156
408,0.0378534739471502
409,0.038365516431895
410,0.0397981632845343
411,0.0398043085387024
412,0.04068849342668
413,0.0412939682470283
414,0.0411319627425734
415,0.0413566759282142
416,0.0407930158824543
417,0.0402834645778387
418,0.0406729416391125
419,0.0397312372715089
420,0.0404126679859599
421,0.0400507959013917
422,0.0403063300918254
423,0.0403802772704626
424,0.0404785072660222
425,0.0395579354984088
426,0.0391049297709386
427,0.0379138885261622
428,0.0366070276798575
429,0.0364883451073792
430,0.0363870784056131
431,0.037660219406525
432,0.038874126121658
433,0.0401535631909553
434,0.0417497963001022
435,0.0425945973558496
436,0.0428556561379335
437,0.0434640613005748
438,0.0440724664632161
439,0.0446808716258574
440,0.0448859807586958
441,0.0456135453391943
442,0.0466165235596613
443,0.046862898905864
444,0.0475400457439239
445,0.0482171925819838
446,0.0488943394200437
447,0.0496204210251818
448,0.0497157970225929
449,0.0515913396891218
450,0.0513034361364823
451,0.0509150964079696
452,0.0507636414481215
453,0.0506121864882735
454,0.0504607315284255
455,0.0503569968509683
456,0.0503719553315362
457,0.0508141441308468
458,0.051059932893952
459,0.051744906808269
460,0.0516463341367115
461,0.0511236731377098
462,0.0525205505976351
463,0.0510033301631144
464,0.0503935744490859
465,0.0499910384564616
466,0.049302922543302
467,0.0491250126302543
468,0.0486468383674956
469,0.0481616948613796
470,0.0491669770084758
471,0.0490390565801803
472,0.0492385352078819
473,0.0498057896130159
474,0.049935755898678
475,0.0504330195070139
476,0.0494568348795902
477,0.0494528068487416
478,0.0494487788178931
479,0.0494447507870445
480,0.0493635759555762
481,0.0481175159624201
482,0.0472718492636272
483,0.0469984636980668
484,0.0457805434916218
485,0.0447985798639697
486,0.0450647982765321
487,0.0454293709468508
488,0.0457329513589773
489,0.046859265651389
490,0.0472076297351789
491,0.0475723561645923
492,0.0486976024992485
493,0.0481177801312987
494,0.0488641388091314
495,0.0481737460579013
496,0.048416995189857
497,0.0476324162034685
498,0.0477914040150402
499,0.0468514765368723
500,0.0469891308291067
501,0.0465825322784038
502,0.047325982384736
503,0.0474869643924217
504,0.0469677991849675
505,0.0484697015932833
506,0.04825591492507
507,0.0485738141872603
508,0.0489186424923557
509,0.0490144374196762
510,0.0483149430404513
511,0.0491040677020211
512,0.0488500051530864
513,0.0475463221589713
514,0.0473831679996273
515,0.0466477903519314
516,0.0465345289042145
517,0.0465580167105358
518,0.0464965683947751
519,0.0474239128404257
520,0.0484263522932994
521,0.0490642301855169
522,0.0497021080777345
523,0.050339985969952
524,0.0502284223339589
525,0.0504608505168979
526,0.0507066405974014
527,0.0505652654748259
528,0.0509648536566879
529,0.0517997324932035
530,0.0519204976320674
531,0.0520689205350043
532,0.0520809242352596
533,0.0526154113332965
534,0.0528175896483905
535,0.0523742679857454
536,0.0529721039929745
537,0.0527632063942549
538,0.0523825821702853
539,0.0521491637026728
540,0.0524514137017828
541,0.0521634093597765
542,0.0518777444762464
543,0.0521898636997027
544,0.052586917345397
545,0.0523977798015818
546,0.0528617017618812
547,0.0529327735530054
548,0.0530038453441296
549,0.0530749171352538
550,0.0527556924233634
551,0.0531179914777482
552,0.0537089643349535
553,0.053158776372421
554,0.0530560130681286
555,0.0535650774102329
556,0.0528384961415383
557,0.0527876042528907
558,0.0523725981976247
559,0.0520231816898334
560,0.0526437482530748
561,0.0517400136835435
562,0.0526239888296794
563,0.0517592301573263
564,0.0520678795839576
565,0.051256981763021
566,0.0509041892273607
567,0.0502325712710801
568,0.0504773997349094
569,0.0499103628925924
570,0.0497534933425183
571,0.0498174184662933
572,0.0497635607324865
573,0.0496311046068755
574,0.0499774449614974
575,0.0492688765303444
576,0.0493929370658403
577,0.0495169976013362
578,0.0496410581368321
579,0.049765118672328
580,0.049889179207824
581,0.0504548197320652
582,0.0501283640189165
583,0.0503664579459625
584,0.0494347695420498
585,0.0489984906646442
586,0.047528621250016
587,0.0465492530164995
588,0.0458722408975979
589,0.0451952287786965
590,0.0445182166597949
591,0.0446744307011022
592,0.0451405450124789
593,0.0451828913929197
594,0.0460033547146842
595,0.0459538656925745
596,0.0463775765704375
597,0.0467305150371675
598,0.0469502241465357
599,0.0470750901268069
600,0.0475781044948047
601,0.0478900371168275
602,0.0481688801166693
603,0.0480980259582284
604,0.048505227309138
605,0.0482321221011283
606,0.0482590133554715
607,0.0480543997777518
608,0.047459737559031
609,0.0474436507569838
610,0.0470597961038312
611,0.0467611158957711
612,0.0463062663856368
613,0.0461401702744542
614,0.0456358336748075
615,0.0461747704246264
616,0.045572813612383
617,0.0459376170258072
618,0.0458062875664456
619,0.0459651655095483
620,0.0457925201141443
621,0.0460694899099166
622,0.0452481018384432
623,0.0450369341986844
624,0.0446992653420788
625,0.0443615964854731
626,0.0440239276288675
627,0.0439736589633569
628,0.0437623715384543
629,0.0436419624830561
630,0.0440250459331703
631,0.0434554562882932
632,0.0438023254193808
633,0.0441660252554747
634,0.0441550906757566
635,0.0445049232463865
636,0.0440296074645799
637,0.0444150676437052
638,0.0442402576358435
639,0.0443378723382101
640,0.0441335393045953
641,0.0439484512444666
642,0.0435547362648622
643,0.0430905991077636
644,0.0426264619506651
645,0.0421623247935665
646,0.0422032721072178
647,0.0419756063243407
648,0.0411596790381883
649,0.0418434108356172
650,0.0414692283201591
651,0.0419377136558999
652,0.041393611877495
653,0.040838811320865
654,0.0400809649583941
655,0.0405553096281962
656,0.0401187966452992
657,0.0406530417401293
658,0.0411384029100349
659,0.0422338631542223
660,0.0426313467283937
661,0.0428540207176962
662,0.0430904793184757
663,0.0428951714531001
664,0.0426342237007412
665,0.0428235786078105
666,0.0428519639282779
667,0.0429805290153748
668,0.0429567813054082
669,0.0422196583312598
670,0.0424100323376858
671,0.0423217058451962
672,0.0420981317318773
673,0.0422691857573714
674,0.0423464541639434
675,0.0423166904337957
676,0.0423069324124753
677,0.042610571229535
678,0.0420779262856701
679,0.0421156853115741
680,0.0430155476670704
681,0.0423051502300083
682,0.0414230780068538
683,0.0406466923116955
684,0.039309245588599
685,0.0381144745176816
686,0.0372845694261762
687,0.0364960237338646
688,0.0362069738384379
689,0.0362689247134558
690,0.0368786076995341
691,0.0376456371629962
692,0.0378427916908849
693,0.0383522129376993
694,0.0391932172532152
695,0.0395035779029594
696,0.040526316256132
697,0.0410867618728674
698,0.0407960308252657
699,0.0412418334955139
700,0.042306598824792
701,0.0424460071119786
702,0.043643290611524
703,0.0443191295895887
704,0.0454665147255874
705,0.0462209691260151
706,0.04737640385166
707,0.0484401009286111
708,0.0490507188688859
709,0.050248081675165
710,0.050228935072845
711,0.0506670971173092
712,0.0511527557275026
713,0.0491911435803756
714,0.0480596380367219
715,0.0453992322694412
716,0.0430483393042135
717,0.0416615659569574
718,0.04145836525974
719,0.0421702332274886
720,0.0431418669787303
721,0.0433799239805333
722,0.0450325398120598
723,0.0450522453483644
724,0.0452742120979497
725,0.0457248005126629
726,0.046015270680767
727,0.0472638352905012
728,0.0485408108729619
729,0.0504968785307496
730,0.052538158543781
731,0.0552289140287805
732,0.0578243318233357
733,0.060531865965484
734,0.0624856395787856
735,0.0636358199210801
736,0.0654600921720872
737,0.066685616886996
738,0.0679111416019049
739,0.0691366663168137
740,0.0712333332014163
741,0.0722538233524025
742,0.0733204047508652
743,0.0743869861493278
744,0.0754535675477905
745,0.0760167128671081
746,0.0763573713103817
747,0.0771108803783537
748,0.0765569262375904
749,0.0772338424736616
750,0.0776116283096985
751,0.0772783653441232
752,0.0785617307205658
753,0.0781195654881645
754,0.0773528050474904
755,0.0723600392633189
756,0.0673672734791475
757,0.062374507694976
758,0.054114733492519
759,0.0466588844127845
760,0.0413537547755854
761,0.0400736109292421
762,0.0415711055780287
763,0.045034621467554
764,0.0501257570953111
765,0.0551813725366169
766,0.0613542446483587
767,0.0673046880458451
768,0.0706685460192337
769,0.0732512810159597
770,0.0754280159184872
771,0.0764067285653718
772,0.0774102953100947
773,0.0786190453625846
774,0.0780568110563554
775,0.0783635992478991
776,0.078702500021704
777,0.0779069129379105
778,0.0789491187698112
779,0.0780823068730572
780,0.0792581820583518
