"wavelength","measurement"
380,0.00265559027770394
381,0.00257780781832802
382,0.00263470305290816
383,0.0026774002661502
384,0.0027454084131521
385,0.00299895513050992
386,0.00317602578270527
387,0.00340466010865107
388,0.00358855673209027
389,0.00380226998914174
390,0.00383063583232997
391,0.00391012208548546
392,0.00401002603712712
393,0.00413586562470383
394,0.00440509992216719
395,0.00468005621472679
396,0.00528559547800479
397,0.00600917684434749
398,0.00673275821069018
399,0.00745633957703288
400,0.00795112838912486
401,0.00868273331050389
402,0.00923888547954633
403,0.00955703070887482
404,0.00984537884761699
405,0.0100428119194798
406,0.010427400139912
407,0.0106854422095554
408,0.0109773106719169
409,0.0114024372380347
410,0.0121626560584728
411,0.0124425850617296
412,0.0129426644738716
413,0.0134682936240388
414,0.013692374048589
415,0.0140078532046098
416,0.0140984287918178
417,0.0141548899583285
418,0.0144870998517424
419,0.0143385910624955
420,0.0148334452349183
421,0.0148952182251003
422,0.015143427589129
423,0.0153844815235822
424,0.015540586599589
425,0.0154069857401449
426,0.0153416854322977
427,0.0150589903935929
428,0.0146297843846975
429,0.0147011569936294
430,0.0149399107913143
431,0.0156736270435649
432,0.0165520387828381
433,0.0176215324480459
434,0.0187241530003317
435,0.0192166435515695
436,0.0193408770189316
437,0.0194192861924749
438,0.0194976953660183
439,0.0195761045395617
440,0.0196270154559119
441,0.0200130416847653
442,0.0206101625571771
443,0.0208190628495578
444,0.021269995715283
445,0.0217209285810081
446,0.0221718614467332
447,0.0226670093610361
448,0.0228508518751218
449,0.0238557038291153
450,0.023880640138925
451,0.0238155121869493
452,0.0238606056266014
453,0.0239056990662534
454,0.0239507925059055
455,0.0240617718693267
456,0.0240719368316301
457,0.024471837953555
458,0.0246884760040093
459,0.0251713140810712
460,0.0252745840097738
461,0.0251186759440299
462,0.0259039164547766
463,0.02529263215786
464,0.0251212776357472
465,0.0250208327019299
466,0.0247663619200821
467,0.0248111696200852
468,0.0246770751165994
469,0.0245780575190472
470,0.0251296375800561
471,0.0251714167678449
472,0.0253717303719594
473,0.0257427406490842
474,0.02588873796681
475,0.0263702488555774
476,0.0258722710352531
477,0.0259840695559582
478,0.0260958680766633
479,0.0262076665973684
480,0.0262904945067298
481,0.0257730174309147
482,0.0255575251933131
483,0.0256002154803245
484,0.0251648274062385
485,0.0247638361449069
486,0.0250554684010672
487,0.0253410412349353
488,0.025577858336914
489,0.0262450319913759
490,0.0264613573177703
491,0.0266631516592716
492,0.0272544815232931
493,0.0269542161264679
494,0.027386558087603
495,0.0270381797220513
496,0.0271984506635817
497,0.0267471246971322
498,0.0269101146230612
499,0.026339243759241
500,0.026447640696485
501,0.0261888837364883
502,0.0266202755069612
503,0.026751395207932
504,0.0264724793383284
505,0.0272983910318692
506,0.0272353904332052
507,0.0274151353468423
508,0.0276162264928856
509,0.0277251942831965
510,0.0272966085161746
511,0.0277477986104673
512,0.0276654716625788
513,0.026904446959802
514,0.0268549889774083
515,0.0264314266498195
516,0.0263443759622581
517,0.026278237099804
518,0.0262254188918428
519,0.0267789646455148
520,0.0272436546851611
521,0.0275737616055767
522,0.0279038685259923
523,0.028233975446408
524,0.0281422279403636
525,0.0282060003005592
526,0.0283663987610339
527,0.0281608411906386
528,0.0283898046384074
529,0.0287798420944979
530,0.0288380266801886
531,0.0289639747710692
532,0.0289254123346862
533,0.0292571558743931
534,0.0294388779037743
535,0.0292772816724998
536,0.0297716699549077
537,0.0298814049602954
538,0.0300790370682252
539,0.0303187929647133
540,0.030845784433671
541,0.0310298643199442
542,0.0311684445462791
543,0.031538784975448
544,0.0318847140201905
545,0.031735522488915
546,0.031930196261904
547,0.0315414876184886
548,0.0311527789750732
549,0.0307640703316578
550,0.0301013933111134
551,0.0299878644611757
552,0.0299765894424727
553,0.0294938782205851
554,0.0292957751561731
555,0.029509993524154
556,0.0289803393360765
557,0.0288744660058457
558,0.0286504412995646
559,0.0284134839084386
560,0.0287176948712021
561,0.0282178466451103
562,0.02873258909553
563,0.0282926762560249
564,0.0284581145215818
565,0.0280298384932036
566,0.0278840546507985
567,0.0275375605100881
568,0.0277085943871297
569,0.0274285688740463
570,0.0273322638215616
571,0.0274493392648378
572,0.0274209257283192
573,0.0274297771052582
574,0.0276609445352178
575,0.0273968735942098
576,0.0275518338302718
577,0.0277067940663338
578,0.0278617543023958
579,0.0280167145384578
580,0.0281716747745198
581,0.0285408273139544
582,0.0283806534935538
583,0.02861658788189
584,0.0281838111579872
585,0.0280519302307799
586,0.027244147588909
587,0.0267754992545459
588,0.0263601912485802
589,0.0259448832426144
590,0.0255295752366487
591,0.0255518231306501
592,0.0257420954947703
593,0.0257366221391952
594,0.0260552142493273
595,0.0259885170719544
596,0.026128845669225
597,0.0262674463085977
598,0.0263309265226532
599,0.0263890992234457
600,0.0266327332353899
601,0.0267366589974098
602,0.0268841135773844
603,0.0267132919985293
604,0.0270565793904955
605,0.0269396206186914
606,0.0272151950386873
607,0.0276831689478832
608,0.0281058580796303
609,0.028871336549825
610,0.02914214426296
611,0.0293513373188482
612,0.0289464213838821
613,0.0282662631187238
614,0.0273605727643762
615,0.0270572089872118
616,0.0263079730245591
617,0.0262051732577653
618,0.0259572466742783
619,0.0259031104621824
620,0.0257346315792608
621,0.0258678640302675
622,0.0253763189283233
623,0.0252786224133319
624,0.0250715637478048
625,0.0248645050822776
626,0.0246574464167505
627,0.0246182186315496
628,0.0245159768125128
629,0.0243818688232365
630,0.0245484217318382
631,0.024121399504253
632,0.0241363819062143
633,0.0241648520891762
634,0.0240548803115259
635,0.024124522230223
636,0.0238549393601065
637,0.024026790481647
638,0.0238047203381129
639,0.0238696768782859
640,0.0237201069253411
641,0.0235923247183082
642,0.0233735752859903
643,0.0230971823642406
644,0.022820789442491
645,0.0225443965207414
646,0.0225375187530196
647,0.0223959921529092
648,0.0218914009367236
649,0.022234943209186
650,0.0220271774685905
651,0.0221866071278813
652,0.021852020196648
653,0.0214850302851492
654,0.0210498821364674
655,0.0212499199380317
656,0.0209507161010136
657,0.0211732688683754
658,0.0214272130508941
659,0.0219817930924307
660,0.0221408566738485
661,0.0222204685806775
662,0.0223190330435855
663,0.0221646545392271
664,0.021990626233302
665,0.022016011836561
666,0.0219890335431301
667,0.0219492741529241
668,0.0218638537729359
669,0.0214838195112388
670,0.0214904657420697
671,0.0213783620633542
672,0.0212716419213463
673,0.0212563010275269
674,0.0212748144191874
675,0.0211694223710856
676,0.0210993717879999
677,0.0211600023440629
678,0.0208560441506124
679,0.0207942763637697
680,0.021172590768291
681,0.0207793563453843
682,0.0202730409399459
683,0.0198363749724618
684,0.019098381047601
685,0.0184791834936208
686,0.0179959591120021
687,0.0175208810204861
688,0.0172498222884728
689,0.0172273381363821
690,0.0174003838121823
691,0.0176457366578467
692,0.0176357692791533
693,0.0177482362813907
694,0.0179875926061701
695,0.0179900528812407
696,0.018305098216354
697,0.0183596069630456
698,0.0181039752988297
699,0.0181196686700484
700,0.0184041948306761
701,0.0182933728326822
702,0.0186673581934334
703,0.0187809922565459
704,0.0192409011402839
705,0.0193604988299911
706,0.0196914423505901
707,0.0199944548212356
708,0.0200134635655783
709,0.0202782489886415
710,0.0200059078660871
711,0.0199742509518636
712,0.0198923926784249
713,0.0188686838917917
714,0.0181635826025169
715,0.0169302367170006
716,0.0158031066533605
717,0.0150136293796765
718,0.0147174757133849
719,0.0147380531553055
720,0.0149129627633742
721,0.0148033196150031
722,0.0152022742542362
723,0.0150584967181498
724,0.0149338423352819
725,0.0148712611083424
726,0.0147736569634095
727,0.014983734129402
728,0.0151722833871781
729,0.0156068131071588
730,0.0160725597979573
731,0.0167220316129877
732,0.0172625187190484
733,0.0179497152967247
734,0.0183708119624922
735,0.0185540278093257
736,0.018822125364366
737,0.0190116526483369
738,0.0192011799323077
739,0.0193907072162786
740,0.0197793112801868
741,0.0199048437132442
742,0.0200208853293186
743,0.0201369269453931
744,0.0202529685614675
745,0.0202839302359456
746,0.0202057569729279
747,0.0202438578849512
748,0.0199324028745037
749,0.0199900339002023
750,0.0199607243965897
751,0.0197111930747047
752,0.0199086219373518
753,0.0195973233664042
754,0.0194015139318411
755,0.0180666253105219
756,0.0167317366892027
757,0.0153968480678836
758,0.0132700602504733
759,0.011348552227438
760,0.00995239925172083
761,0.00953765038676036
762,0.0098457863696001
763,0.0105882910559069
764,0.0117552647970232
765,0.0128710471656753
766,0.014294180021853
767,0.0156107127848745
768,0.0163838571612672
769,0.0169121075918559
770,0.0173008594708574
771,0.0174601265890556
772,0.017680882554164
773,0.0178061806079797
774,0.0176524475315643
775,0.0176406902972054
776,0.0176533963194848
777,0.0173590414602132
778,0.0174763768042661
779,0.0172401010535546
780,0.0173894125154281
