"wavelength","measurement"
380,0.00214654443322371
381,0.00204901010178517
382,0.00218308548836673
383,0.00206850152352072
384,0.00235677042022146
385,0.00249889568293923
386,0.00270136073102708
387,0.00293274264625741
388,0.00323026479451594
389,0.00327516885296339
390,0.00338922368045736
391,0.0034986124994511
392,0.00368067875522655
393,0.00388369538298989
394,0.00410641330548699
395,0.00455847691736309
396,0.00517999885662279
397,0.00601262140340671
398,0.00684524395019064
399,0.00767786649697456
400,0.00844266075133949
401,0.00932486539005753
402,0.010018118256765
403,0.0105777696212573
404,0.0110674269544201
405,0.0116112614363636
406,0.0121798965452053
407,0.0128241943451886
408,0.0133214891210757
409,0.0141157492450933
410,0.0152104454588349
411,0.0155986222504945
412,0.0166041648169814
413,0.0173106507020836
414,0.0176704676989306
415,0.0182183844237853
416,0.0184123544165327
417,0.018640324844534
418,0.0192166617713301
419,0.0189768390681767
420,0.0197363243498851
421,0.0198905448548738
422,0.0202604654795647
423,0.0205881762707215
424,0.02075814900926
425,0.0206410869009076
426,0.0205441689394626
427,0.0202358181598213
428,0.0196563821408382
429,0.0196751481412724
430,0.0198369323656486
431,0.0209981482685179
432,0.0220737640036059
433,0.0234115788955494
434,0.0246014700166109
435,0.0254246639223539
436,0.0257123258802099
437,0.0258750445266363
438,0.0260377631730627
439,0.026200481819489
440,0.0263316504980063
441,0.026920713757919
442,0.02766334942391
443,0.0281213188394056
444,0.0287453089597355
445,0.0293692990800654
446,0.0299932892003953
447,0.0305779796622777
448,0.0308895398507904
449,0.032259026645786
450,0.0321849329152108
451,0.0322015536590526
452,0.0322936197578827
453,0.0323856858567127
454,0.0324777519555427
455,0.0327417353696274
456,0.0327245979175691
457,0.0332562072998327
458,0.0336624752010681
459,0.0342604486216609
460,0.0344263387610328
461,0.0341677560595118
462,0.0353412609497692
463,0.0344193896656379
464,0.0342434019261649
465,0.034217887128514
466,0.0338811397213955
467,0.0340102920171259
468,0.0337525677312123
469,0.0337586559876465
470,0.0345444477304768
471,0.0345731984104561
472,0.0348843436563208
473,0.0355023372387068
474,0.0356937630132098
475,0.036382849891709
476,0.035572841581268
477,0.035776273245805
478,0.0359797049103421
479,0.0361831365748792
480,0.0363594256994232
481,0.0355292157679743
482,0.0352397472158865
483,0.0353849008953973
484,0.0346213655020319
485,0.0340362919061434
486,0.0344969524096955
487,0.0348960394621942
488,0.0352808718014725
489,0.0362186234611429
490,0.0365808442836826
491,0.0369129957480675
492,0.0378760876958496
493,0.0374486893954725
494,0.0380615558184006
495,0.0375334597929742
496,0.0378605607535598
497,0.0371398604511248
498,0.0373702170761888
499,0.0366482301839917
500,0.0368395339990745
501,0.0365707665021324
502,0.0371230806923037
503,0.037409719532241
504,0.0370258232881307
505,0.0382656120694378
506,0.0381878300590117
507,0.0384434003635723
508,0.0386874559872634
509,0.0387555966085237
510,0.0381723048883754
511,0.0387226916569027
512,0.0384976481885113
513,0.037438609988308
514,0.0371657222515917
515,0.0366541317415751
516,0.0364207960494744
517,0.0363526071047622
518,0.0362729170030374
519,0.036954306135754
520,0.0376227868438472
521,0.0380768828990899
522,0.0385309789543326
523,0.0389850750095753
524,0.0387971893183312
525,0.0389259232749421
526,0.039021251323407
527,0.0387780677612445
528,0.0390807472194436
529,0.0396356974792046
530,0.0396304264327113
531,0.0397486209986252
532,0.0397076822999098
533,0.0400874677699132
534,0.0402974719924846
535,0.0400736554230049
536,0.040696977866902
537,0.0407252721204595
538,0.0408895758832914
539,0.0411430870603704
540,0.0417862651338099
541,0.0419953992407113
542,0.0421868289527508
543,0.0425637322260548
544,0.0430785327365381
545,0.0427941813950403
546,0.0431005997924032
547,0.0425709150707555
548,0.0420412303491077
549,0.04151154562746
550,0.0407216638462266
551,0.0405114207138367
552,0.0406946556127991
553,0.04013786607581
554,0.0397984387388143
555,0.0400810369804938
556,0.0395296878188364
557,0.0393618842313576
558,0.0390073627263514
559,0.0387509229374019
560,0.0392051452611146
561,0.0386058905685915
562,0.0392865006123752
563,0.0387908734465881
564,0.0389644642000451
565,0.0385299353922317
566,0.0382306883594429
567,0.0378397385098053
568,0.0380971973128217
569,0.0376581122712114
570,0.0376977516956624
571,0.0378789987555678
572,0.0379155185207275
573,0.0379297496565299
574,0.0383267915892753
575,0.037895217045167
576,0.0381071624954155
577,0.0383191079456641
578,0.0385310533959127
579,0.0387429988461612
580,0.0389549442964098
581,0.0394985477774439
582,0.0392884924249866
583,0.0395380565855005
584,0.0389026050518898
585,0.0388132896375057
586,0.0376286284115977
587,0.0369820840237385
588,0.0364809810676242
589,0.03597987811151
590,0.0354787751553957
591,0.0354920060023696
592,0.035817418504423
593,0.035846266746963
594,0.0362075647859085
595,0.0361151950943181
596,0.0364325473174589
597,0.0365540396468852
598,0.0365735365662855
599,0.0366517320762654
600,0.0369740003241758
601,0.0371514390358629
602,0.0373232903923696
603,0.0371489990057383
604,0.037574380185704
605,0.0374623200185792
606,0.0377819515665558
607,0.0382758150617914
608,0.0386861968292188
609,0.0395702325656587
610,0.0398333820955237
611,0.039994050905791
612,0.0395109547673522
613,0.038627987658474
614,0.03746707453068
615,0.0371981631650188
616,0.0363665717924353
617,0.0362176776351434
618,0.0359682322503325
619,0.035935576992036
620,0.0356603781895416
621,0.0358824742540335
622,0.0352100541602016
623,0.0351312685435359
624,0.0348471163443049
625,0.0345629641450738
626,0.0342788119458428
627,0.0341976838795898
628,0.0340632282702834
629,0.0338567629247356
630,0.0340621997300815
631,0.0334923478600859
632,0.0335960436947408
633,0.033560138567801
634,0.0334376925921417
635,0.0334553196951002
636,0.033085935077832
637,0.03339682328375
638,0.0330436869855224
639,0.0331184410311041
640,0.0329090246281522
641,0.032774089111284
642,0.0324923077723866
643,0.0321730814246537
644,0.0318538550769208
645,0.0315346287291878
646,0.0314837987953895
647,0.031411780434516
648,0.0306895999495958
649,0.0312476576872837
650,0.0308320714912375
651,0.031041550267717
652,0.0306460881893132
653,0.0300843389219902
654,0.0294545967634553
655,0.0297172483725044
656,0.0293441346360253
657,0.0295523811803539
658,0.0299394688422754
659,0.0307290717611935
660,0.0310244647602922
661,0.0311264601873274
662,0.0311766961838971
663,0.0309916297005115
664,0.0307565810408623
665,0.0307622164902061
666,0.0307092819726949
667,0.0307651424500621
668,0.0307219203771335
669,0.0300761557045246
670,0.0301577054449776
671,0.0300627391737028
672,0.0297970826512145
673,0.0298611602544473
674,0.0298160193142178
675,0.0296243936519625
676,0.0297116087599615
677,0.0296651247296475
678,0.0292428099979832
679,0.0292247777943772
680,0.0297564365624849
681,0.0290643560912279
682,0.0284030704585937
683,0.0278023087881098
684,0.0267287613751587
685,0.0259593552122049
686,0.0252732356890218
687,0.0246186391731752
688,0.0242706507864098
689,0.0241246470486314
690,0.0243525964014391
691,0.0245442639991508
692,0.0243870818782679
693,0.0244646634361019
694,0.0247089269410118
695,0.0245677900242792
696,0.0248240982086681
697,0.0248050440157204
698,0.0243717820767451
699,0.0242292209275164
700,0.0245031687481169
701,0.0242940235301589
702,0.0246136449630574
703,0.0245276635689733
704,0.0249415418449048
705,0.0249712390817517
706,0.0251960417579423
707,0.0254244898366431
708,0.0254360696195081
709,0.0256104170119451
710,0.0251378748832483
711,0.0250353513362522
712,0.0248365718665625
713,0.0235311536796493
714,0.0226790103638886
715,0.0211279500477588
716,0.0197308868720684
717,0.0187109708089081
718,0.0183606156958197
719,0.0183329476209377
720,0.0184112936726702
721,0.0181270108365623
722,0.018584037677498
723,0.0183345878395274
724,0.0180558980996056
725,0.0180383252290161
726,0.0177113960047363
727,0.0179732619837196
728,0.0180413649357066
729,0.0183910536846426
730,0.0187974767573218
731,0.0194320971428877
732,0.0199804718960475
733,0.0206301155743882
734,0.0209090731830836
735,0.020976644090285
736,0.0212353492679699
737,0.0213375283618721
738,0.0214397074557743
739,0.0215418865496765
740,0.0219470691752568
741,0.0218589573959162
742,0.0219204206174244
743,0.0219818838389326
744,0.0220433470604408
745,0.0220976639230321
746,0.0219489712898068
747,0.0219312338816168
748,0.0215644748229575
749,0.0216181742225855
750,0.0214483738481005
751,0.0212448163583285
752,0.0214587477792503
753,0.0211026813972875
754,0.0207685235512141
755,0.0194003297396871
756,0.0180321359281601
757,0.0166639421166331
758,0.0145505489543099
759,0.0125837850920133
760,0.011310396056569
761,0.0108715338547936
762,0.0112383468025481
763,0.0119928831870066
764,0.0131728743630899
765,0.0142251115846656
766,0.0156433817969257
767,0.0169308843014538
768,0.0176462027819863
769,0.0181511358767987
770,0.0184712686130389
771,0.0186921478954002
772,0.0187780420581695
773,0.0189771779628832
774,0.0187819183348099
775,0.0186638224045527
776,0.018722136413227
777,0.0183839272321247
778,0.0186334256529924
779,0.0182934323905168
780,0.0184063450327098
