"wavelength","measurement"
380,0.00147493281814146
381,0.00141975617150387
382,0.00152262347826268
383,0.00145453070515579
384,0.00163872442195879
385,0.00174502264538114
386,0.00187346741117456
387,0.00199810867104195
388,0.00213207617334628
389,0.00225718441025214
390,0.00228336291852704
391,0.00237477383808558
392,0.00242770502648187
393,0.00252293703213106
394,0.00270251508200513
395,0.00294798017461269
396,0.00332460625068146
397,0.00384551094044454
398,0.00436641563020761
399,0.00488732031997069
400,0.00523579101330622
401,0.00574360042047076
402,0.00621394711792752
403,0.00640679605820897
404,0.00677688958646644
405,0.00698013445154961
406,0.00732373776864626
407,0.00762016894383414
408,0.00789885499590579
409,0.0083477593349097
410,0.00891820906105937
411,0.00922615985866696
412,0.00979414871275992
413,0.0101938959679534
414,0.0104297573502898
415,0.0107746440719649
416,0.0108934990829019
417,0.0110416748946433
418,0.0113463215490481
419,0.0113242226644211
420,0.0117618820065906
421,0.0118724612967707
422,0.0120848812131578
423,0.0123706436639968
424,0.0125232181134758
425,0.0123717171282704
426,0.012420784476591
427,0.0121236308430487
428,0.0118645669582125
429,0.0119158020115735
430,0.0120704448460561
431,0.0127592336006216
432,0.0134909747622394
433,0.0143417720149827
434,0.015186688988145
435,0.0155987683389112
436,0.0156233702505995
437,0.0157034236317931
438,0.0157834770129867
439,0.0158635303941803
440,0.0159709360601583
441,0.0162192711766634
442,0.0167463857241544
443,0.0169491747652224
444,0.0172818316506446
445,0.0176144885360669
446,0.0179471454214892
447,0.0183806548546802
448,0.0185372745956721
449,0.0193298713957067
450,0.019291845343876
451,0.0192752955092724
452,0.0193303735446172
453,0.019385451579962
454,0.0194405296153069
455,0.0195406058493869
456,0.0195875114334114
457,0.0199560882494886
458,0.0201104584723793
459,0.0205799726497319
460,0.0206406059355282
461,0.0205262704517134
462,0.0211776323778327
463,0.0206510249895529
464,0.0205712533280452
465,0.0205616255722951
466,0.0203295657165049
467,0.0204023251829154
468,0.0202426206566206
469,0.0201612604436736
470,0.0206976315235844
471,0.020749907530127
472,0.020937528877432
473,0.0212766117136142
474,0.0214113609129663
475,0.0218020252994134
476,0.021457500225533
477,0.0215405702125259
478,0.0216236401995189
479,0.0217067101865118
480,0.0217798448524969
481,0.021402412009016
482,0.0211052953784224
483,0.0212067789369132
484,0.0208719063701838
485,0.0205175583839694
486,0.0207946518644195
487,0.0210458480135639
488,0.0212885165916103
489,0.0218137956609245
490,0.0220210903879418
491,0.0221782040360926
492,0.0227438221032992
493,0.0225262158811432
494,0.022819449724757
495,0.0225288996668614
496,0.022660856823603
497,0.0222799018346938
498,0.0223773540805621
499,0.0219234066549871
500,0.0220224053830212
501,0.0218279128363941
502,0.0221883354219156
503,0.0223292935802058
504,0.0221239309387812
505,0.0228344617629849
506,0.0227750447341213
507,0.0229005592501081
508,0.0230539078543281
509,0.0230910351124692
510,0.0227553413036781
511,0.0231589187523816
512,0.0229944170976294
513,0.0223921971681687
514,0.0222774251331699
515,0.0218886216937535
516,0.0217641241638126
517,0.0217508044936763
518,0.0216637828528794
519,0.0220816850635547
520,0.0225479816996733
521,0.0228139445304657
522,0.0230799073612582
523,0.0233458701920507
524,0.0232133022007769
525,0.0232694186997831
526,0.0234123614479828
527,0.0232515990578795
528,0.0234310098061251
529,0.023762410859114
530,0.0238052960465108
531,0.023875984746164
532,0.0238556096662215
533,0.0241158486571805
534,0.0242791920636604
535,0.0241412079638879
536,0.0245757039251562
537,0.0247015111753377
538,0.0249083562781285
539,0.0251483634382731
540,0.0256230316840911
541,0.0258782798390934
542,0.0260529296761219
543,0.0264235962681512
544,0.0267010603597551
545,0.0265720993243111
546,0.026762372392818
547,0.0263333679869329
548,0.0259043635810478
549,0.0254753591751628
550,0.0248269936961576
551,0.024720042258094
552,0.0246880554688588
553,0.0242755671885713
554,0.0240342178712171
555,0.0241956397038355
556,0.0238306628066227
557,0.0237074026782375
558,0.0235202921894293
559,0.0233331667634635
560,0.0236354937261771
561,0.0232432077094647
562,0.0236386446754491
563,0.0232458344980518
564,0.0233808505348249
565,0.023067389620633
566,0.0229730958328903
567,0.0227039118433389
568,0.0228468703265459
569,0.0226040106790436
570,0.0225853406405785
571,0.0226688713442797
572,0.0226835217482242
573,0.0227155183828982
574,0.0229783843317349
575,0.0227491020080052
576,0.0228897637455288
577,0.0230304254830524
578,0.023171087220576
579,0.0233117489580996
580,0.0234524106956232
581,0.0237746644298711
582,0.0236627688372152
583,0.0238174311342455
584,0.0234550417027275
585,0.0234210003615108
586,0.0227549357242142
587,0.0223656246945378
588,0.0220292459759711
589,0.0216928672574044
590,0.0213564885388377
591,0.0213799916932413
592,0.0215812799660005
593,0.0214896821238105
594,0.0217996892599502
595,0.0216746994177533
596,0.0218575937445361
597,0.021940079262986
598,0.0219885991727847
599,0.0220301494853523
600,0.0222239732337973
601,0.0222780750173741
602,0.0224299048509519
603,0.0223091179830219
604,0.0225473025547375
605,0.0225215456360832
606,0.0227392585520367
607,0.023241102440565
608,0.0236640410046924
609,0.0244028647711283
610,0.0247511721410511
611,0.0249468350944835
612,0.0245707540675936
613,0.0239216457862361
614,0.0229571747756481
615,0.0226920206316329
616,0.0220471633554889
617,0.0219311606017582
618,0.0217387301962896
619,0.0216854387439377
620,0.021570976469465
621,0.0216354129614995
622,0.021215832094673
623,0.0211308585609156
624,0.020985469328995
625,0.0208400800970744
626,0.0206946908651538
627,0.0206406180703153
628,0.0205682481187352
629,0.0204840406116802
630,0.0205950886087811
631,0.0202206842102095
632,0.0202077665880082
633,0.0202490031329006
634,0.0201055545951309
635,0.0201348618033476
636,0.0199386583613395
637,0.0200414559957245
638,0.0198668894177905
639,0.0199581576725949
640,0.0198222113725609
641,0.0196973657460329
642,0.0195296371716272
643,0.0193414635651623
644,0.0191532899586975
645,0.0189651163522326
646,0.0189418486876134
647,0.0188670607467612
648,0.0184305061312432
649,0.018779954595373
650,0.0185779248737581
651,0.0187271197184263
652,0.0184600065108685
653,0.0181051981075876
654,0.0177809159260448
655,0.0179120680862538
656,0.0176954796037334
657,0.0178466762846519
658,0.0180497620095248
659,0.0185180051211333
660,0.0187146783443788
661,0.0187950557447868
662,0.0188496788504939
663,0.0187073372655088
664,0.0185544536592388
665,0.0185922404390715
666,0.0185384606678547
667,0.0185693818955616
668,0.0184755474648323
669,0.0181728724001518
670,0.018184542647963
671,0.0181112391385097
672,0.0179732430850598
673,0.0180252302867846
674,0.0180461713633231
675,0.0179387800474747
676,0.0178588329319758
677,0.0179125512426252
678,0.0176995116821374
679,0.0176135909541528
680,0.0180169196290462
681,0.0175881920221147
682,0.0171821769310009
683,0.0168224744733501
684,0.0162499657375157
685,0.0157141779191492
686,0.0153613154621963
687,0.014966138760269
688,0.0147780653261493
689,0.014738063429904
690,0.0148569541190379
691,0.0150913426066647
692,0.0150034318020377
693,0.015037414814349
694,0.0152161034118605
695,0.0151807648788278
696,0.015427827657913
697,0.0154541439721571
698,0.0151796417456507
699,0.0151753562837194
700,0.0154187001646192
701,0.0152557303687065
702,0.0155105275450446
703,0.0155733618660881
704,0.0159612455138224
705,0.0159747388962603
706,0.0161678626145036
707,0.0164430091083082
708,0.016420710009014
709,0.0165762641648292
710,0.0163434968377697
711,0.0162118205744674
712,0.0161505569235887
713,0.0153230239426711
714,0.0148033489083954
715,0.0137976368887821
716,0.0129089396604851
717,0.0123299831963513
718,0.012088449729746
719,0.0120675022962188
720,0.0121890803482376
721,0.0120285897912147
722,0.0123791346913767
723,0.0121716059604029
724,0.0120744996047939
725,0.0120256418296781
726,0.0119385237768053
727,0.0120628450234816
728,0.0121874515457786
729,0.0124917041817091
730,0.0127955786352477
731,0.0132192896838901
732,0.0135822882702796
733,0.0141195532986883
734,0.0143630251826631
735,0.0144294089840973
736,0.0146018794378458
737,0.0147080760116668
738,0.0148142725854877
739,0.0149204691593087
740,0.0152244697459874
741,0.0152111470873556
742,0.0152954227825475
743,0.0153796984777395
744,0.0154639741729314
745,0.0154517787154494
746,0.015374707940257
747,0.0153869655031092
748,0.0151237450922598
749,0.01518543785825
750,0.0150548414974856
751,0.0149942001557027
752,0.0150917495811825
753,0.0148025549403478
754,0.0146801594243181
755,0.0137129032273816
756,0.0127456470304451
757,0.0117783908335087
758,0.0102108728609167
759,0.00883857069154989
760,0.00786075354586778
761,0.00756609035025236
762,0.00789433716284322
763,0.00841360987117047
764,0.0092976944505054
765,0.0100609078354166
766,0.0111222445479583
767,0.0119720200202751
768,0.0125037720918937
769,0.0129331797784423
770,0.0131621339878231
771,0.0132112752589166
772,0.0133864271506913
773,0.013514817157977
774,0.0133943506918118
775,0.0133709394445489
776,0.0133811444164853
777,0.0131785550850561
778,0.0132443130267894
779,0.0130750344243089
780,0.0131592268634964
