"wavelength","measurement"
380,0.0112074990249118
381,0.0107499651340025
382,0.0120708670568846
383,0.0119328878230232
384,0.0122886891354968
385,0.0132674609846665
386,0.0146009673223871
387,0.0151630967807873
388,0.016709310191241
389,0.0183894093520959
390,0.0185050638680476
391,0.0192174959055145
392,0.0205993604677979
393,0.0211529667198128
394,0.0229186008160974
395,0.0258113643525195
396,0.0299829803562082
397,0.034889220694283
398,0.0397954610323578
399,0.0447017013704325
400,0.0489517084720207
401,0.0533133766510177
402,0.057188247228116
403,0.0602452964484817
404,0.0629580382298712
405,0.0656417658324127
406,0.0680670321583764
407,0.0704617226801398
408,0.0732789329318776
409,0.0764792411470925
410,0.0818279700768999
411,0.0837239865771483
412,0.087330455983054
413,0.0907914563386531
414,0.0919502622241982
415,0.0939450183312224
416,0.0950305637112971
417,0.0946420708601695
418,0.0968313371883652
419,0.0958970635575001
420,0.098235381716165
421,0.0982684998804697
422,0.0995642535872286
423,0.100022270242897
424,0.100779921017448
425,0.0995044093494642
426,0.0986530377059662
427,0.0956806947853135
428,0.0931989790733107
429,0.0935762439256943
430,0.0930427382892855
431,0.0970643528245827
432,0.100390892739483
433,0.104098910659914
434,0.108356678786833
435,0.110555920598544
436,0.112096375993172
437,0.114011230719535
438,0.115926085445899
439,0.117840940172262
440,0.11907358063164
441,0.1210750069703
442,0.124342136190833
443,0.125220719864699
444,0.127402553257688
445,0.129584386650677
446,0.131766220043666
447,0.133499967778269
448,0.134105798984061
449,0.138866090166831
450,0.138585548667216
451,0.137297176294604
452,0.137046216840364
453,0.136795257386125
454,0.136544297931885
455,0.136957603050456
456,0.137239203709447
457,0.138680845653648
458,0.139577190608342
459,0.141557134948081
460,0.141626959782078
461,0.141016686454649
462,0.145173200379564
463,0.141744219653171
464,0.140425011497567
465,0.140059835203122
466,0.138444094362513
467,0.139198837365866
468,0.138166400191485
469,0.138065921117206
470,0.141030224216974
471,0.142349759461008
472,0.14310778840189
473,0.145794195518246
474,0.147274974814527
475,0.150149392867577
476,0.148254705673822
477,0.149016357388345
478,0.149778009102868
479,0.150539660817391
480,0.150537759464436
481,0.147859761131302
482,0.145356026822607
483,0.144410046336516
484,0.141856640955218
485,0.139079017025983
486,0.140040730009799
487,0.14167391374281
488,0.142830007936175
489,0.146726803917168
490,0.148066279410184
491,0.149744399286066
492,0.152853128221027
493,0.151394658238354
494,0.153700543319898
495,0.151791444952142
496,0.152602112067163
497,0.15049109405809
498,0.150468352052509
499,0.147129362604058
500,0.147766584032826
501,0.14661986680797
502,0.148596073465453
503,0.149332362623563
504,0.147318808449401
505,0.152553682843351
506,0.151542690505533
507,0.152036674030952
508,0.152819351846964
509,0.152805672685155
510,0.15053702383799
511,0.152655094849344
512,0.151467236284353
513,0.146676259937901
514,0.145274348153942
515,0.142899312611501
516,0.141318984951933
517,0.140728730714474
518,0.140243077445424
519,0.14268474735925
520,0.145084773363753
521,0.146419388455746
522,0.14775400354774
523,0.149088618639733
524,0.148172121646368
525,0.148072484452481
526,0.148614811344713
527,0.146930933763924
528,0.147839093946665
529,0.149588135033621
530,0.149485685344759
531,0.149522890159579
532,0.149068900288674
533,0.150070408736712
534,0.1500772115017
535,0.148665678648675
536,0.149664023307346
537,0.148566706291364
538,0.147661464709726
539,0.14636724773141
540,0.147028247997079
541,0.146243014542577
542,0.144980186744775
543,0.145758750101459
544,0.146916074685211
545,0.146095950517098
546,0.147048185526969
547,0.147013382655127
548,0.146978579783285
549,0.146943776911444
550,0.145807592460733
551,0.146872392017728
552,0.148275590261329
553,0.14659219310577
554,0.146179444737951
555,0.147114576441258
556,0.145266471885964
557,0.144506479358371
558,0.143803320424533
559,0.142199841566802
560,0.143820414206693
561,0.141617209074668
562,0.143426603630161
563,0.141355931040148
564,0.141835491272258
565,0.140034061118832
566,0.13885960224748
567,0.137392395464991
568,0.138247056248414
569,0.136777439218982
570,0.136747052187061
571,0.137032276121564
572,0.137305293998154
573,0.137486016967136
574,0.138889440192968
575,0.137160626804847
576,0.137989917762242
577,0.138819208719637
578,0.139648499677031
579,0.140477790634426
580,0.141307081591821
581,0.143384665057391
582,0.142753548777924
583,0.143908175994289
584,0.141808625169634
585,0.141278438724934
586,0.137392692172382
587,0.13529680807222
588,0.133849359849515
589,0.132401911626809
590,0.130954463404104
591,0.131463982803177
592,0.133920237898805
593,0.134149586701105
594,0.136673337542623
595,0.137074147762627
596,0.13884385635361
597,0.140191130558813
598,0.140541685765052
599,0.141824576439209
600,0.143202046201668
601,0.144430119879597
602,0.14577640276281
603,0.145516707547019
604,0.147374558112595
605,0.146854425241998
606,0.147199555249211
607,0.146843981622051
608,0.145224412407005
609,0.145277296427025
610,0.144701730389734
611,0.143796391610468
612,0.143027770188427
613,0.142679953279528
614,0.141264394939387
615,0.143492062368298
616,0.14174910279208
617,0.143222490902298
618,0.142937870092454
619,0.143969823314308
620,0.143592870674241
621,0.145114318167272
622,0.14236768712964
623,0.142011407551761
624,0.141141339238132
625,0.140271270924502
626,0.139401202610873
627,0.139602974615745
628,0.139313907811022
629,0.138967646589573
630,0.140739886552608
631,0.138852005851886
632,0.139988386041483
633,0.141015272720602
634,0.141375618946284
635,0.142412067297347
636,0.141196728319173
637,0.142680399172629
638,0.142296409990438
639,0.142712427915113
640,0.142733486171006
641,0.141653601925161
642,0.141589225473134
643,0.140317077093659
644,0.139044928714184
645,0.13777278033471
646,0.138251970565653
647,0.137720475296837
648,0.135444121751321
649,0.137979288738441
650,0.136793895970504
651,0.138256480512815
652,0.136808344338127
653,0.135053951909751
654,0.132790224283616
655,0.135125120118107
656,0.133829466423351
657,0.135674206099687
658,0.137254259598337
659,0.141514563416996
660,0.142518380621197
661,0.143975377687827
662,0.144712003344863
663,0.144713902039084
664,0.144027343374079
665,0.144364004543451
666,0.144933294213426
667,0.145627637426006
668,0.145378991427099
669,0.142876971537803
670,0.144217279239231
671,0.144437309777394
672,0.143538041489029
673,0.144216817607291
674,0.144458743556659
675,0.144240913773781
676,0.144537608329993
677,0.145716059774535
678,0.144089710619985
679,0.144105552029929
680,0.147116787501471
681,0.144496368109453
682,0.141579628712735
683,0.13921850684948
684,0.134474517835217
685,0.130672808368235
686,0.127572796074822
687,0.1245712128452
688,0.123741754909735
689,0.12387542403611
690,0.125408105207315
691,0.127354327533031
692,0.127360566523795
693,0.128924205311058
694,0.130841253941444
695,0.131424623308002
696,0.13350643424895
697,0.135069639585562
698,0.133807796878259
699,0.133998119650026
700,0.136522831388428
701,0.13633389297484
702,0.139298463610584
703,0.140419051088903
704,0.14312123432856
705,0.143929116207376
706,0.146803621378854
707,0.149328964828416
708,0.150425479792308
709,0.152866723882808
710,0.15240088873
711,0.152370879307476
712,0.153554891639107
713,0.147009981225724
714,0.142987380588717
715,0.134348117251719
716,0.12726820065167
717,0.121839843565544
718,0.120838361402874
719,0.122447726823449
720,0.123722033066666
721,0.12393671922365
722,0.127760285215584
723,0.127397159188653
724,0.127176121732823
725,0.128262967321532
726,0.127782739173186
727,0.130680134975806
728,0.13322149403986
729,0.137858894615312
730,0.142804677649297
731,0.148679574982254
732,0.154886721203051
733,0.161807129973541
734,0.166504449158142
735,0.168073136593465
736,0.172457869521553
737,0.175285455797324
738,0.178113042073094
739,0.180940628348865
740,0.185528976326135
741,0.187645128134891
742,0.190146391372774
743,0.192647654610658
744,0.195148917848541
745,0.196456501578417
746,0.198027833166555
747,0.199162387051355
748,0.197416793305539
749,0.199542727199856
750,0.199981617944642
751,0.199401331119086
752,0.203712602406545
753,0.202692766481985
754,0.200453234751337
755,0.187619162394322
756,0.174785090037306
757,0.161951017680291
758,0.140994075339484
759,0.12237035040736
760,0.109400434066827
761,0.106835077193047
762,0.110870733157925
763,0.120069881560337
764,0.13314692619931
765,0.145772002022337
766,0.161302952395967
767,0.1767400806494
768,0.18512887056002
769,0.192690261631608
770,0.198111859527686
771,0.200360732668874
772,0.203180632960287
773,0.205621193320099
774,0.205397388060647
775,0.205589469945847
776,0.206611773829941
777,0.204694491364262
778,0.207852064253606
779,0.204669073176206
780,0.2082727520458
