"wavelength","measurement"
380,0.00413521048119564
381,0.00437964640048861
382,0.00449763802038677
383,0.00448279570993841
384,0.00452783766020056
385,0.00478802670651242
386,0.00508454703898705
387,0.0054994425695676
388,0.00599862497234937
389,0.00588690166790678
390,0.00617775618788758
391,0.00628236310816174
392,0.00653405665901643
393,0.00691440880359297
394,0.00703064863578194
395,0.00763191368786754
396,0.00839206387225811
397,0.00952835176920561
398,0.0106646396661531
399,0.0118009275631006
400,0.0126262695399056
401,0.0135567266722774
402,0.014537634518882
403,0.0150180973038565
404,0.0153300272424014
405,0.0155415461841792
406,0.0164070773305011
407,0.0167573050607865
408,0.0171393798447876
409,0.0177121689776362
410,0.0187727761383417
411,0.0192142053045286
412,0.020015442061609
413,0.0208070792470347
414,0.0210200943318538
415,0.0215723034415968
416,0.0216536387954972
417,0.0218517132531308
418,0.0221712606019093
419,0.0220867547445481
420,0.0226463152058855
421,0.0226070935876016
422,0.0230508421130489
423,0.0232155375504546
424,0.0234357539455873
425,0.0233545378433539
426,0.0232264125686951
427,0.0227627503912136
428,0.0221075118730544
429,0.0221829297405895
430,0.0225265520726003
431,0.0234299230421396
432,0.024692334070195
433,0.0262042878246706
434,0.0275806194541128
435,0.0282857238205645
436,0.0285319298639848
437,0.0287661326596059
438,0.029000335455227
439,0.0292345382508481
440,0.0294840493310497
441,0.0299728647006717
442,0.0309509869723501
443,0.0313491145266676
444,0.0320268420974796
445,0.0327045696682917
446,0.0333822972391038
447,0.0342264935563563
448,0.0344174419150465
449,0.0359602294281314
450,0.0358454610788236
451,0.0358885499162633
452,0.0359567772570437
453,0.036025004597824
454,0.0360932319386044
455,0.0363616026022543
456,0.0362881163418824
457,0.0368097953380499
458,0.0371102353660909
459,0.0379290268067306
460,0.0381820369662403
461,0.0379063644588905
462,0.039147067155605
463,0.0380709304331297
464,0.0379524610641417
465,0.0378632985993129
466,0.0374576899064816
467,0.0375587047761963
468,0.0373991141670725
469,0.0371894017165011
470,0.0379671088814161
471,0.0379699394725925
472,0.0384364557327524
473,0.0389915550282266
474,0.0392052526627701
475,0.0399725675496813
476,0.0393864505504314
477,0.0394879164878596
478,0.0395893824252878
479,0.0396908483627159
480,0.0398061458508248
481,0.0390885626067686
482,0.0387004739330677
483,0.0387467217883866
484,0.0378977869862349
485,0.0373032636127886
486,0.0376535854652142
487,0.0382638504301277
488,0.0385223238088882
489,0.0397741600872631
490,0.0399879250343978
491,0.0404755690222997
492,0.0412687650383432
493,0.0409926877621318
494,0.0416036496021879
495,0.0412112779287786
496,0.0415067732146544
497,0.0408402967524166
498,0.0410345415064799
499,0.0402118952352213
500,0.0404494202468615
501,0.04014674543504
502,0.040699940514248
503,0.0410286757953635
504,0.040512652454465
505,0.0419628005216379
506,0.041888012881585
507,0.042044372265699
508,0.042494198052657
509,0.0425121029611072
510,0.0419431932681172
511,0.0426678207198546
512,0.0423310409965347
513,0.0413590815223047
514,0.0410528947404553
515,0.0405381604708921
516,0.0402853019982398
517,0.0402400129242351
518,0.0401168950479296
519,0.0409913247810357
520,0.0417333541261113
521,0.042249425087262
522,0.0427654960484127
523,0.0432815670095633
524,0.0431461258505187
525,0.0431426679367605
526,0.043397102940217
527,0.0431319101383214
528,0.0433732153775884
529,0.0439710364309341
530,0.0441315967664888
531,0.0443003855198866
532,0.044181592838168
533,0.0447358880667508
534,0.0450439399746734
535,0.0446218410007561
536,0.0452816660364305
537,0.0452680101304779
538,0.0454284201276738
539,0.0456979796398756
540,0.0462275552669199
541,0.0463913693819389
542,0.0463681975635578
543,0.0469948783738992
544,0.0474966529802526
545,0.0472645698582427
546,0.0475584516396294
547,0.0470992895946221
548,0.0466401275496147
549,0.0461809655046074
550,0.0452209946527262
551,0.0453234811240835
552,0.0452554223317129
553,0.0446449768841852
554,0.0444935621117781
555,0.0448035530890434
556,0.0441301303997463
557,0.0439455562047315
558,0.0437140214629826
559,0.0432077417470534
560,0.0437042549901866
561,0.0431184346290347
562,0.0438377143909265
563,0.0431839786408318
564,0.0433402172276628
565,0.042851073714785
566,0.0425545413763035
567,0.0419984843697796
568,0.0423237588961853
569,0.041781584944446
570,0.0417469285128671
571,0.041834213511808
572,0.0419021797277564
573,0.0419341627544354
574,0.0422700811065971
575,0.0417928121138653
576,0.0420316366413882
577,0.042270461168911
578,0.0425092856964339
579,0.0427481102239568
580,0.0429869347514797
581,0.0435738037874666
582,0.043401237497208
583,0.0436144060215399
584,0.0430090449214974
585,0.0428973787191633
586,0.0413743039700888
587,0.0406620510045857
588,0.0400297938075038
589,0.0393975366104219
590,0.0387652794133399
591,0.0388608802878748
592,0.0392206899416356
593,0.03919793084096
594,0.0397760250383559
595,0.0395530498722163
596,0.0399544007502066
597,0.0401376495631754
598,0.0403354899012205
599,0.0405035209942615
600,0.0408582863323875
601,0.0410542345498495
602,0.0413855366564163
603,0.0410984772637354
604,0.041530684664588
605,0.0411778303607414
606,0.0417355951599609
607,0.0420777213437346
608,0.0424317196780103
609,0.0432971119341243
610,0.0434256494359697
611,0.0436226501047466
612,0.0429476903259267
613,0.0422533295823692
614,0.0410082286408227
615,0.0408863334758489
616,0.0399371932667916
617,0.0399141530911689
618,0.0396167508826919
619,0.0396287300844641
620,0.0393553969228358
621,0.0395548077095251
622,0.0388186536257226
623,0.0385903520964781
624,0.0382641114263499
625,0.0379378707562217
626,0.0376116300860935
627,0.0375350559053392
628,0.0374244893527191
629,0.0371948169960831
630,0.0374313874462517
631,0.0368234574885251
632,0.0369034495423365
633,0.0370444948684281
634,0.0368624952490452
635,0.0368532061674682
636,0.0364517112827421
637,0.036895280383743
638,0.0365816495038695
639,0.0367252053962211
640,0.0364564967432746
641,0.03621143662783
642,0.0359385289470786
643,0.0355009713691546
644,0.0350634137912307
645,0.0346258562133067
646,0.034433415978759
647,0.0344963826539615
648,0.0336989213974816
649,0.0342105417255637
650,0.0338975557889392
651,0.0341260430183282
652,0.0336234539931932
653,0.0331405111007698
654,0.0323208216897944
655,0.0326626457637887
656,0.0323647884467113
657,0.0326985199023346
658,0.0329239731295932
659,0.0337888252894361
660,0.0339928901811446
661,0.0342619608736039
662,0.0344103512935064
663,0.0341557884009695
664,0.0338728018682578
665,0.0338951641187534
666,0.0338450394884938
667,0.0338094144131525
668,0.033881686914121
669,0.0333175497217152
670,0.0331494182536172
671,0.0330909650442449
672,0.0328135222692997
673,0.0328629626144556
674,0.032892794228619
675,0.0326788656213502
676,0.0326190609463994
677,0.0326019566253151
678,0.0322450491585454
679,0.032000001548834
680,0.0327149174888329
681,0.0321189091024824
682,0.0312685257710136
683,0.0305479734879247
684,0.0294478667653802
685,0.0283868999684461
686,0.0276689598706305
687,0.0270028488063188
688,0.0266387916498998
689,0.026540139574967
690,0.0266243661008008
691,0.0271745294101012
692,0.0269898460928572
693,0.0270895625075575
694,0.0273066690990852
695,0.0274416046773476
696,0.0277269615756864
697,0.0277940204596619
698,0.0272670563168749
699,0.027135800529022
700,0.0276136206724573
701,0.0274430909494169
702,0.0278966175603468
703,0.0279270208268426
704,0.0284425741951176
705,0.028545157814685
706,0.0288801504558741
707,0.0292034196339919
708,0.0293163665301122
709,0.0296173721834042
710,0.0291723368858497
711,0.0289096442167049
712,0.0287915191121009
713,0.0272937534184506
714,0.0263102698621943
715,0.0245502726885259
716,0.0230747549689431
717,0.0216707508656049
718,0.0212641882446216
719,0.0213695148811975
720,0.0215826754143208
721,0.0211830641069965
722,0.0218571489391381
723,0.0214760393101404
724,0.0212419042948659
725,0.0212542596377387
726,0.0209532987523613
727,0.0213126794301207
728,0.0214547166035613
729,0.0219993799933463
730,0.0226191890059021
731,0.0234619273584172
732,0.0242386988246089
733,0.0250854250237489
734,0.0255945240044427
735,0.0259328752302013
736,0.0261377499043222
737,0.0263067502638142
738,0.0264757506233061
739,0.026644750982798
740,0.0274493265864348
741,0.0273083351994657
742,0.0275123874362403
743,0.0277164396730149
744,0.0279204919097895
745,0.0278054852337702
746,0.0276372543916538
747,0.0276529214354182
748,0.0272224778720163
749,0.0272814147931861
750,0.0272993035342776
751,0.0268680556566471
752,0.0272997413048324
753,0.0267987440401877
754,0.0265491079394922
755,0.024717331036162
756,0.0228855541328318
757,0.0210537772295016
758,0.0182019223000784
759,0.0157062860971391
760,0.0138249261110647
761,0.0133301522646082
762,0.0137767485423866
763,0.0147306717343338
764,0.0163255383773954
765,0.0177169050454063
766,0.0196908660216833
767,0.0212291508327372
768,0.0225674313706456
769,0.0231234873930579
770,0.0237060191685057
771,0.024028647668877
772,0.0240668642292369
773,0.0242129211716529
774,0.0241378044654162
775,0.0241011811408085
776,0.0240184679158224
777,0.0237681151010294
778,0.02404802188348
779,0.0235745710981855
780,0.0237287213854779
