"wavelength","measurement"
380,0.0116166573425329
381,0.012325842078094
382,0.0127920565845201
383,0.0127485064830542
384,0.01345549855921
385,0.0146470602321362
386,0.0151116628994026
387,0.0168748063999401
388,0.0178678830079389
389,0.0201551303596133
390,0.0204438703621975
391,0.021372503605539
392,0.0229606076190707
393,0.0246058042647492
394,0.0259901418258832
395,0.0290797537844527
396,0.0330459085989733
397,0.0389343329769509
398,0.0448227573549285
399,0.0507111817329061
400,0.0544721808274465
401,0.0606496641498552
402,0.0651333691522801
403,0.0682437552672076
404,0.0710435586333002
405,0.0736464507477801
406,0.0770883867711551
407,0.0801450540472869
408,0.0836771369327761
409,0.0869979201180031
410,0.0930990728269307
411,0.0954352743597302
412,0.0997426984791866
413,0.103110372240337
414,0.104858361433684
415,0.106823699234078
416,0.106778481695786
417,0.107404531292384
418,0.109243579684498
419,0.108481561394046
420,0.111375454909684
421,0.111535585445474
422,0.11211496187846
423,0.113018209299166
424,0.114446721986834
425,0.111724680532485
426,0.111012254612369
427,0.108495402545178
428,0.105082522196306
429,0.105293083311115
430,0.105642282526049
431,0.109743176025247
432,0.113544611461474
433,0.117539626495008
434,0.122149428502862
435,0.125228599364496
436,0.126898142496157
437,0.128993208130865
438,0.131088273765573
439,0.133183339400281
440,0.134090562541866
441,0.136704740558321
442,0.140128663645943
443,0.141097266300416
444,0.143682377808643
445,0.146267489316869
446,0.148852600825096
447,0.150951911229795
448,0.151680565162875
449,0.157840897943753
450,0.156563402719425
451,0.15541024041221
452,0.155374721196478
453,0.155339201980745
454,0.155303682765013
455,0.154753603196596
456,0.155330165183976
457,0.156030849743705
458,0.157602674299858
459,0.160155730835444
460,0.16070190394665
461,0.159589547809227
462,0.164059026858653
463,0.160370210365756
464,0.158852895597641
465,0.15843003711202
466,0.156787731592407
467,0.156875568848217
468,0.156986333814451
469,0.155862180684039
470,0.15990276835656
471,0.160689349728086
472,0.1625719933169
473,0.165353581885663
474,0.166979429233689
475,0.170096249982647
476,0.167191897450202
477,0.168291531091435
478,0.169391164732669
479,0.170490798373902
480,0.170671658899443
481,0.167480889623747
482,0.165702910646891
483,0.165072385723967
484,0.16065514642891
485,0.157912129220173
486,0.159487942869392
487,0.16091587294979
488,0.161979872797
489,0.167206770557163
490,0.168028701766857
491,0.169485380138858
492,0.17331042149242
493,0.171888244464752
494,0.174599266843169
495,0.172006127991072
496,0.17339104875299
497,0.170113675306417
498,0.171238817984967
499,0.166955459386353
500,0.16764495408484
501,0.166192794935582
502,0.168806826280878
503,0.169454899432199
504,0.167032705781803
505,0.172653805704078
506,0.171565298463075
507,0.172507197757707
508,0.173060392028342
509,0.173396256308813
510,0.169857379978513
511,0.172002690162673
512,0.171079440704944
513,0.165905403762627
514,0.164260985514483
515,0.161063638258122
516,0.159955560028808
517,0.159132294124543
518,0.158038973823286
519,0.160434311201273
520,0.16345814020511
521,0.164888818779868
522,0.166319497354625
523,0.167750175929382
524,0.16642828221845
525,0.166238989232927
526,0.166826144020976
527,0.165504158307472
528,0.166111131065183
529,0.167883520014544
530,0.167259946036792
531,0.167756636783752
532,0.166865574928617
533,0.168102429829701
534,0.168064404698871
535,0.166036488278342
536,0.167475536810951
537,0.166257187070466
538,0.164819964443919
539,0.16358204175607
540,0.16460036808482
541,0.163155790995987
542,0.161981062465662
543,0.162837970871751
544,0.163972673971039
545,0.162909589352528
546,0.164345215911434
547,0.164207907276276
548,0.164070598641118
549,0.16393329000596
550,0.16260586062008
551,0.163384000310874
552,0.165115936457143
553,0.163390461265116
554,0.162943313713353
555,0.1642094921635
556,0.161943071740109
557,0.161453719850899
558,0.160136862353733
559,0.158919245835356
560,0.160182596180444
561,0.157363007480914
562,0.160313541782509
563,0.157471559586897
564,0.158326553446487
565,0.156037619926035
566,0.155305421452781
567,0.152858019522372
568,0.154308310217827
569,0.15240888498358
570,0.152649748228672
571,0.153043306244736
572,0.153301303663179
573,0.153412994785649
574,0.154922417306801
575,0.153332290221369
576,0.154219421616563
577,0.155106553011757
578,0.155993684406951
579,0.156880815802145
580,0.157767947197339
581,0.1602511608591
582,0.160105057508002
583,0.161475107668162
584,0.159106797005151
585,0.158257004266189
586,0.153979013625225
587,0.151644670023695
588,0.149925322972244
589,0.148205975920792
590,0.146486628869341
591,0.147826164776928
592,0.149829211921196
593,0.150703324914858
594,0.15352893767521
595,0.154351565942672
596,0.156178865927588
597,0.157172809148389
598,0.158130097472338
599,0.159263250522268
600,0.161364815324128
601,0.162409426687689
602,0.16405383583175
603,0.163853651723024
604,0.165688621383443
605,0.165060569504394
606,0.165873694442489
607,0.165649387686188
608,0.163384898627363
609,0.164026148780001
610,0.16274018511592
611,0.162343284953636
612,0.160961730259314
613,0.160763650974641
614,0.159198147473719
615,0.162040330641142
616,0.159757049644723
617,0.161499003027777
618,0.161649365865581
619,0.162116949368957
620,0.162072703768168
621,0.163225838731752
622,0.160589604170194
623,0.160266841745901
624,0.159373702285273
625,0.158480562824645
626,0.157587423364016
627,0.157632583096286
628,0.157079970809145
629,0.156975463731869
630,0.158315534761778
631,0.156688942583443
632,0.158315316578723
633,0.15933992035574
634,0.159620157471302
635,0.160716791423233
636,0.159784324769135
637,0.161353811987967
638,0.160845871598471
639,0.161479751021459
640,0.161275528347209
641,0.160655856411445
642,0.159743939583064
643,0.158556816335849
644,0.157369693088635
645,0.15618256984142
646,0.156099076588391
647,0.156134311766364
648,0.153368327604136
649,0.156165717028138
650,0.154896894565206
651,0.156599028175798
652,0.155158985926743
653,0.152767975116778
654,0.150686724006377
655,0.152419608179778
656,0.151097545458434
657,0.153277975512022
658,0.155643243565437
659,0.160242817766916
660,0.161685419131925
661,0.162901725679223
662,0.163888381000553
663,0.163852923114925
664,0.163069859951978
665,0.163731730902588
666,0.164193724173775
667,0.16446884354583
668,0.165207033864594
669,0.162636267491549
670,0.163508632146233
671,0.163314212184629
672,0.162768586185499
673,0.163560365957803
674,0.164037742128496
675,0.163955848788957
676,0.164002202376044
677,0.165118185317616
678,0.162861703298812
679,0.163120310593634
680,0.166623667120544
681,0.16402036949429
682,0.160652964469008
683,0.1575148257449
684,0.152293139465821
685,0.147911313444271
686,0.144441756373118
687,0.140875025162937
688,0.13964351703685
689,0.139902642010551
690,0.141383023969967
691,0.143763101463315
692,0.143409368299925
693,0.145467981770185
694,0.14717925790657
695,0.147623058940082
696,0.150330125636249
697,0.151666856707528
698,0.149537511201515
699,0.14982057687117
700,0.152771750287443
701,0.152141641042669
702,0.155336693993459
703,0.156247137739094
704,0.159245735063023
705,0.160168851613845
706,0.163583989510356
707,0.165828120928279
708,0.166681403050045
709,0.169373662603473
710,0.168784083779915
711,0.168781676719169
712,0.168854901525825
713,0.161922572248927
714,0.157220860120754
715,0.147597717861989
716,0.139622488564899
717,0.13402063091903
718,0.132348338727382
719,0.1334847802239
720,0.135750851777962
721,0.135374058754008
722,0.139770425636956
723,0.138532221727068
724,0.138839611252647
725,0.139235217432773
726,0.139178260087768
727,0.142026936684169
728,0.144612085961268
729,0.149656932677765
730,0.154522502833352
731,0.161435653665411
732,0.167992965938152
733,0.175023887924028
734,0.180215351645405
735,0.181954219055595
736,0.186035429772412
737,0.189061974425303
738,0.192088519078194
739,0.195115063731085
740,0.200253694883183
741,0.202642653493112
742,0.205213060993141
743,0.20778346849317
744,0.2103538759932
745,0.212317845961502
746,0.212978247726855
747,0.214574985519006
748,0.213345638953044
749,0.214901158626726
750,0.21678689046271
751,0.215714742002479
752,0.219900453674335
753,0.218100280304045
754,0.216347006721096
755,0.202536699705412
756,0.188726392689729
757,0.174916085674046
758,0.152034189904117
759,0.131504942152806
760,0.117754454887919
761,0.114865704177754
762,0.119262888820946
763,0.129449366440347
764,0.143793032614815
765,0.157679308080847
766,0.174558934755295
767,0.190662929843167
768,0.200304981123573
769,0.207027405672724
770,0.214139596343514
771,0.216417317065807
772,0.21962562201937
773,0.222560534452513
774,0.221600700801763
775,0.222697382644828
776,0.223440861167662
777,0.221325121871536
778,0.224640889499713
779,0.221828973782143
780,0.224948158564754
