"wavelength","measurement"
380,0.000731977487772846
381,0.000702586675942195
382,0.000773898450545727
383,0.000725033292763802
384,0.000785300959805653
385,0.000877268454134054
386,0.000866571925351028
387,0.000970148734896793
388,0.00105212671113355
389,0.00111040401390242
390,0.00115227688690138
391,0.00121313532954699
392,0.00124132297398408
393,0.00130019617223343
394,0.00145613508055639
395,0.00155978085154552
396,0.00178364130739715
397,0.00207681448369256
398,0.00236998765998797
399,0.00266316083628338
400,0.00292729361820403
401,0.00330650552094077
402,0.00358400929953034
403,0.00370814135958916
404,0.00399387214092864
405,0.00414037229844422
406,0.00438021826036505
407,0.00454760090718194
408,0.00471549638247136
409,0.00496976078817142
410,0.00532729932106481
411,0.00552883496857222
412,0.00583187850882069
413,0.0061459216500299
414,0.00622721102768286
415,0.00643744480904215
416,0.00650863716274517
417,0.00660481574238408
418,0.00677029996330438
419,0.0067267906432527
420,0.00701029860907061
421,0.0070647588464782
422,0.00725861272111077
423,0.00734415746643258
424,0.00746985879943623
425,0.00742555344640107
426,0.00738085083473912
427,0.00727088659851124
428,0.00706019068130869
429,0.00715965739993341
430,0.00725155902815732
431,0.00773583355698766
432,0.00825733195413322
433,0.00893646669661152
434,0.00956246811899971
435,0.00983165043464825
436,0.0098602870161565
437,0.00979781742455098
438,0.00973534783294546
439,0.00967287824133994
440,0.00966523117091139
441,0.00984267296240518
442,0.0101231055470205
443,0.0102201131672095
444,0.0104547630343791
445,0.0106894129015487
446,0.0109240627687183
447,0.0111450709164366
448,0.0112660944693303
449,0.0117425035942274
450,0.0117780514779622
451,0.0117500838931469
452,0.0117913150324671
453,0.0118325461717873
454,0.0118737773111075
455,0.0119110001428095
456,0.0119152387890843
457,0.0121932648873396
458,0.0122850937264317
459,0.0125525889199235
460,0.0126089485873011
461,0.012528572466071
462,0.0129281732388818
463,0.0126062834579515
464,0.0125705914541148
465,0.0125631479313982
466,0.0124143889133647
467,0.0124443793956222
468,0.0123863744877419
469,0.0122896414363395
470,0.0126467802689535
471,0.0126854979976236
472,0.0128044031143355
473,0.0130176369703883
474,0.0131048579194983
475,0.0133735501214862
476,0.0130843405277224
477,0.0131658170144204
478,0.0132472935011183
479,0.0133287699878163
480,0.0133792240399156
481,0.0131577895384743
482,0.0130795347658419
483,0.0131658397547521
484,0.0129961828947488
485,0.012846523880302
486,0.0130244350719475
487,0.0131970152775883
488,0.0133190395828512
489,0.0136803598329303
490,0.0137982470523113
491,0.0138739092714127
492,0.0142193297839894
493,0.0140525684566694
494,0.0142596562860613
495,0.0140777981315891
496,0.0141257240903258
497,0.0139240571894285
498,0.0139585168692741
499,0.013693466908563
500,0.0137516809837024
501,0.0135897583332593
502,0.013831032099924
503,0.0139314530577066
504,0.013799670671237
505,0.0142446353530344
506,0.0142395248166216
507,0.0143463550667829
508,0.0144559978617361
509,0.0145372016958596
510,0.0143221450095557
511,0.0146100030986062
512,0.014560456491035
513,0.0141653865290395
514,0.0141457661634297
515,0.0139415057207796
516,0.013910315192612
517,0.0139163931038568
518,0.0139095807636883
519,0.0142142353616592
520,0.0145444758673292
521,0.014752556172089
522,0.0149606364768489
523,0.0151687167816088
524,0.0151153527471379
525,0.0151994832402185
526,0.0152910325078635
527,0.0152176710577892
528,0.0153773461201159
529,0.015643677487984
530,0.0156676013233422
531,0.0157528469468725
532,0.0157635639690117
533,0.015988623702725
534,0.0161541766058308
535,0.0161016752486979
536,0.0164680270218365
537,0.016671812546547
538,0.0169205973805438
539,0.0172555348104397
540,0.017658733422229
541,0.017916160429896
542,0.0181356525501384
543,0.0185134373459697
544,0.0187242633391428
545,0.0186630028669731
546,0.0187738838881785
547,0.0183733356963657
548,0.0179727875045528
549,0.0175722393127399
550,0.0170441878081108
551,0.0168461289520298
552,0.0167627414432521
553,0.0164418045063675
554,0.0162484054027437
555,0.0163335086917402
556,0.0160399201085907
557,0.0159716503333426
558,0.0158178476146468
559,0.015686058284758
560,0.015853065609224
561,0.0155982842921183
562,0.0158677014989308
563,0.0156118926546871
564,0.0156993093503161
565,0.0154538840730417
566,0.0153987163829627
567,0.0152234963316659
568,0.0152956946059434
569,0.015089848075595
570,0.0150892011851346
571,0.0151407952113598
572,0.015130749077627
573,0.0151719634759184
574,0.0152964239203601
575,0.0151897603641553
576,0.0152983436575989
577,0.0154069269510425
578,0.0155155102444861
579,0.0156240935379297
580,0.0157326768313732
581,0.0159481948459064
582,0.0158745623353908
583,0.0160008673193981
584,0.0157653657856194
585,0.0157508685893827
586,0.0152731580667484
587,0.0150431405049536
588,0.0148014333042315
589,0.0145597261035095
590,0.0143180189027874
591,0.0143377201201247
592,0.0144198559203406
593,0.0143670590969026
594,0.0145497801064891
595,0.0144350076191242
596,0.0145287985423379
597,0.0145803113462573
598,0.0146100909515001
599,0.0146396379524743
600,0.0147541134514033
601,0.014778968698949
602,0.0148491691837854
603,0.0148052662725189
604,0.0149511269077807
605,0.0149235027141806
606,0.0151735938288518
607,0.0156496817201853
608,0.0161572985700741
609,0.0168555069214028
610,0.0172506761377552
611,0.0174395591301851
612,0.0171755129650491
613,0.0165538918798571
614,0.0157461708760779
615,0.0153831421332557
616,0.014846355305526
617,0.014707895552845
618,0.0144905690773758
619,0.014448906241347
620,0.0143144284063249
621,0.0144018449365981
622,0.0141019346802587
623,0.0140660374356154
624,0.0139634482462139
625,0.0138608590568124
626,0.0137582698674109
627,0.0137420931581331
628,0.013696728348155
629,0.0136434087089558
630,0.0137213985866185
631,0.0134732138359159
632,0.0134216020475416
633,0.0133828494422089
634,0.013232784036183
635,0.0132644278807501
636,0.013105333650706
637,0.0131966659641239
638,0.0130301509710099
639,0.0131040663574285
640,0.0130088533826815
641,0.0129152276001956
642,0.0128008758336092
643,0.012652568810581
644,0.0125042617875528
645,0.0123559547645246
646,0.012348077616348
647,0.0122982067832186
648,0.0120277803377363
649,0.0122502220276012
650,0.0121030280176001
651,0.0121894662804433
652,0.0120045919984953
653,0.0117733302447389
654,0.0115030348112862
655,0.0116093724766563
656,0.0114644054576321
657,0.01158550066952
658,0.011679190964045
659,0.0120175689078049
660,0.0120991165506673
661,0.0121669266607169
662,0.012180364458557
663,0.012088222818016
664,0.0119918937005765
665,0.0120035312209547
666,0.0119571020277535
667,0.0119582182889563
668,0.011908653336986
669,0.0116682931256059
670,0.0116942028331083
671,0.0116329240557357
672,0.0115662862025337
673,0.0115934717886026
674,0.0115804576061008
675,0.0115228887896337
676,0.0114999044856758
677,0.0115562395384195
678,0.0113628709602211
679,0.0113432474683211
680,0.0115815783968365
681,0.011365062003774
682,0.0111120994685223
683,0.0109092220099351
684,0.0105122376079436
685,0.0102404725139011
686,0.0100036667760805
687,0.00981348182803622
688,0.00967300525200022
689,0.0097088553091991
690,0.00984410829489548
691,0.010002295842659
692,0.00999402207825979
693,0.0100856238855771
694,0.0102533359853594
695,0.0102808529153136
696,0.0104981209457846
697,0.0105519966415224
698,0.0104526751893912
699,0.0105142047997316
700,0.0107123505269305
701,0.010695987951851
702,0.0109438192976769
703,0.0110586850470304
704,0.0114139106464371
705,0.0115107565939905
706,0.0117637803139351
707,0.0119801209035563
708,0.0120289232142658
709,0.0122051225463598
710,0.0120556527215409
711,0.0120655725444312
712,0.012061853681231
713,0.0114626720379736
714,0.011097937006212
715,0.0104003734143138
716,0.0097597369397666
717,0.00933388301120137
718,0.00920208150051313
719,0.00923185838611603
720,0.00939801076307928
721,0.00928654129077476
722,0.00956634565623775
723,0.00950695148967867
724,0.00946412630192305
725,0.0094536493009702
726,0.00939637713908704
727,0.00955029319017453
728,0.00969792264883059
729,0.00993665423987352
730,0.0102483548268281
731,0.0106216060840434
732,0.0109778291127418
733,0.0113605880072287
734,0.0116250385372634
735,0.0117655172416053
736,0.0119422978312583
737,0.01204662311151
738,0.0121509483917617
739,0.0122552736720134
740,0.0125026004327274
741,0.0125678199586431
742,0.0126430426694878
743,0.0127182653803325
744,0.0127934880911772
745,0.0128476977186112
746,0.0127848820089632
747,0.0128077720196167
748,0.0125840589756969
749,0.012670576234645
750,0.0126018943908466
751,0.0124963539099025
752,0.0126352093599759
753,0.0123672849766775
754,0.0123076479505494
755,0.0114718257431367
756,0.0106360035357239
757,0.00980018132831123
758,0.00851877817506307
759,0.00736280202211047
760,0.00652823170759338
761,0.00631188219968226
762,0.00653777775508846
763,0.00700668586012728
764,0.00774834870694679
765,0.00841505135581403
766,0.00926778317995921
767,0.0100653526485474
768,0.0105188315647338
769,0.0108350326672241
770,0.0110367708419218
771,0.0111896173414914
772,0.0112962837343059
773,0.0113924429193526
774,0.0112451970168214
775,0.0112462726991076
776,0.0112597235240267
777,0.0110766079209641
778,0.0111326354074191
779,0.0109864934618266
780,0.0110982157100286
