"wavelength","measurement"
380,0.00226748233083869
381,0.0022840877824348
382,0.00231108592858569
383,0.00231538839056469
384,0.00239583396567616
385,0.00250057836625777
386,0.00260040925050715
387,0.00290152883721643
388,0.00298419359413895
389,0.00312986211150314
390,0.0031775756796303
391,0.00333425270613303
392,0.00327418990138266
393,0.00353155385416517
394,0.00371986294378126
395,0.00403165833444275
396,0.00432876788708848
397,0.00495310545652515
398,0.00557744302596181
399,0.00620178059539848
400,0.00647178043729691
401,0.00714910964634574
402,0.00758592857606761
403,0.00786333020075963
404,0.00815618704983035
405,0.0083005659289293
406,0.00861164592485744
407,0.00884243964247505
408,0.00916475880830175
409,0.00947288877636553
410,0.0100490957262942
411,0.0101889799924448
412,0.0107811806228154
413,0.011025409143212
414,0.0113567530425132
415,0.0115314750897917
416,0.0118170097947756
417,0.0118618088265109
418,0.0119860823879508
419,0.011852630815308
420,0.0123771064305984
421,0.0123625715611867
422,0.0125734500971011
423,0.0128365161454317
424,0.0128338830143658
425,0.0127589701873427
426,0.0126709840564453
427,0.01242006533727
428,0.0120559614402439
429,0.0123356397134367
430,0.0123745823736926
431,0.0130552468762684
432,0.013667973702259
433,0.0146278471603399
434,0.0154652744129598
435,0.0157809441318845
436,0.0160999578828984
437,0.0160861991139882
438,0.0160724403450781
439,0.016058681576168
440,0.016255285594987
441,0.0164782203104046
442,0.0170762299997191
443,0.0171635723402189
444,0.0175412251849157
445,0.0179188780296125
446,0.0182965308743093
447,0.0187149324388095
448,0.0189042002441927
449,0.019639054500376
450,0.0195877897478101
451,0.0195502072706031
452,0.0196083634561328
453,0.0196665196416625
454,0.0197246758271921
455,0.0198366824595477
456,0.0198929595869873
457,0.02015178873906
458,0.0203899283394989
459,0.0207987909356752
460,0.0208501894086165
461,0.0207644353681216
462,0.0213847799403268
463,0.0209549985084746
464,0.0207400071065017
465,0.0207317754533631
466,0.0203992557215458
467,0.0205260077944773
468,0.0204012429450371
469,0.0202215652210442
470,0.02072208269397
471,0.0207561799056502
472,0.0208402917908134
473,0.0212220605798375
474,0.0213666868908941
475,0.021833060986957
476,0.0214537162154051
477,0.0215112832789063
478,0.0215688503424075
479,0.0216264174059087
480,0.0216610986774538
481,0.0213075630533704
482,0.021144992447457
483,0.0211205680715085
484,0.0207614060488619
485,0.0204624111064991
486,0.0207186708243679
487,0.0209199791175689
488,0.0210094886718799
489,0.0216808654041509
490,0.021905702857649
491,0.0220684480095116
492,0.0226354101509463
493,0.0223583596450803
494,0.0227376823980071
495,0.0224774107496586
496,0.0226265836440357
497,0.0222237881216444
498,0.0222665580534555
499,0.0218518376400985
500,0.0219775019799987
501,0.0217075913506221
502,0.0221806515560772
503,0.0223576031579536
504,0.0220040834150471
505,0.0227824772482672
506,0.0228123874051384
507,0.0229287967418842
508,0.0231300526738253
509,0.0231535973224623
510,0.0229527065470256
511,0.0233609584891237
512,0.0232162086863536
513,0.0226270235240877
514,0.0225840601176863
515,0.0222369189333097
516,0.0221366575098355
517,0.0221364802329913
518,0.0221578734986692
519,0.0226263039695862
520,0.0230686705456733
521,0.0233674215086881
522,0.0236661724717029
523,0.0239649234347177
524,0.0239102307969145
525,0.0240571852556482
526,0.0241900599661474
527,0.0239894799500802
528,0.0242834144910676
529,0.0246034269936016
530,0.0246240104285569
531,0.0248129298500174
532,0.0248459115974188
533,0.0251029883386838
534,0.0252349056589307
535,0.0251282177825953
536,0.0255135990007209
537,0.0256930928082942
538,0.0258309506214132
539,0.0261080162647438
540,0.0264203286275587
541,0.0266668802338243
542,0.0267509180556001
543,0.0271430156016964
544,0.0274589535045061
545,0.0272575933019752
546,0.0275142978688623
547,0.0271326579784567
548,0.0267510180880512
549,0.0263693781976456
550,0.0258142312667407
551,0.0257696777397821
552,0.0257118943698496
553,0.025345811617379
554,0.0251275390820455
555,0.0252648397941629
556,0.0248595726614128
557,0.0248044434590738
558,0.0245387957949277
559,0.024301223399589
560,0.0246548677309792
561,0.024241277008174
562,0.0246184885689285
563,0.0242264013992633
564,0.0243668256223492
565,0.024068420390244
566,0.0238649275989567
567,0.0234968809236793
568,0.0236787459551555
569,0.0233280275413504
570,0.0233260779967078
571,0.0233708620545938
572,0.02332802831024
573,0.02339979129471
574,0.0235846164511581
575,0.0233659176062928
576,0.0234934324675807
577,0.0236209473288686
578,0.0237484621901565
579,0.0238759770514444
580,0.0240034919127323
581,0.0243335745731976
582,0.0241124524005523
583,0.0243626535894746
584,0.0240511202298357
585,0.0238769196495464
586,0.0230705624017632
587,0.0226265483824814
588,0.0222692018633025
589,0.0219118553441236
590,0.0215545088249447
591,0.0215283490889918
592,0.0217694532049339
593,0.0216844993046492
594,0.0218940552319582
595,0.0218926507220511
596,0.0220843301785204
597,0.0221903677743475
598,0.0222168723003114
599,0.0223335986032244
600,0.0225652231866078
601,0.0226483003952833
602,0.0227941532902362
603,0.0226035224480509
604,0.0229408245815565
605,0.0227530973489766
606,0.0229357647491182
607,0.0233974313153419
608,0.0237365915529837
609,0.0244326558908248
610,0.024660981789238
611,0.0248243835577523
612,0.0244756504754218
613,0.0238898905136401
614,0.023108432759399
615,0.0228827529551483
616,0.022175830765563
617,0.0220705417288459
618,0.0218031244032462
619,0.0218037927079741
620,0.0216792262586611
621,0.0217435662462833
622,0.0213958274009351
623,0.0212518690392673
624,0.0210633499333704
625,0.0208748308274735
626,0.0206863117215767
627,0.0206240435302448
628,0.0205765306480418
629,0.0204687639813447
630,0.0205355611925317
631,0.0202233159561098
632,0.0202695267778877
633,0.0202484509779949
634,0.0201608939402751
635,0.0201152050081452
636,0.020019184784936
637,0.0201467198517711
638,0.0199140875186735
639,0.0200010528519892
640,0.0198845626109874
641,0.0197730527965838
642,0.0195598111523777
643,0.0193046823089218
644,0.019049553465466
645,0.0187944246220101
646,0.0187881761809135
647,0.0186635329074917
648,0.0182946820053579
649,0.0185241015594874
650,0.0183177564021166
651,0.0184809127477454
652,0.0182172097504414
653,0.0179182396910208
654,0.0175083567636189
655,0.0176255983626045
656,0.0174890423045173
657,0.0176063426765899
658,0.0178765876439961
659,0.0182644324859649
660,0.0183760421363192
661,0.0185047226800388
662,0.0186160740086364
663,0.0184251530444975
664,0.0182492836516264
665,0.0182784167560205
666,0.0183016185490306
667,0.0182692182465757
668,0.0181889276888399
669,0.0178047072444576
670,0.0178876497772176
671,0.0177303944856382
672,0.0177398169468357
673,0.0176800786846562
674,0.017657864530755
675,0.0175832321284789
676,0.0175182360764427
677,0.0176197026634258
678,0.0172970723203283
679,0.0172533962258145
680,0.0176464228846232
681,0.0172038712423583
682,0.0168580199534062
683,0.016445071873949
684,0.0159172640203244
685,0.0153446597225542
686,0.0150542808523667
687,0.0146437490898702
688,0.0145060199241951
689,0.0144418517110333
690,0.0145575777515599
691,0.0148393664381397
692,0.0149032917410934
693,0.0150038016164872
694,0.0152403241123557
695,0.0152042235830735
696,0.0154107077561203
697,0.0156363187342488
698,0.0153655755829981
699,0.0154414076133886
700,0.0157439909934735
701,0.0155512925208196
702,0.0160420786830818
703,0.0160543053244807
704,0.0165066957215425
705,0.0165714882513391
706,0.0168181873135871
707,0.0172509477786086
708,0.017268129758785
709,0.0175004349602607
710,0.017280834088951
711,0.0173657846159315
712,0.0173144404963814
713,0.0164565210511845
714,0.0159113463680046
715,0.0147893894832878
716,0.0139203163292617
717,0.0132678152995651
718,0.013020737522321
719,0.0130897260585553
720,0.0131929366197315
721,0.0130766410829677
722,0.0135296891892241
723,0.0133107278951771
724,0.0132944346342786
725,0.0132941388619556
726,0.0132329445155638
727,0.0133749668754165
728,0.0136892721453982
729,0.0139619440203984
730,0.0145030550042272
731,0.0148945166761968
732,0.0154850970306525
733,0.0161517665724779
734,0.0164863718658394
735,0.0167249619205772
736,0.0170266688532717
737,0.0171809604963357
738,0.0173352521393997
739,0.0174895437824637
740,0.0178652464600909
741,0.0178920962803073
742,0.0180300308629136
743,0.0181679654455199
744,0.0183059000281262
745,0.0184106702894507
746,0.0183897002913947
747,0.0183363798051897
748,0.0181284337755587
749,0.0182670826029021
750,0.0181162721574848
751,0.0178926098247977
752,0.0180966493688193
753,0.0178527427015804
754,0.0176429303337187
755,0.0164501715064024
756,0.015257412679086
757,0.0140646538517696
758,0.0121831880846669
759,0.0105063685074534
760,0.0091816132945084
761,0.00886258578085117
762,0.00906986659395328
763,0.00983942453495847
764,0.0108003061314676
765,0.0117789842818443
766,0.0131574252815395
767,0.0143578976581404
768,0.0150839111952556
769,0.0154970857387154
770,0.0158789586905365
771,0.0160560499678227
772,0.0162250207152536
773,0.0164471648418441
774,0.0162533777914358
775,0.0161458781022502
776,0.0162763140562768
777,0.0160197995314358
778,0.016121662046135
779,0.0159126653679559
780,0.0160173875415211
