"wavelength","measurement"
380,0.00267946819788435
381,0.00266475130812379
382,0.00296139294106977
383,0.00279586702496838
384,0.00279522890648193
385,0.00296631982735698
386,0.00317435197370151
387,0.00363489034782369
388,0.00373040919479514
389,0.00380814636092719
390,0.00394938249869144
391,0.00405406420461867
392,0.00405514312482802
393,0.00419096048635631
394,0.00451613814899558
395,0.00485139605525138
396,0.00534401877373674
397,0.00603745341261139
398,0.00673088805148604
399,0.00742432269036068
400,0.00801099631576643
401,0.00877040339280279
402,0.0092858030358947
403,0.00967913709058208
404,0.00999150315002733
405,0.0102606099784272
406,0.010707891865729
407,0.0108639324413765
408,0.0113065613285551
409,0.0117709755106622
410,0.0124006222580736
411,0.0127990386501945
412,0.0133708879460018
413,0.0138696835909795
414,0.0139197346188735
415,0.0142879931793818
416,0.0143419788209458
417,0.0145626882387919
418,0.014813923717867
419,0.0146084822232486
420,0.0151963042914098
421,0.0152006704315695
422,0.0154617021413964
423,0.0156791531294988
424,0.0159147709668556
425,0.0156844394423165
426,0.0156728526892166
427,0.0153315576699431
428,0.0149904425936551
429,0.0149878747576436
430,0.0152148801239018
431,0.0158538594791307
432,0.016735528021759
433,0.0176969804626939
434,0.0186206084829759
435,0.0193200178201126
436,0.0193865229723402
437,0.0194907200707124
438,0.0195949171690847
439,0.019699114267457
440,0.0197309192609901
441,0.0202457786656988
442,0.0208470749785837
443,0.0209765235285248
444,0.0214963316147635
445,0.0220161397010023
446,0.022535947787241
447,0.0229758176704717
448,0.0231096397853391
449,0.0243012645407767
450,0.0242214026542985
451,0.0240897712798364
452,0.0241407694097611
453,0.0241917675396857
454,0.0242427656696103
455,0.0243360233425952
456,0.0244809574332475
457,0.024830221366265
458,0.025024418458684
459,0.0254848728575954
460,0.0256474024830388
461,0.0254784594384738
462,0.0262595093767137
463,0.02552941710219
464,0.0254185917839074
465,0.0254089098057769
466,0.0251305199454304
467,0.0252686874795883
468,0.0251064948884224
469,0.0249702099524927
470,0.0254815814705189
471,0.0255649897319228
472,0.0257344368682206
473,0.0261942892834199
474,0.0263474888865656
475,0.026850717612059
476,0.0262704911329636
477,0.0264233332421338
478,0.0265761753513039
479,0.0267290174604741
480,0.0267585699617859
481,0.026233708849953
482,0.0260162130330572
483,0.025974010479789
484,0.025466529334385
485,0.0250575553121951
486,0.0253981034740471
487,0.0257035836990231
488,0.0259307922543767
489,0.0266702172995728
490,0.0268952886764567
491,0.027150082680626
492,0.0277672681729889
493,0.0274882702549362
494,0.0279945958620906
495,0.0277041013122986
496,0.0277551199540001
497,0.0274449580923799
498,0.0275862097696067
499,0.0270439572503618
500,0.0271193485306143
501,0.0268712629531315
502,0.0272824182585807
503,0.0274835897030129
504,0.0272072412850771
505,0.028155603850409
506,0.0280967313102476
507,0.028260518904742
508,0.0285691807592665
509,0.0286523992636174
510,0.0281975612605719
511,0.0287665770495512
512,0.0286900159137376
513,0.0279104639001193
514,0.0278501082899847
515,0.0273754905565243
516,0.0272077188439124
517,0.0271834065217397
518,0.0272280576200493
519,0.0278369473879614
520,0.0283401574366913
521,0.0287049254778979
522,0.0290696935191045
523,0.0294344615603111
524,0.0294000383838862
525,0.0295192027443886
526,0.0296849202982521
527,0.0295091946419246
528,0.0297402622729822
529,0.0301582886741603
530,0.0301845564473902
531,0.0303103165546886
532,0.0303963521259862
533,0.0306155332787539
534,0.0309571395220191
535,0.0306736055660297
536,0.0311861826251763
537,0.0312736714410777
538,0.0313994734277018
539,0.031658772589882
540,0.0320965731530015
541,0.0323166914166734
542,0.0324361920237343
543,0.0327779960418866
544,0.0332112231303293
545,0.0330372699764856
546,0.0332573743056241
547,0.0328610557227605
548,0.0324647371398969
549,0.0320684185570333
550,0.031371666104543
551,0.0314046581799724
552,0.0313264299061223
553,0.030916170722246
554,0.0306668799459573
555,0.0308986506174242
556,0.0303995802069741
557,0.0302943475394422
558,0.0300259600476401
559,0.0297453808378247
560,0.0301107798193506
561,0.0296275033199199
562,0.0301285305287707
563,0.0296833661428708
564,0.029779976515799
565,0.0294192774860591
566,0.0292015855452546
567,0.028903318215957
568,0.0290842475538901
569,0.0286391878385976
570,0.0286339867588926
571,0.0286535070911137
572,0.0286513058388709
573,0.0287121212088861
574,0.0289136251027407
575,0.028608140681749
576,0.0287644936180366
577,0.0289208465543241
578,0.0290771994906117
579,0.0292335524268992
580,0.0293899053631868
581,0.0298284349053023
582,0.0296674778274811
583,0.0298922515443685
584,0.0294327616432201
585,0.0292328294904944
586,0.0283885766542139
587,0.0276976097165582
588,0.0272833574350639
589,0.0268691051535695
590,0.0264548528720752
591,0.0264857236575768
592,0.0265941230367627
593,0.0266790442992356
594,0.0269991407224976
595,0.026916974163648
596,0.0271112501696995
597,0.0272729147466665
598,0.0273710232210193
599,0.0273812909910613
600,0.0276832329442118
601,0.027776649566539
602,0.0279173327546661
603,0.0277829020059158
604,0.0281339237459977
605,0.0279508749811335
606,0.0282184565703153
607,0.0286305898595989
608,0.0289575276003334
609,0.0296606681205945
610,0.0298756837783565
611,0.0301007155868984
612,0.0296635565406986
613,0.0289531621989703
614,0.0280901821447829
615,0.0278390280838202
616,0.027047285274549
617,0.0270028309383477
618,0.026801973588131
619,0.0266935517218978
620,0.0265345985348743
621,0.0266438079519325
622,0.0261141790539244
623,0.0260176486587246
624,0.0257983842224893
625,0.025579119786254
626,0.0253598553500187
627,0.0253557288162238
628,0.0252383664110252
629,0.0251023768878331
630,0.0252220524803769
631,0.0248482152164777
632,0.0248809988359115
633,0.0249627323640714
634,0.024853397059135
635,0.0247328526435538
636,0.0245632518193457
637,0.0247444021262028
638,0.0245275011407993
639,0.0245074699174567
640,0.0243522419637688
641,0.0243111898731638
642,0.0241082028453821
643,0.0238076782448722
644,0.0235071536443623
645,0.0232066290438524
646,0.0230619564392172
647,0.0230332802348139
648,0.0224501905998083
649,0.0229120130377159
650,0.0225227631849993
651,0.0228149048855502
652,0.0225716935768411
653,0.0220799121666867
654,0.0216942520058829
655,0.0217917972557853
656,0.0215024658344415
657,0.0216504686508985
658,0.022009920301474
659,0.022529054643715
660,0.0227673221113029
661,0.0227804912871217
662,0.0228849418758385
663,0.0227427354567895
664,0.0225232042639615
665,0.0225664078600106
666,0.0224704256879629
667,0.0224690202341247
668,0.0224837610518642
669,0.0220674346227828
670,0.0220279650477613
671,0.021892265796182
672,0.0217872529370532
673,0.0218362773530947
674,0.0217296227050095
675,0.0217203075601294
676,0.0215615784074089
677,0.0217199117694765
678,0.0214034803961023
679,0.021341265873265
680,0.0217752876054327
681,0.0213061856588811
682,0.0208375479847301
683,0.0203621891459452
684,0.019631628197691
685,0.0189506121067785
686,0.0184831006007894
687,0.0179713677335174
688,0.0177938131114123
689,0.0176747664719452
690,0.0179183316428036
691,0.0181970559330296
692,0.0181403235535951
693,0.0182801325578009
694,0.0185062688553405
695,0.0186101246877738
696,0.0189311143581627
697,0.0190372138784933
698,0.0187010306600691
699,0.0187392595061946
700,0.0190177487775435
701,0.0188798936426871
702,0.0193973733873097
703,0.0194581245110475
704,0.0197992141611526
705,0.0200127351796317
706,0.0204540584988533
707,0.020654182156711
708,0.0206510361946626
709,0.0209292137720908
710,0.0207277244189256
711,0.0206328287988295
712,0.0206228891185634
713,0.0195579240846077
714,0.0189252737513132
715,0.0176762964681149
716,0.0165181758824427
717,0.0156810508205148
718,0.015426265267709
719,0.0154014739185819
720,0.0155705339128568
721,0.0155572816275315
722,0.0160352893590512
723,0.0158247960915697
724,0.0155910651954988
725,0.0156223315360029
726,0.0155199432813743
727,0.0157595233892689
728,0.0159058482759179
729,0.0164445261290642
730,0.0168855295999461
731,0.0175788226165949
732,0.0181508528465578
733,0.01882827116796
734,0.0194290110973298
735,0.0195135626025279
736,0.0198091875271919
737,0.0200096517478869
738,0.0202101159685819
739,0.0204105801892769
740,0.0207159771933062
741,0.0208777306301051
742,0.0210191155826518
743,0.0211605005351984
744,0.0213018854877451
745,0.0213820820973928
746,0.0212583612521305
747,0.0214615845431166
748,0.0210490608164467
749,0.0211555100897367
750,0.0210730637538153
751,0.0207322058048496
752,0.0210206916911398
753,0.0208105635608084
754,0.0204769589371889
755,0.0190869442148088
756,0.0176969294924287
757,0.0163069147700486
758,0.0141800048904102
759,0.0120852928806601
760,0.0106446403262275
761,0.0102951793800796
762,0.0105843216820374
763,0.0113617540690166
764,0.0125069877618211
765,0.0137652043582116
766,0.0152949703961715
767,0.0165997609066635
768,0.0172418544291281
769,0.0178548580248954
770,0.0183613770528323
771,0.0186232187727886
772,0.0187182229456341
773,0.0188458152396901
774,0.0186702742133731
775,0.0189114490268702
776,0.0186180625905304
777,0.0184370468384517
778,0.0185404181589892
779,0.018296683858021
780,0.0184695830023735
