"wavelength","measurement"
380,0.0113673576724117
381,0.0107286163997452
382,0.0112722843951552
383,0.011195458976983
384,0.0117530303191426
385,0.0123940639946957
386,0.0134075445213642
387,0.0143905775883563
388,0.0149469880974519
389,0.015730763724081
390,0.015749315990126
391,0.0156931885598204
392,0.0164581180671536
393,0.0168969959413397
394,0.0177410252549062
395,0.0188890170220806
396,0.0208097812776254
397,0.0233276700409845
398,0.0258455588043437
399,0.0283634475677028
400,0.0303866645061987
401,0.0321542521714073
402,0.0333894965023879
403,0.0343103659306474
404,0.0349562008178121
405,0.0351697342266626
406,0.0361962204592784
407,0.0363531587899818
408,0.0371253312086985
409,0.0379233457800706
410,0.0399985925590009
411,0.0396565591423992
412,0.0412459026525216
413,0.0426379163184649
414,0.0424757305919908
415,0.0432876026129347
416,0.0431162309850036
417,0.0425544835001081
418,0.043334768001787
419,0.0426463665413834
420,0.0438774304382811
421,0.0438871488891433
422,0.0443345149575264
423,0.0449675089416695
424,0.0451414919271961
425,0.0444657770078512
426,0.044011426733837
427,0.0429900953527957
428,0.0413926401499408
429,0.0414502239140726
430,0.0417713530416469
431,0.043357622761198
432,0.0451521732988818
433,0.0470711590136771
434,0.0490955229142596
435,0.0503011549303866
436,0.0506952833612439
437,0.0515239848660743
438,0.0523526863709047
439,0.0531813878757351
440,0.0536677920611779
441,0.0548174195525665
442,0.0558297730498014
443,0.0563112158799068
444,0.0574837604239897
445,0.0586563049680726
446,0.0598288495121555
447,0.0609362981746036
448,0.0612272852992705
449,0.0640660671872554
450,0.0636514068298265
451,0.0637558645545127
452,0.0638550764784292
453,0.0639542884023457
454,0.0640535003262622
455,0.0637953307324427
456,0.0645335328108603
457,0.0651299625408502
458,0.0658930157171178
459,0.0668926367414436
460,0.0674762290149619
461,0.0665904676301726
462,0.069336547273991
463,0.067445958301633
464,0.066727914816182
465,0.066498889281137
466,0.0656844589316571
467,0.0656505998142664
468,0.0653425462912155
469,0.0648844064385857
470,0.0663614633668649
471,0.06669393293398
472,0.0670002772177261
473,0.0682407729202824
474,0.0684239454393114
475,0.0695899399585359
476,0.0681168558547396
477,0.0684504252648696
478,0.0687839946749995
479,0.0691175640851295
480,0.0688486661112037
481,0.0675298954142345
482,0.0666815431212874
483,0.0661902409908766
484,0.0649312945815504
485,0.063599202858102
486,0.0641118276232994
487,0.0648949754262285
488,0.0657359245128046
489,0.0672606206030475
490,0.0681917769244648
491,0.0683827427440396
492,0.070186529103042
493,0.0696652811724244
494,0.070619736550481
495,0.0698782943411514
496,0.0703772917788978
497,0.0692729370539506
498,0.0695097596561258
499,0.0681688429238421
500,0.0685411914625877
501,0.0678716778955176
502,0.0689204453841583
503,0.0692977985290719
504,0.06844382030349
505,0.070849613528545
506,0.0705405615869773
507,0.0709555840732601
508,0.0715639723375261
509,0.071707390189178
510,0.0705409489008628
511,0.071772574058028
512,0.0712613526506787
513,0.0691661922118379
514,0.0688751795124976
515,0.0676373597882891
516,0.06719477461709
517,0.0669813924806294
518,0.0669493274855134
519,0.06832893235663
520,0.0695147231327403
521,0.070228484848865
522,0.0709422465649897
523,0.0716560082811143
524,0.0714375349593746
525,0.071460592819506
526,0.0720026584563696
527,0.0714111783532553
528,0.0717238677357622
529,0.0728781330437994
530,0.072707973467161
531,0.072985712431375
532,0.0727887227418031
533,0.0733551738529609
534,0.0738107266055421
535,0.0729642895336078
536,0.0738500998674627
537,0.0733559274644205
538,0.0732916975641689
539,0.0727903905067493
540,0.0737003742262001
541,0.0734812183373089
542,0.0735823077987823
543,0.0742756005414519
544,0.074674734049082
545,0.074002698781113
546,0.0742675139010888
547,0.073870078380752
548,0.0734726428604151
549,0.0730752073400783
550,0.0723147907766257
551,0.0727063790330474
552,0.0731415423115602
553,0.0723328353375145
554,0.0724459100243006
555,0.0728653133057759
556,0.0718059970933603
557,0.0716668887211459
558,0.071040569082726
559,0.0704954834591132
560,0.071498208850151
561,0.0702959585269272
562,0.071368090624862
563,0.0702539771473825
564,0.0707690023854225
565,0.0696091166495069
566,0.0690759875514974
567,0.0682627387286755
568,0.0688232051246963
569,0.0678109060671653
570,0.0680619648100386
571,0.068038220115479
572,0.0680789735553296
573,0.0679888008552719
574,0.0685154651898573
575,0.0676225151801556
576,0.067883392961737
577,0.0681442707433184
578,0.0684051485248999
579,0.0686660263064813
580,0.0689269040880627
581,0.0700300063727871
582,0.0694050068042919
583,0.0698095581436496
584,0.0686599359679172
585,0.0681840488864853
586,0.0659643651260473
587,0.0643482361643089
588,0.0632606226959375
589,0.0621730092275662
590,0.0610853957591948
591,0.0613760015844218
592,0.0618513718455829
593,0.061963683567208
594,0.0628549098163134
595,0.0626406867285205
596,0.0633113236215894
597,0.0637625488981204
598,0.0640871463873935
599,0.0641386056456519
600,0.0647867625514424
601,0.0649748684844663
602,0.0656829269769924
603,0.0651955151145635
604,0.0661177406538241
605,0.0655127432793719
606,0.0660061199212334
607,0.0657202811967832
608,0.0650813431242309
609,0.0657604738245581
610,0.0653778512903401
611,0.0654304625878407
612,0.0642567491549583
613,0.063695196390965
614,0.0626505875774964
615,0.0631423605314161
616,0.0620484866528425
617,0.0623538994481422
618,0.0618449993208857
619,0.0621014270936525
620,0.0617365914728834
621,0.0620487363112054
622,0.0608389196654338
623,0.0604399470616819
624,0.059829424555372
625,0.0592189020490621
626,0.0586083795427521
627,0.0585565582728937
628,0.0582397014312635
629,0.0580358703123165
630,0.0582981499508239
631,0.0574268706150017
632,0.0574259630189265
633,0.0577857376474778
634,0.0576600895657965
635,0.0579704510080627
636,0.0573024369733879
637,0.0579246866453072
638,0.0574353395758948
639,0.057775191279902
640,0.0571671996365952
641,0.0569780212939487
642,0.0563457442958953
643,0.0556544352701297
644,0.054963126244364
645,0.0542718172185983
646,0.0544154892553545
647,0.0537723308006825
648,0.0526476495920241
649,0.0533931462503181
650,0.0530233528712038
651,0.0533507763565886
652,0.0527673337684511
653,0.0517077940600589
654,0.0509827801906728
655,0.0512953042699764
656,0.050700918181082
657,0.0516340033444394
658,0.0515894264201621
659,0.0530889110191222
660,0.0534586169808153
661,0.053740611435985
662,0.0538942762008278
663,0.0535874955746172
664,0.0533642680096018
665,0.0532134484488723
666,0.0532085664254364
667,0.0530975557616626
668,0.0532395169434213
669,0.0522127015009894
670,0.0520017385498795
671,0.052138336723101
672,0.0516134332175996
673,0.0518261436676978
674,0.0518224801443394
675,0.0514157317179272
676,0.0511056207441911
677,0.0513581577052261
678,0.0505151325492504
679,0.0506713952350164
680,0.0515407800773058
681,0.0504043673076213
682,0.0491743813354443
683,0.0482296677698309
684,0.0460648392558227
685,0.0444066601094182
686,0.0430614015579154
687,0.0419170001886854
688,0.0411596032777421
689,0.0412353273687279
690,0.0413674691864902
691,0.0420556717550066
692,0.0415799795168537
693,0.0418430173965152
694,0.0422173408287233
695,0.0420817256688759
696,0.0424574750196781
697,0.0424119824393916
698,0.0418209818554378
699,0.0414861691963779
700,0.0420643497036057
701,0.0414763745285451
702,0.0422294796348801
703,0.042097658069505
704,0.0425932288120535
705,0.0428627030188058
706,0.0431199557104208
707,0.0436154735549709
708,0.0435640363192696
709,0.0438668552406312
710,0.0433139337932135
711,0.0432410904840698
712,0.0429799876692769
713,0.0405573530426446
714,0.0390292322080123
715,0.0363443928575956
716,0.0338233338590416
717,0.0319617100765039
718,0.0314317414058526
719,0.0312129289744608
720,0.0319528583930989
721,0.0310191371795086
722,0.0320527358503561
723,0.0314003539516872
724,0.0311102428930813
725,0.0310602951633444
726,0.0306954643575015
727,0.0309760703753696
728,0.031257416272901
729,0.0322003770153854
730,0.03274117725885
731,0.0339340058112027
732,0.0354242564219606
733,0.0366491589087328
734,0.0379028203327913
735,0.0377530823797291
736,0.0384843822480036
737,0.0387699862211221
738,0.0390555901942405
739,0.0393411941673589
740,0.0400251276143982
741,0.0401013678721978
742,0.0403216396340559
743,0.0405419113959141
744,0.0407621831577723
745,0.0408944959179578
746,0.0408321815097329
747,0.0409217538931013
748,0.0400620965374288
749,0.0404702992819365
750,0.0402539933560094
751,0.0399878690034308
752,0.0401231549361563
753,0.0396697964568186
754,0.0393110476818676
755,0.0366562966867209
756,0.0340015456915741
757,0.0313467946964274
758,0.0270394187990523
759,0.0230472425540794
760,0.0202180087323828
761,0.0196922955773372
762,0.0202034988364472
763,0.0214788800845263
764,0.0239456296155708
765,0.0262067062230142
766,0.029086754643961
767,0.031824319213052
768,0.0333038069206671
769,0.034298247748165
770,0.0349687055516337
771,0.0351761895117689
772,0.0357715028008521
773,0.0359864057509376
774,0.0361774427780535
775,0.0358849663912369
776,0.0360820721846467
777,0.0351765608689616
778,0.0354602005548008
779,0.0348775024568762
780,0.0353126056958704
