"wavelength","measurement"
380,0.0158167540932318
381,0.0160589273496855
382,0.0156995298231019
383,0.0158662335988701
384,0.0165930726784751
385,0.0182033484939656
386,0.0185332056818448
387,0.0206827697626266
388,0.0223641233829526
389,0.0236515718143748
390,0.0238623427893668
391,0.0246713336637241
392,0.0257399610001704
393,0.0271177065835502
394,0.0289369014717196
395,0.0316735517542389
396,0.0363147262583238
397,0.0421971489562338
398,0.0480795716541438
399,0.0539619943520538
400,0.0582747444631117
401,0.0636931716575643
402,0.0682077228943508
403,0.0712194358232478
404,0.0741551726085065
405,0.0764268894479181
406,0.0798820659093441
407,0.0823848370561931
408,0.0857316736700876
409,0.0889848141080794
410,0.0949345669043937
411,0.0970509374147591
412,0.100418427228279
413,0.104549424140364
414,0.105866448275581
415,0.108443408238638
416,0.10799889727344
417,0.10847361466485
418,0.110586203947906
419,0.109504807964238
420,0.112244494944631
421,0.113143715128431
422,0.114322363490158
423,0.11484158177796
424,0.115239980530023
425,0.113719303897855
426,0.112718787794836
427,0.110114172761367
428,0.106488286005995
429,0.106719389326889
430,0.106629530595633
431,0.110515226956428
432,0.115073268889128
433,0.118608959190058
434,0.123882008840413
435,0.126704911090094
436,0.127915756835019
437,0.130323324163492
438,0.132730891491966
439,0.135138458820439
440,0.136578628633108
441,0.138057116311383
442,0.141811287474425
443,0.143085771351362
444,0.145557974709407
445,0.148030178067452
446,0.150502381425497
447,0.152369362720623
448,0.152851950218485
449,0.158958436636496
450,0.15793696927144
451,0.157327466878626
452,0.156663678205477
453,0.155999889532328
454,0.155336100859179
455,0.15594414640929
456,0.156132411493856
457,0.157773430001483
458,0.158977806821741
459,0.161625791317788
460,0.161864581593033
461,0.160534348604885
462,0.165865270109499
463,0.160833710349887
464,0.159819432425258
465,0.158891074096061
466,0.157888249193533
467,0.158560822743657
468,0.157185452952457
469,0.156329116220865
470,0.160533265388573
471,0.161649691598478
472,0.163203189958174
473,0.165804771719448
474,0.16764825485149
475,0.170961591306449
476,0.16770571093438
477,0.168665685057404
478,0.169625659180429
479,0.170585633303453
480,0.170958826149519
481,0.16741066412966
482,0.165320152566265
483,0.16445076445343
484,0.160404672320179
485,0.157575011166981
486,0.159047951234903
487,0.160378552917527
488,0.161745173202487
489,0.166426625778198
490,0.167269936769784
491,0.169371763433979
492,0.173346904442362
493,0.17150246772602
494,0.174356199261088
495,0.171925203167463
496,0.172811466052214
497,0.170122971764295
498,0.170578093808367
499,0.166914651059857
500,0.167565506813964
501,0.165847648975582
502,0.168060437657963
503,0.16904055242492
504,0.167409954648627
505,0.171619628887762
506,0.171317373158009
507,0.171975085743296
508,0.173067534523569
509,0.17244079251927
510,0.169911087566008
511,0.172365761559794
512,0.17085385705991
513,0.165409738563059
514,0.164384423729354
515,0.161290966864119
516,0.159837954480278
517,0.159039123139903
518,0.158002140532429
519,0.160897346039179
520,0.163182772849655
521,0.164754299030525
522,0.166325825211395
523,0.167897351392265
524,0.166131703791822
525,0.166339292642621
526,0.166890030937252
527,0.165736793136639
528,0.165874730496359
529,0.168059758692084
530,0.167426009972482
531,0.167642004411599
532,0.166929816662255
533,0.16799949313353
534,0.168520557772988
535,0.166547914638855
536,0.167449694072955
537,0.166224810665863
538,0.16515556297382
539,0.163986645355197
540,0.164267115564761
541,0.163321315488143
542,0.162498701113671
543,0.162676954764284
544,0.163744834257221
545,0.162844217699079
546,0.164354650093978
547,0.164228002335535
548,0.164101354577093
549,0.163974706818651
550,0.163130435148504
551,0.163622012380118
552,0.165427138843781
553,0.163729415224415
554,0.163225440636207
555,0.164737240541204
556,0.162066724528244
557,0.16133380538607
558,0.160237429584212
559,0.158982208889039
560,0.160758689007965
561,0.15753930817536
562,0.160321695588961
563,0.157950797442472
564,0.158580563467807
565,0.156122122493065
566,0.155258513753991
567,0.153427875008585
568,0.154204113937637
569,0.152857620935318
570,0.152566328638577
571,0.153187442618916
572,0.15308167075276
573,0.153285183580025
574,0.154592240605927
575,0.15281513595481
576,0.15369753482104
577,0.15457993368727
578,0.155462332553499
579,0.156344731419729
580,0.157227130285959
581,0.160343303169372
582,0.159600616276228
583,0.160991652431414
584,0.158535777175462
585,0.157985956041204
586,0.15370726533439
587,0.151507633719125
588,0.14978909136047
589,0.148070549001816
590,0.146352006643161
591,0.147021759425656
592,0.149395022811232
593,0.1500247590353
594,0.153019757700954
595,0.15274307273249
596,0.155495484621009
597,0.156813571904825
598,0.157587809414427
599,0.158523664374346
600,0.160295657600977
601,0.161465016133965
602,0.1638694760631
603,0.162789008036
604,0.164949896699332
605,0.164498035809939
606,0.164557315523217
607,0.16440195859555
608,0.16247951510469
609,0.16317141922789
610,0.162026819791504
611,0.161546498851252
612,0.160257888225592
613,0.159967996629813
614,0.158741306305173
615,0.160713187700197
616,0.158977214460342
617,0.160721595450055
618,0.160531249646841
619,0.161279440885898
620,0.161157961407468
621,0.162455236547589
622,0.159344304911867
623,0.159333025096526
624,0.158489072426185
625,0.157645119755845
626,0.156801167085505
627,0.156656013520158
628,0.15618571951123
629,0.156117154309063
630,0.157496413657151
631,0.155419733964629
632,0.15721704827158
633,0.158122687397807
634,0.15846497758486
635,0.159979755438653
636,0.158311155059304
637,0.160435226404341
638,0.159674066736025
639,0.160485184645585
640,0.160134779608235
641,0.159399602106542
642,0.158693292326309
643,0.157493047354137
644,0.156292802381964
645,0.155092557409791
646,0.155129417335215
647,0.154756496236285
648,0.151917333578838
649,0.154740587187061
650,0.153621398139862
651,0.155595135511514
652,0.153609695041722
653,0.152080144517393
654,0.149586684351673
655,0.151733256421975
656,0.150104637291392
657,0.152615746688218
658,0.154344655284804
659,0.158965409836989
660,0.16056597175777
661,0.161234959052663
662,0.163112618639017
663,0.162322552204054
664,0.162115845566689
665,0.162855034997952
666,0.163116665345377
667,0.163426447751169
668,0.16345337293539
669,0.161301399201922
670,0.162396418064487
671,0.162262630486619
672,0.161517588912619
673,0.162290297097649
674,0.162603433305891
675,0.162444520889828
676,0.162495622438739
677,0.163915755053769
678,0.162141613012988
679,0.162028634011682
680,0.166112628789625
681,0.162856147587442
682,0.159508982588284
683,0.156605765197262
684,0.151082361677822
685,0.146754707375141
686,0.143171686536265
687,0.139736357435921
688,0.138532065953569
689,0.139319941932506
690,0.140206972512919
691,0.142757956242365
692,0.142036308232597
693,0.144005341652935
694,0.146123712102444
695,0.14679459562585
696,0.149356112799019
697,0.15029146781169
698,0.148676911089693
699,0.149355685272246
700,0.151395553314552
701,0.151174924049314
702,0.15423269013529
703,0.155300969555788
704,0.157949816804943
705,0.159366649038922
706,0.162456081257107
707,0.164932208134166
708,0.165660546408368
709,0.168090511615144
710,0.167138275064633
711,0.167675013772386
712,0.167974579000602
713,0.160930501112658
714,0.156317004423241
715,0.14693566738551
716,0.138735895840131
717,0.132715169309331
718,0.130955670561969
719,0.1325422013574
720,0.134891973182757
721,0.134346755849648
722,0.138411958255825
723,0.138296605153451
724,0.137198381618069
725,0.13846245381691
726,0.137904397427025
727,0.140460049078589
728,0.143670182991356
729,0.14855935167418
730,0.15342277487922
731,0.160214016893104
732,0.166369586960781
733,0.173725094429424
734,0.178068141888275
735,0.180837012702543
736,0.185385134644735
737,0.18813140130407
738,0.190877667963406
739,0.193623934622742
740,0.198950070969859
741,0.200827511476556
742,0.203604783646286
743,0.206382055816017
744,0.209159327985747
745,0.210448492129037
746,0.211394632697054
747,0.212860410181574
748,0.211128783463448
749,0.213083956174847
750,0.213625220096964
751,0.213772777812456
752,0.217115476026327
753,0.21597625869362
754,0.213610240822067
755,0.2000273727867
756,0.186444504751333
757,0.172861636715966
758,0.150363266150931
759,0.130257853379127
760,0.116081374723605
761,0.113794747796476
762,0.118361836293748
763,0.127712705837661
764,0.141773386809622
765,0.155282159899128
766,0.172569670393714
767,0.188105415646618
768,0.197634314857412
769,0.205280633714134
770,0.211024446424042
771,0.214254205799112
772,0.216519979856204
773,0.220256816793762
774,0.218978064159472
775,0.219728256849887
776,0.22068301272307
777,0.218511990181395
778,0.221143496318685
779,0.219057478349854
780,0.222028541612293
