"wavelength","measurement"
380,0.0242048985686764
381,0.0238003137383705
382,0.0235143490762024
383,0.0228015287733235
384,0.0229383849599644
385,0.024034269385386
386,0.0254193859510122
387,0.0266874875925989
388,0.0281854599281996
389,0.0284443223717065
390,0.0282785010520132
391,0.0280904009494707
392,0.0284002364677995
393,0.0285583973039706
394,0.0294770777376238
395,0.0309932796299612
396,0.0342485712799966
397,0.0379808560261028
398,0.041713140772209
399,0.0454454255183152
400,0.0475918047374731
401,0.0505791132960645
402,0.0525012573310344
403,0.0531327420255899
404,0.0533382264814974
405,0.0535472419126957
406,0.0540820258756539
407,0.0544668704209784
408,0.054744253769945
409,0.0563049427135117
410,0.0585719462595678
411,0.0587678353101277
412,0.0606993659652628
413,0.0615661104994784
414,0.0616195930374549
415,0.0625162740796254
416,0.0619722827131273
417,0.0622565995340687
418,0.0628306932636506
419,0.0618555104662814
420,0.0636034938909366
421,0.0634856110542149
422,0.064170279949484
423,0.0645208791837885
424,0.0648021891984338
425,0.0635123287967084
426,0.0634757956056
427,0.0614190410758627
428,0.0598732191105986
429,0.0601141220076934
430,0.059632876554351
431,0.0622579545634688
432,0.0644858702519072
433,0.0665950572020238
434,0.0692767305132372
435,0.0706331426706838
436,0.0713414045132511
437,0.0724856007360652
438,0.0736297969588794
439,0.0747739931816935
440,0.0750191475926626
441,0.0762086997562764
442,0.0779543562504787
443,0.0783504286180652
444,0.079600934243353
445,0.0808514398686408
446,0.0821019454939286
447,0.0831706780713861
448,0.0833052205921072
449,0.0859220663339631
450,0.0857142184261403
451,0.0852704773541144
452,0.0850339267464448
453,0.0847973761387753
454,0.0845608255311058
455,0.0843702071129921
456,0.0845355941006801
457,0.0856910251280412
458,0.0857582631343158
459,0.0873238487960436
460,0.0873949258500639
461,0.0868666813914116
462,0.0885683618643154
463,0.0868577988028249
464,0.085744125794113
465,0.0855885474897492
466,0.0842039624988159
467,0.084131056087522
468,0.0833062732801949
469,0.0825260844295739
470,0.0842356615368711
471,0.084404300303423
472,0.0846569316719021
473,0.0859405635819169
474,0.0861380497928398
475,0.0873289428062556
476,0.0856061394157534
477,0.0857885027658163
478,0.0859708661158792
479,0.0861532294659422
480,0.0856918998452119
481,0.0836465565298077
482,0.0823711510075004
483,0.0818281020184337
484,0.0797357156282052
485,0.0783122722848222
486,0.0792374369948616
487,0.0793192881251577
488,0.0806263165096848
489,0.0824364797516498
490,0.0830618488263207
491,0.0842367020701711
492,0.0856419380732327
493,0.0849737414051677
494,0.0863337218464878
495,0.0853265717308236
496,0.0858603769407389
497,0.084431595061857
498,0.0850061445825799
499,0.0831822781107235
500,0.0835046145349272
501,0.0828498695895348
502,0.084309786969255
503,0.0847643598675864
504,0.0838813836115021
505,0.0867016621264456
506,0.0862112830899485
507,0.0867139275415923
508,0.0872578948047525
509,0.0875119753989474
510,0.0863090164213228
511,0.0874766222013763
512,0.0870705174249832
513,0.0848280393386993
514,0.0841681268677385
515,0.0827296270455932
516,0.0825199699787714
517,0.0819654331824561
518,0.0818578926384671
519,0.0836221881884591
520,0.0852347653933408
521,0.0861541637510128
522,0.0870735621086848
523,0.0879929604663569
524,0.0877372651004923
525,0.0877950417962154
526,0.088152790127762
527,0.0875838631399894
528,0.0882728114811746
529,0.0893496411260688
530,0.0895229598491485
531,0.0897860948480394
532,0.0892886554229324
533,0.0903902491065059
534,0.0903912827490809
535,0.0894296756019448
536,0.0904056418911226
537,0.0899634145197724
538,0.0893223784232185
539,0.0887068201734711
540,0.0890291831661552
541,0.0882222912848305
542,0.0876139741557954
543,0.0880798268603353
544,0.088765383399537
545,0.0882527302042107
546,0.0889950494165039
547,0.0889839371211452
548,0.0889728248257865
549,0.0889617125304278
550,0.0881575449096514
551,0.0887561350668602
552,0.089526288466246
553,0.0891314345966693
554,0.0887349327596319
555,0.0895461110401878
556,0.0882223622812854
557,0.0880905119750236
558,0.0875487936580059
559,0.0866474047012826
560,0.0879019171213751
561,0.0865395070035821
562,0.0879939246132468
563,0.0864442188704345
564,0.0870550945018634
565,0.0858065404339072
566,0.0851200450702504
567,0.0840073083463814
568,0.0848590557645087
569,0.0834857558988443
570,0.0835666923891056
571,0.0837993669960828
572,0.0836549075593056
573,0.083630512552531
574,0.0842072764806712
575,0.0830003695169462
576,0.0832654914766202
577,0.0835306134362943
578,0.0837957353959683
579,0.0840608573556424
580,0.0843259793153164
581,0.0854126089634516
582,0.0848833571420492
583,0.0852252336355269
584,0.0835333990835845
585,0.0831623371634973
586,0.0802695549325622
587,0.0787664716257915
588,0.0775815140383933
589,0.0763965564509951
590,0.075211598863597
591,0.0755445443819975
592,0.0763479723712595
593,0.0764862878348426
594,0.0777946860075195
595,0.0777642869544476
596,0.0783485426554353
597,0.0789471074948404
598,0.0791245128085317
599,0.0794857973316094
600,0.0804160382173383
601,0.0807826180312928
602,0.0815328945097375
603,0.0809952598622941
604,0.0820700072723967
605,0.081417050148257
606,0.0817456834993895
607,0.08126339034756
608,0.0802012512784687
609,0.0803271134993147
610,0.0798487892585549
611,0.0793645136141167
612,0.0786099581066596
613,0.078329528649609
614,0.0771910505724377
615,0.0785579402584058
616,0.0775271123628501
617,0.0781229515307294
618,0.0778964079485625
619,0.0781540731153931
620,0.0781264270340197
621,0.0785122638733424
622,0.0771787618953108
623,0.0768200295038653
624,0.0763033145649386
625,0.0757865996260119
626,0.0752698846870853
627,0.0753358889956698
628,0.0747028185116735
629,0.0746396136003221
630,0.0753535310827408
631,0.0743209524025606
632,0.0747741845905364
633,0.0753155617647007
634,0.0754317691185755
635,0.0758835073542719
636,0.0753226027430849
637,0.0760995762201718
638,0.0757097042109675
639,0.0759842909986869
640,0.0757791019298626
641,0.075520212390235
642,0.0750434797369215
643,0.0743394395184794
644,0.0736353993000373
645,0.0729313590815953
646,0.0728293934294723
647,0.0724651469889165
648,0.0714046307233764
649,0.0723649763653032
650,0.0719815056811964
651,0.0724148888487493
652,0.0717408729695991
653,0.0708054327591641
654,0.0696385903561628
655,0.0704178801904902
656,0.0696871450414854
657,0.070740495939708
658,0.0714641175412857
659,0.073481091978215
660,0.0744312458720768
661,0.0746754645675377
662,0.0751090541934494
663,0.0749008011824572
664,0.0745286243322877
665,0.0747749306770327
666,0.0753052677953132
667,0.0752477004066077
668,0.0755078135266453
669,0.0737877530684802
670,0.0745614219364878
671,0.0742370867630303
672,0.0740541979800595
673,0.074490418678426
674,0.0745308266902956
675,0.074308470788558
676,0.074393464559857
677,0.0748858209605936
678,0.0737758670323112
679,0.073947903167707
680,0.0754758542968696
681,0.0744852571465382
682,0.0730331927597611
683,0.0714153435622385
684,0.0690742417608837
685,0.0668044447717866
686,0.065408970808256
687,0.0638587907900217
688,0.0632533390000275
689,0.0632789703555962
690,0.0639673730743652
691,0.0650179241765657
692,0.0653177454994681
693,0.0659326626831153
694,0.0667161077315152
695,0.0669939184769758
696,0.0681703310699629
697,0.0690424703481494
698,0.0678725554429562
699,0.0680144820722
700,0.0693177491381681
701,0.0691840645667587
702,0.0705714627567075
703,0.0710064343777134
704,0.072297166118674
705,0.0727706483152278
706,0.0741977307241125
707,0.0755691568593266
708,0.0759572048024446
709,0.0771896063081584
710,0.076637346008038
711,0.0768066087313997
712,0.0766626034302762
713,0.0734511670185926
714,0.0713205087225647
715,0.0668554670071636
716,0.0630906143643628
717,0.0603735666057625
718,0.0596220209622353
719,0.06044037419992
720,0.0614585135567774
721,0.0612832197330211
722,0.0630416195463854
723,0.0625372879118239
724,0.0624174194987295
725,0.0626631142303544
726,0.0626970396822355
727,0.064047855479986
728,0.0653765098303637
729,0.067565100841812
730,0.0700530969688386
731,0.0730011307223045
732,0.0761384490023902
733,0.0792972532025098
734,0.0818246396725008
735,0.0826934847579606
736,0.0851191513794781
737,0.0864410752594057
738,0.0877629991393334
739,0.089084923019261
740,0.0913376786635347
741,0.0923725209469454
742,0.0935743299967445
743,0.0947761390465436
744,0.0959779480963427
745,0.096216173202991
746,0.0965998545462669
747,0.0976281366721373
748,0.0968018934771607
749,0.09745951294573
750,0.0979713568781526
751,0.0978671099617745
752,0.0992864949020222
753,0.0984022257760722
754,0.097401643869082
755,0.0910292608072673
756,0.0846568777454526
757,0.0782844946836379
758,0.0681170512265526
759,0.0586568832372738
760,0.0520529288266387
761,0.0508651525226206
762,0.0527104413620149
763,0.0570126878665632
764,0.0633140155483912
765,0.0695759611707122
766,0.0774652223891835
767,0.0846318581349592
768,0.0887987805448424
769,0.0923592653502387
770,0.0951017519395637
771,0.0961780539667028
772,0.0972718389456098
773,0.0984936437020321
774,0.0983320574333576
775,0.0985412582320083
776,0.0992174647083927
777,0.0981258097618898
778,0.0997000362805048
779,0.0982849171547788
780,0.0999024661630074
