"wavelength","measurement"
380,0.00385840556101666
381,0.00383444475919948
382,0.00407153501549158
383,0.00393205867092895
384,0.00425036709092863
385,0.00443926161596923
386,0.0047175291496319
387,0.00505753915725552
388,0.00543983007589895
389,0.00576589366964094
390,0.0055556545592813
391,0.00579731512437766
392,0.00601603276950923
393,0.00612668317041182
394,0.00656399358746096
395,0.00714707590906018
396,0.00788511953673224
397,0.00892646485252735
398,0.00996781016832246
399,0.0110091554841176
400,0.0116453129818735
401,0.012512621035822
402,0.0134784466753468
403,0.0137820219724105
404,0.0141815022837597
405,0.0145630420175421
406,0.0150481897414057
407,0.0152606456265318
408,0.0158657478908341
409,0.0164011205378263
410,0.0175286429494547
411,0.0176865406362075
412,0.0185442699807817
413,0.0191121702441098
414,0.0193914436892996
415,0.0199734318374115
416,0.0200094505017471
417,0.020049030406933
418,0.0203434407439118
419,0.0203541402239239
420,0.0208875651998223
421,0.0210581281483061
422,0.021136903903651
423,0.0216081701617934
424,0.0220427956331818
425,0.0215524856120862
426,0.0216789535983995
427,0.021025441292776
428,0.0204934223044085
429,0.0205756149031725
430,0.0208086519003466
431,0.0216728196417274
432,0.0228324054020033
433,0.0242113694745401
434,0.0256495582976528
435,0.0261593603443788
436,0.0265405004657727
437,0.026675293824486
438,0.0268100871831994
439,0.0269448805419128
440,0.0272033428507065
441,0.0275707298121093
442,0.0284096088037913
443,0.0290718939455217
444,0.0297095424341056
445,0.0303471909226895
446,0.0309848394112734
447,0.0314951426400857
448,0.031772204970906
449,0.0331807941234359
450,0.0330669016281977
451,0.0330717331598742
452,0.0332064495025969
453,0.0333411658453196
454,0.0334758821880423
455,0.0334072592398454
456,0.0334997473256762
457,0.0340031209717875
458,0.0343929156320165
459,0.0349401397598137
460,0.0351640409093179
461,0.0349731642137234
462,0.0361183637826809
463,0.0353343419095224
464,0.0349829216336239
465,0.034846892217527
466,0.0345046252910143
467,0.0346876113431096
468,0.034454142443209
469,0.0342465320424049
470,0.0348852586835444
471,0.0350726842784448
472,0.0352698491365586
473,0.0360752762836856
474,0.0360996317854475
475,0.0366197981709787
476,0.0360765104357359
477,0.0362435924405502
478,0.0364106744453646
479,0.036577756450179
480,0.0367927348899572
481,0.0361933393940625
482,0.0355852361780601
483,0.035684735960815
484,0.0350614036499293
485,0.0342982783680712
486,0.0347406262075972
487,0.0352364258041453
488,0.0356738011351769
489,0.0365716872669162
490,0.0368190850103263
491,0.0374023547455549
492,0.0381381122517093
493,0.0378137316235555
494,0.0383654069016356
495,0.0379332013851376
496,0.0381960448312961
497,0.037516956070455
498,0.037774542590837
499,0.0370392890386502
500,0.0371756178710805
501,0.0368831029664672
502,0.0375298523981272
503,0.0376656063728017
504,0.0374327992038721
505,0.0385445873268496
506,0.0385849920140398
507,0.0387814479974633
508,0.0391832507057812
509,0.0392347796519661
510,0.0386206408548184
511,0.0392632007802275
512,0.0391188461960144
513,0.0380259137576814
514,0.0379278474198673
515,0.0373376845978241
516,0.0371042700855185
517,0.0371768665900212
518,0.0370195071988619
519,0.0376770929813987
520,0.0385646192045282
521,0.039028249863014
522,0.0394918805214999
523,0.0399555111799858
524,0.0397975605713506
525,0.0398168047950783
526,0.0402566405880028
527,0.0398930017886761
528,0.0401418393729423
529,0.0406461192116471
530,0.040726276143606
531,0.0409026322761657
532,0.0408859992131336
533,0.0413457022021919
534,0.0416007824559807
535,0.0413678679611125
536,0.041894790900255
537,0.0419467058092283
538,0.0420073341315369
539,0.0423377129503366
540,0.0428750836786011
541,0.0431023621795085
542,0.0431371719005396
543,0.0436344014793835
544,0.0441667258756871
545,0.0439097422224764
546,0.0440985302740433
547,0.0436292900682076
548,0.0431600498623719
549,0.0426908096565362
550,0.0420078364127293
551,0.0419361155096289
552,0.0420221895164392
553,0.0414027840817787
554,0.0411991070970343
555,0.0414929560837956
556,0.0408004835684831
557,0.0406189967590639
558,0.0404213006392967
559,0.0400907522839065
560,0.040500993901177
561,0.0397850041081905
562,0.040572705590005
563,0.0398808176366355
564,0.0401706765203355
565,0.0395668311584935
566,0.0393009887466134
567,0.038744511330136
568,0.0391351245701392
569,0.0385051199722933
570,0.0386026824710719
571,0.0386546530339237
572,0.0387116623154605
573,0.0387615390407829
574,0.0390098457103554
575,0.0386145128658413
576,0.0388366506216288
577,0.0390587883774163
578,0.0392809261332038
579,0.0395030638889913
580,0.0397252016447788
581,0.0402914530759657
582,0.0400839226912458
583,0.0403698922058487
584,0.0396850035562801
585,0.0395677318879001
586,0.0383473523053041
587,0.0376362905013357
588,0.0370365975585642
589,0.0364369046157926
590,0.0358372116730211
591,0.0358920502991534
592,0.0363111027221869
593,0.0360997196890668
594,0.0367564305477565
595,0.0366753437409036
596,0.0369172541440509
597,0.0371138509730415
598,0.0371466804043604
599,0.0373613770022335
600,0.0377612663420291
601,0.0379068879846477
602,0.0379904284919859
603,0.0378391615142668
604,0.038205767445301
605,0.0381333616145632
606,0.0385639524028665
607,0.0388935538734438
608,0.039275491952542
609,0.0401133823908684
610,0.0402647621668508
611,0.0403949745835449
612,0.0399610980166724
613,0.0391811838475894
614,0.0379417759574957
615,0.037834174730939
616,0.0368797618803823
617,0.0368140895079183
618,0.0365757855527924
619,0.0365411693180581
620,0.0362693251083483
621,0.0365649046718874
622,0.0357188659365039
623,0.0356279508766281
624,0.0353511258931108
625,0.0350743009095935
626,0.0347974759260762
627,0.0346330667199449
628,0.0344840370358551
629,0.034271259904223
630,0.0346040254068637
631,0.0339953947658814
632,0.0341642684906831
633,0.0340998384520297
634,0.0339480032468063
635,0.0341415619677652
636,0.033676882970453
637,0.0339722575628655
638,0.0336768794818039
639,0.0338279502020733
640,0.0336107242513422
641,0.0333752810135825
642,0.0329907982828957
643,0.0326343885845268
644,0.0322779788861578
645,0.0319215691877889
646,0.0319393339299624
647,0.0316242294374506
648,0.0311159927118575
649,0.031536489182531
650,0.0312718854247151
651,0.0313921696423369
652,0.0310058765205729
653,0.0304469313912538
654,0.0299448748379151
655,0.0301145760701375
656,0.0296983383170033
657,0.029953680833391
658,0.030279419351627
659,0.0311599492993171
660,0.0313722997705247
661,0.0315806912930371
662,0.0316472068745067
663,0.0314494869110915
664,0.0311870128806915
665,0.031145700540322
666,0.0311544333035443
667,0.0312222290767499
668,0.0312134850762737
669,0.0305917166860836
670,0.0304500710450524
671,0.0305359235521992
672,0.0302182965925374
673,0.0302779318790644
674,0.030258487943268
675,0.0301613457176492
676,0.029895820438814
677,0.0301585514929897
678,0.0296121267226245
679,0.0294717611913203
680,0.0301006682616774
681,0.0294822380111432
682,0.0289302756782929
683,0.0281983372922983
684,0.0271371360075287
685,0.026305485323116
686,0.0255793472312082
687,0.024860632371472
688,0.0245804645178461
689,0.0244064889929217
690,0.0246431666781224
691,0.0249625424400645
692,0.024812122534026
693,0.0249754259541844
694,0.0253797901458079
695,0.0252593441944355
696,0.0257523836097748
697,0.0256684277350574
698,0.0253757370388263
699,0.0252032285242919
700,0.0256633038642756
701,0.0254187119211038
702,0.0258456738781005
703,0.0258693593438819
704,0.0264560145455328
705,0.0266535757804155
706,0.0269000195751608
707,0.027198064156072
708,0.0273735119986041
709,0.0275351867864927
710,0.0270489162793381
711,0.0271909908099513
712,0.0269789566319971
713,0.0257397255426325
714,0.0246512621175853
715,0.0229750491442217
716,0.0214502208405164
717,0.0203638714911667
718,0.0200629368709857
719,0.0199904826484997
720,0.0202583840609775
721,0.0198959089662073
722,0.0205351698405388
723,0.0202328170094858
724,0.0198870894271945
725,0.0199391122008828
726,0.0197333041016345
727,0.0200459754818583
728,0.0201835370410029
729,0.0207970075265013
730,0.0213254824766717
731,0.0219847644357534
732,0.022878585039816
733,0.0235979445401444
734,0.0241360518076257
735,0.0244982262640794
736,0.0246311057336733
737,0.0249067500846884
738,0.0251823944357036
739,0.0254580387867187
740,0.0258096226655213
741,0.0257562517196822
742,0.0259665283593786
743,0.026176804999075
744,0.0263870816387714
745,0.0263109103322013
746,0.0263375307449648
747,0.0264235201119831
748,0.0258711401450015
749,0.0259473489084253
750,0.0257078766896845
751,0.0256479909375947
752,0.0256881698166368
753,0.0254537825308002
754,0.0250941741931167
755,0.0233854547865753
756,0.021676735380034
757,0.0199680159734926
758,0.0173629942379842
759,0.0148750567923173
760,0.0131881451682508
761,0.0126449541088228
762,0.0130830721192067
763,0.0139870716291827
764,0.0154100256354491
765,0.0169176356555868
766,0.0186652759402608
767,0.0203601284248092
768,0.0212273746440482
769,0.0218935255230182
770,0.0225608925236544
771,0.0227927475082449
772,0.0228575374810786
773,0.0231089246339133
774,0.0229307374207577
775,0.0229590849510383
776,0.0228202820314303
777,0.0224944130787503
778,0.0226499485833076
779,0.0223192269772067
780,0.022694302695033
