"wavelength","measurement"
380,0.02225493108824
381,0.0216751963572024
382,0.0212941875438294
383,0.0207667458709514
384,0.020548751877292
385,0.0214923396285886
386,0.0226660474814157
387,0.0236589151728839
388,0.0242600719574498
389,0.0248718759492074
390,0.0248019088109939
391,0.0243406387928174
392,0.0243086244002034
393,0.0243930116783868
394,0.0247716007367299
395,0.0257682210254751
396,0.028420146867379
397,0.0311364773995544
398,0.0338528079317298
399,0.0365691384639053
400,0.0384942640994853
401,0.0404724302375515
402,0.0418973236372292
403,0.0421065740370012
404,0.0416604394832941
405,0.0417252465343277
406,0.0422121263537277
407,0.0419140332825824
408,0.0417722285628696
409,0.042446115048336
410,0.0439045793957295
411,0.0440963770093519
412,0.0446236884282551
413,0.0456340656683791
414,0.0455773784260127
415,0.0456329912580146
416,0.0451539568848536
417,0.0451535083868301
418,0.0449481159133124
419,0.0442710195979933
420,0.0448960173549401
421,0.0447789451318419
422,0.044878218423866
423,0.0449470830188871
424,0.0452796353148612
425,0.0444774288122419
426,0.044077054773297
427,0.0429699779088402
428,0.0413750558529603
429,0.0412850495787334
430,0.0414767872261478
431,0.0429321009122374
432,0.0440177889848535
433,0.0454441652544817
434,0.0473808863216569
435,0.0486128485022632
436,0.0488873158583985
437,0.049641899528133
438,0.0503964831978675
439,0.0511510668676021
440,0.0515059727492304
441,0.052532184108183
442,0.0537905558795143
443,0.0541641434461728
444,0.0550062065484225
445,0.0558482696506722
446,0.0566903327529218
447,0.0577373622683126
448,0.0580134097996683
449,0.0605913722171952
450,0.0598951384007314
451,0.0596304897854978
452,0.059656110000485
453,0.0596817302154721
454,0.0597073504304593
455,0.0598506631454397
456,0.0597390320689354
457,0.0602180417799906
458,0.0609140987603216
459,0.0613598998814666
460,0.0618316060088804
461,0.0610905984115352
462,0.0631760660168603
463,0.0613359385426732
464,0.0605981198285487
465,0.0603707191052709
466,0.0598136457378345
467,0.05941218105527
468,0.0591141519731926
469,0.0586683463739895
470,0.0596306735488865
471,0.0598951019548782
472,0.0601054223824429
473,0.0610646711341578
474,0.061002146931095
475,0.0622674677793845
476,0.0609365127311273
477,0.0609814617780474
478,0.0610264108249675
479,0.0610713598718876
480,0.0612141981102334
481,0.0597238965774018
482,0.0588941598879727
483,0.0585913220299046
484,0.0571148945055258
485,0.0555080874064281
486,0.0560885788026426
487,0.056527114330575
488,0.0570507354998057
489,0.0586253847146039
490,0.0590478370537128
491,0.0597977824766117
492,0.0611826787650528
493,0.0606212648004852
494,0.0616451583353034
495,0.0608992931065529
496,0.0611570198685643
497,0.0604406570818473
498,0.0606410500893118
499,0.0593535471178985
500,0.0595174756394721
501,0.0590640043281286
502,0.0599679907249954
503,0.0603146870717944
504,0.0595862416154242
505,0.0616488837750569
506,0.0614598753789242
507,0.0617201714222228
508,0.0624669446425264
509,0.0625834550411013
510,0.0619128313811487
511,0.0627373176565295
512,0.0625921823385825
513,0.0608417791188953
514,0.0607452184109624
515,0.0596060229198694
516,0.0594158365437662
517,0.059225199568372
518,0.0590041359962018
519,0.0603640097508158
520,0.0614876030701767
521,0.0624442737484534
522,0.0634009444267301
523,0.0643576151050068
524,0.0640105412782985
525,0.0640444911939045
526,0.0647069153494635
527,0.0643198451436248
528,0.0646946030890751
529,0.0655453729058783
530,0.0657969581275263
531,0.0662632350181683
532,0.0660970381539127
533,0.0665988461846132
534,0.0668314688173258
535,0.0662591777829317
536,0.0670790417533226
537,0.0664943122936816
538,0.0660085402692994
539,0.065652999593716
540,0.0660109607273922
541,0.0656076654976571
542,0.0650874039579881
543,0.0657584694376786
544,0.0659431124140809
545,0.0658024532640515
546,0.0661912587347838
547,0.0662965456521692
548,0.0664018325695546
549,0.0665071194869399
550,0.0660773975966989
551,0.0667456015760511
552,0.0673767337060797
553,0.0667415090704712
554,0.0666546429826642
555,0.067294321898811
556,0.0665989414501276
557,0.06652674766955
558,0.0660381800340342
559,0.0657277456841911
560,0.0664834709324334
561,0.0653013059949747
562,0.0665664254919928
563,0.0655715577527044
564,0.0658711239162905
565,0.0651157506657097
566,0.0644877722365664
567,0.0637002691499364
568,0.0640501335609016
569,0.0632061147202208
570,0.0631409999449576
571,0.0632835092007833
572,0.0632152599766857
573,0.0633217718787771
574,0.0637532496977113
575,0.0629769070068786
576,0.0632144943679814
577,0.0634520817290842
578,0.063689669090187
579,0.0639272564512898
580,0.0641648438123926
581,0.0651771794971956
582,0.0648533162156307
583,0.0652288397677041
584,0.0637993919622946
585,0.0637117809220452
586,0.0614072044681764
587,0.0602127639901378
588,0.0592647390131405
589,0.0583167140361431
590,0.0573686890591457
591,0.0576457685014888
592,0.0583408276193329
593,0.0585680315935558
594,0.0596439647828184
595,0.0597432386272341
596,0.0609377982128268
597,0.061287469909941
598,0.0617470073521605
599,0.0622925580853057
600,0.0630984813491295
601,0.0636638440962419
602,0.064181581277804
603,0.0642435859710677
604,0.0653328510429357
605,0.0650831080232999
606,0.0651800965939752
607,0.0648307071300112
608,0.0642188108665999
609,0.0641663129238916
610,0.0637937683792942
611,0.0634468241840402
612,0.0630168774173896
613,0.0630288228063959
614,0.0621405900472573
615,0.0630238366832263
616,0.0622136350056714
617,0.0627282622922171
618,0.0627761311514457
619,0.0629461783989188
620,0.0628714686401659
621,0.0632935677113995
622,0.0619612862410722
623,0.062158973110166
624,0.0616215515163314
625,0.0610841299224968
626,0.0605467083286622
627,0.0604617558325726
628,0.0602641668413681
629,0.060041966840546
630,0.0607287302295626
631,0.0600012685790602
632,0.060611944472235
633,0.0610064119881179
634,0.0612256527529934
635,0.0616880222621255
636,0.0611438567318077
637,0.0618537608041719
638,0.0615979504108383
639,0.0616825014648712
640,0.0614575960134566
641,0.0612474930693091
642,0.0607641631925758
643,0.0600983616110692
644,0.0594325600295626
645,0.0587667584480559
646,0.0587345161782067
647,0.0584192169767561
648,0.0570630240037712
649,0.0584167078607018
650,0.057784538694142
651,0.058373273004531
652,0.0579644238541185
653,0.0571384666248053
654,0.0562691675449775
655,0.0569626942759152
656,0.0563856699498638
657,0.0571232839971838
658,0.058011462292348
659,0.0598173543157369
660,0.060343625279668
661,0.060914840130353
662,0.0609888019510568
663,0.0610300117281852
664,0.0607072037225749
665,0.0611304614120721
666,0.0612163565624221
667,0.0613142934573807
668,0.0616498738666981
669,0.0605005122844665
670,0.0607283837564407
671,0.0607855546442309
672,0.0604440524674611
673,0.0606524617759283
674,0.0609868506447946
675,0.0607719892540447
676,0.0609231350417193
677,0.0613465844214743
678,0.0606299112109035
679,0.0605202439343001
680,0.0620896396926193
681,0.0609625134686286
682,0.0599344776803306
683,0.0587923391961678
684,0.0568311177149904
685,0.0552091779234165
686,0.0536982353124385
687,0.052492072255314
688,0.0519727001329222
689,0.0520608944340067
690,0.052609966624303
691,0.0534253861855776
692,0.0536435875999191
693,0.0543279237326795
694,0.0553874062079988
695,0.0557670538315807
696,0.0572040255770298
697,0.0581135227462601
698,0.0574593949252767
699,0.0577762238120795
700,0.0589865654719186
701,0.0590865725752041
702,0.0607723589709122
703,0.0613774009779588
704,0.0631599690294315
705,0.0638078684496738
706,0.0654272471299059
707,0.0663863741271241
708,0.0675085163773244
709,0.0687104954957628
710,0.068806037035874
711,0.0691603940779729
712,0.0697093699448213
713,0.0665616419518144
714,0.0649691759856006
715,0.0605214012767346
716,0.0567993503223421
717,0.0543160992356188
718,0.0538079958708704
719,0.0539068109203575
720,0.0554378027644616
721,0.0554076555942104
722,0.0576688955356207
723,0.0575612114187111
724,0.0573453688460538
725,0.058006043243111
726,0.0578060541462908
727,0.0593883968267116
728,0.0606228907056302
729,0.0634102042879642
730,0.0660727925563635
731,0.0695377529439049
732,0.0731862602516779
733,0.0769503247425521
734,0.0797114121674948
735,0.0812563456233999
736,0.0840366596367635
737,0.0858168947726103
738,0.0875971299084572
739,0.089377365044304
740,0.0920581012973745
741,0.0937828382728465
742,0.095356355725225
743,0.0969298731776034
744,0.0985033906299818
745,0.0995058651474053
746,0.100113084583038
747,0.10115751546653
748,0.100496565745207
749,0.101300165218309
750,0.102107937832507
751,0.101666521231906
752,0.103228503767558
753,0.102619911758625
754,0.102061746662935
755,0.0955687297443283
756,0.089075712825722
757,0.0825826959071157
758,0.0715960887716633
759,0.061884269975408
760,0.0536927712965161
761,0.0515495522777106
762,0.053047669294939
763,0.0575922548270603
764,0.0639766248096882
765,0.0710678438630574
766,0.0795600945513788
767,0.087721621674732
768,0.0925245317391481
769,0.097186828363069
770,0.0998082055628104
771,0.101405348495723
772,0.102728094009427
773,0.104575053306202
774,0.104209110246153
775,0.10433844913757
776,0.105040121103589
777,0.103967078311602
778,0.105514205082178
779,0.103999001739994
780,0.105992687976083
