"wavelength","measurement"
380,0.0164432984925987
381,0.0158371507628315
382,0.0156764347875161
383,0.0153175447718139
384,0.0155665410266488
385,0.0163514016725179
386,0.0169153554897232
387,0.0174825456806802
388,0.0180272869651385
389,0.0181465646353464
390,0.0179759655297531
391,0.0178168866262041
392,0.0175989431266135
393,0.0177239508353448
394,0.017977906713918
395,0.0192117281260414
396,0.021066557554674
397,0.0229653455420245
398,0.0248641335293751
399,0.0267629215167256
400,0.0279019557088201
401,0.0288367641736656
402,0.0295998870195329
403,0.0293731924517369
404,0.0291484258329247
405,0.0289044357928717
406,0.0292176620301537
407,0.0290813799534308
408,0.0291625418788237
409,0.02948747412631
410,0.0306045988812503
411,0.0304639343848659
412,0.0310656114831417
413,0.0314328265232477
414,0.0309451754257167
415,0.0309607270219243
416,0.0307054529247137
417,0.0303850991428142
418,0.0305574558196736
419,0.0298833905364811
420,0.0306106860408501
421,0.0303715749237706
422,0.030647710261839
423,0.0305023935183316
424,0.0305579807113665
425,0.0298948170874109
426,0.0292827830630108
427,0.028550702309876
428,0.0278114905237105
429,0.0278188668034354
430,0.0277472466192823
431,0.0289216421137131
432,0.0301869660171935
433,0.030964300435101
434,0.0321889301176497
435,0.0325741006408644
436,0.0329847323025899
437,0.0334011253325976
438,0.0338175183626054
439,0.0342339113926131
440,0.0343375234037291
441,0.0349574228026526
442,0.0355698706626391
443,0.0358227332252766
444,0.0363788571763904
445,0.0369349811275042
446,0.0374911050786179
447,0.0379902525807322
448,0.0382773551911044
449,0.0391120437335926
450,0.0391207979769363
451,0.0387228401965237
452,0.0386024936771299
453,0.0384821471577361
454,0.0383618006383423
455,0.0382625511551875
456,0.0385512046257532
457,0.0388687003371399
458,0.0392088954218344
459,0.0395715356924186
460,0.0396104357554551
461,0.0390849793720671
462,0.0399074380452433
463,0.0389522732895042
464,0.0383726370821813
465,0.0380055325997122
466,0.0373127986593925
467,0.0374237854761453
468,0.0370714845943294
469,0.0368281528457135
470,0.0377301648516253
471,0.0375390340627137
472,0.0376708925072597
473,0.0379769425196357
474,0.0379811480772005
475,0.0382768846291252
476,0.0375291272043948
477,0.0374661839509909
478,0.037403240697587
479,0.037340297444183
480,0.0372152046930896
481,0.036075543946091
482,0.0353979774819292
483,0.0354033931898077
484,0.0345970781130183
485,0.0340929166282403
486,0.0345350085283538
487,0.0348821080510372
488,0.0353512878513681
489,0.0362442552532186
490,0.0363162631422737
491,0.0366700361330463
492,0.0373054545786838
493,0.0368004271958554
494,0.0373469482005356
495,0.0366808564809784
496,0.036889374912401
497,0.0360899173325749
498,0.0362357428539634
499,0.035351726328353
500,0.0357141060265318
501,0.0353972334815894
502,0.036108519344433
503,0.0363268711685528
504,0.035963847267292
505,0.0369770596960251
506,0.0366654039265108
507,0.0367794845888688
508,0.0369104060320059
509,0.0367794918033015
510,0.0361390362159742
511,0.0365099942474783
512,0.0360882446691147
513,0.0350370411126132
514,0.034679903981283
515,0.0341183425725034
516,0.0340136883820742
517,0.0339504800653219
518,0.0340890338839276
519,0.0346838072655742
520,0.0352403078507979
521,0.0354784400251832
522,0.0357165721995686
523,0.0359547043739539
524,0.0357068123838165
525,0.0356926253880461
526,0.0357139421802942
527,0.035544030330014
528,0.0356698948249855
529,0.0359554867567873
530,0.0359317965990896
531,0.0359860325212358
532,0.0358248540274576
533,0.0361422131460016
534,0.0363039344108873
535,0.0358802881253633
536,0.0362318964059339
537,0.0358619846878771
538,0.0357247091592442
539,0.0353942243442034
540,0.0356049855721466
541,0.035382576293871
542,0.0352242323073312
543,0.0353301448483239
544,0.0354039585277609
545,0.0352198672726337
546,0.0354418593993095
547,0.0353908099573262
548,0.0353397605153428
549,0.0352887110733594
550,0.0350854513798021
551,0.0353325598106017
552,0.0354616284839312
553,0.0352172884831218
554,0.0350758183086223
555,0.0353703360121376
556,0.0349150284069254
557,0.034760814699052
558,0.0346499605848204
559,0.0342595153158244
560,0.03462595747065
561,0.0340857801205451
562,0.0345026930266686
563,0.0339388784747285
564,0.0339726567327902
565,0.0335375356970218
566,0.0332737261156757
567,0.0329479089109458
568,0.0331414265380995
569,0.0326805746365728
570,0.0326567857253744
571,0.0326018072610489
572,0.03255164670485
573,0.0324890339279999
574,0.0326702583984003
575,0.0322933283145631
576,0.0324740193904926
577,0.0326547104664221
578,0.0328354015423516
579,0.0330160926182811
580,0.0331967836942105
581,0.0335819975939408
582,0.0335006486731648
583,0.0337337387155191
584,0.0332494328966059
585,0.0331307058900296
586,0.0324576508955102
587,0.0322238321984989
588,0.0320233621232984
589,0.0318228920480979
590,0.0316224219728975
591,0.0317686199053546
592,0.0320509679290722
593,0.0319221032325807
594,0.0323450681529798
595,0.0321591338379153
596,0.0323770829500705
597,0.0323999957909308
598,0.0322142220525088
599,0.0321499497798463
600,0.0323733209430052
601,0.0325980567511617
602,0.0327506360125926
603,0.0324119867607272
604,0.0328186528325845
605,0.0326456933899717
606,0.0325484650268118
607,0.0325197290893986
608,0.0321571067186045
609,0.0321120471715296
610,0.0319151303991147
611,0.0317017364526133
612,0.0314729698992942
613,0.0313805083935735
614,0.0311695502157398
615,0.031599452451709
616,0.0312438156225617
617,0.0315112842189641
618,0.0315100722122632
619,0.0315414768151812
620,0.0314316850461508
621,0.0316510371378761
622,0.0309139372003359
623,0.0308563555978158
624,0.0305944527842979
625,0.0303325499707801
626,0.0300706471572622
627,0.0300255890064978
628,0.0298546340417416
629,0.0298949146504308
630,0.0302682434848276
631,0.0299987371342205
632,0.0302907997080627
633,0.0305779685860091
634,0.030785470029244
635,0.0310074374937758
636,0.0307622515539476
637,0.0311046389047342
638,0.03090757132346
639,0.0311104451220672
640,0.0310553800815297
641,0.0310428642859599
642,0.0309891617019061
643,0.0309084981975836
644,0.0308278346932611
645,0.0307471711889387
646,0.0309812036069265
647,0.0311073559603287
648,0.0306236806701208
649,0.0311076296710767
650,0.0307547077204566
651,0.0309481359876448
652,0.0304677827131582
653,0.0300714776763439
654,0.0295450460772034
655,0.0300051009437035
656,0.0299494501343891
657,0.0301747029462024
658,0.0304101645677254
659,0.0310615206875061
660,0.0311386745414095
661,0.0313156687072826
662,0.0314043836584831
663,0.0312058722203594
664,0.0309701607143473
665,0.0312324305337359
666,0.0311175925402359
667,0.0312787973603816
668,0.0312803099965948
669,0.0307119679466686
670,0.0310190737722342
671,0.0309487502752987
672,0.0308986291521873
673,0.0309725476482787
674,0.031059082740879
675,0.0311052556627615
676,0.0310284004993256
677,0.0312678556123631
678,0.0310365116170211
679,0.0307687760882522
680,0.031767413095893
681,0.0311888964353879
682,0.0299183463255698
683,0.0291582110526402
684,0.0278731037267478
685,0.0267476074317666
686,0.0259516979674731
687,0.0257253267115273
688,0.0257110618025653
689,0.0263651705046055
690,0.0272158995163732
691,0.0283008348803116
692,0.0287447521244532
693,0.029371302445735
694,0.0301728987935713
695,0.0302031765036241
696,0.0308148952493217
697,0.0309948723980612
698,0.0307585143524986
699,0.0310724894360662
700,0.0317045526073104
701,0.0315578827255516
702,0.0320349042482761
703,0.0321643459590967
704,0.0327165097644685
705,0.0327331690458043
706,0.0331269020277041
707,0.0334909730147026
708,0.0335889851296065
709,0.0338116982409617
710,0.0335124249973076
711,0.0334527143700776
712,0.0335788064440682
713,0.032481193038129
714,0.0321751299339559
715,0.0310807715712797
716,0.030354449461838
717,0.0299396881964371
718,0.0298511132432397
719,0.0301989113347591
720,0.0306208018659043
721,0.0301250264279141
722,0.0309717996257152
723,0.0309941992602582
724,0.0309459782970478
725,0.0312202977133925
726,0.0311646858450541
727,0.0316217281673619
728,0.0320306050979454
729,0.0326878115559864
730,0.0329918007099095
731,0.033785961449907
732,0.034363269985868
733,0.0351014599818634
734,0.0352620979374544
735,0.035487806979462
736,0.0357470205435941
737,0.0358229537041166
738,0.0358988868646391
739,0.0359748200251617
740,0.0365879104054172
741,0.0366161784980476
742,0.0367737711897508
743,0.036931363881454
744,0.0370889565731572
745,0.0370643141136289
746,0.0370669372592658
747,0.0373388541941157
748,0.0368800843835325
749,0.0371207859664801
750,0.0371139833175217
751,0.0370137604882939
752,0.0374049250731443
753,0.0370794417794183
754,0.0356236133702006
755,0.0324929605792647
756,0.0293623077883288
757,0.0262316549973929
758,0.021970242847882
759,0.0185483407833418
760,0.01719995957543
761,0.0169537546124361
762,0.0180344748661733
763,0.020354132880826
764,0.0230489539018372
765,0.0257975145901077
766,0.0288633351007723
767,0.0317488358775917
768,0.033404156071589
769,0.0344861535712147
770,0.0354990732697434
771,0.0361099880130653
772,0.0364488131705588
773,0.0369603047063521
774,0.0369985749714856
775,0.0370381646991264
776,0.0372293043905804
777,0.0369987597661512
778,0.0376240102166685
779,0.037153145633986
780,0.0376118758706858
