"wavelength","measurement"
380,0.00868586569971035
381,0.00844694764863549
382,0.00834438665483365
383,0.00829570595458445
384,0.00838223446611228
385,0.00895809086129316
386,0.00918691963491753
387,0.00963818680810096
388,0.0100212036518679
389,0.0102510618105105
390,0.0102487874427699
391,0.0103123793037538
392,0.0103176671079722
393,0.0104554588333894
394,0.0110853041404675
395,0.0120034082120722
396,0.0133580893824172
397,0.0147946365263492
398,0.0162311836702813
399,0.0176677308142133
400,0.018539363706247
401,0.0193737897472908
402,0.0202343096521661
403,0.0203602853561883
404,0.020577919804157
405,0.0207719536670029
406,0.0212172508906658
407,0.0215969485854445
408,0.0218546530516308
409,0.0222890317791687
410,0.0233659669153447
411,0.0236846059374829
412,0.0240158676305182
413,0.0244414202205493
414,0.024345659602841
415,0.0244688454252486
416,0.0241865266624641
417,0.0240662685689269
418,0.0244261320239824
419,0.0238290083469158
420,0.0244526598804519
421,0.0242315302750553
422,0.0243923528969862
423,0.0243481825884968
424,0.0244785367628354
425,0.0238019997967565
426,0.0234330118716599
427,0.0227427449493945
428,0.0221486126171827
429,0.0223767185395428
430,0.0223709741548803
431,0.0233967874122011
432,0.0241616136793129
433,0.0248590123808521
434,0.0256832247091578
435,0.0261044524315228
436,0.0262947857637689
437,0.0266658058373566
438,0.0270368259109443
439,0.027407845984532
440,0.0275004487137575
441,0.0278085056731237
442,0.0283717631934089
443,0.0286180687623464
444,0.0290717346781281
445,0.0295254005939098
446,0.0299790665096915
447,0.0304189185827837
448,0.0303333178230215
449,0.0312346311465023
450,0.0308515546860549
451,0.0306976004407931
452,0.0305541316206272
453,0.0304106628004613
454,0.0302671939802953
455,0.0301909355892987
456,0.0302570907613462
457,0.0307026184937608
458,0.0307407653319864
459,0.031133269799306
460,0.0310486539269682
461,0.0306452325043952
462,0.0312489417087867
463,0.0303617563389559
464,0.0300266732218053
465,0.0297745268590588
466,0.0293858397400572
467,0.0293525136839003
468,0.0292437642304175
469,0.0291084960481753
470,0.0297370967130553
471,0.0297329734155054
472,0.0298110218820588
473,0.0300558229177416
474,0.030220621168392
475,0.0304702874918556
476,0.0298930767619966
477,0.0298908904941698
478,0.0298887042263429
479,0.0298865179585161
480,0.0296711084489508
481,0.0288357977658712
482,0.0283315995326136
483,0.0281809292370162
484,0.0277541048420604
485,0.0272452456488492
486,0.0276327468668576
487,0.0279569468797758
488,0.0283213595158118
489,0.0288838398833562
490,0.0289507904076522
491,0.0290836744470448
492,0.0296507459649604
493,0.0292716933656829
494,0.029555990905766
495,0.0289894129940301
496,0.0291243750562058
497,0.0284831459789435
498,0.0285797686687683
499,0.0278595959241532
500,0.0281397183533369
501,0.0279263085092309
502,0.0284158327262828
503,0.0287027827827981
504,0.0281358534603409
505,0.0289998185481948
506,0.0287426841942842
507,0.028731618966133
508,0.0287759207028981
509,0.0286061882059475
510,0.0280355666762067
511,0.0282747117324419
512,0.0278960188890429
513,0.0269390498860223
514,0.0266891445805023
515,0.0262558143696463
516,0.0261729350182624
517,0.0260791429307166
518,0.0260421991585499
519,0.0265259593082152
520,0.0269199154399146
521,0.0270393300459258
522,0.0271587446519371
523,0.0272781592579483
524,0.0269815879433848
525,0.0270537017056646
526,0.026895195311161
527,0.0267864695818305
528,0.0268481261620141
529,0.0269508544167582
530,0.0269191239906566
531,0.0268890009373365
532,0.0267703179123302
533,0.0269530394609653
534,0.026919415784961
535,0.026595947538714
536,0.0267849218936909
537,0.0266402536490954
538,0.0264211754221238
539,0.0262046326447879
540,0.0263737394041084
541,0.0261765230813927
542,0.026036771308289
543,0.0260024144043262
544,0.0260972905553028
545,0.025927867601237
546,0.0260261803491542
547,0.0259602652904162
548,0.0258943502316782
549,0.0258284351729402
550,0.0257845432308926
551,0.0258792350897083
552,0.0260506003510699
553,0.025746522010455
554,0.0255386632045155
555,0.0258638270248456
556,0.0253921091558306
557,0.0253151393414861
558,0.0250925165786178
559,0.0247936619062828
560,0.0250661573067704
561,0.0246067508159327
562,0.0248789966180881
563,0.0244911689632797
564,0.0244231208402341
565,0.0241395652826453
566,0.0240048370478237
567,0.0236107525750122
568,0.0238207881762019
569,0.0235370795453587
570,0.0234419563854279
571,0.0235007101137394
572,0.0234358393953054
573,0.0233633085321555
574,0.0234809361863386
575,0.0232281110729263
576,0.0233788324354315
577,0.0235295537979367
578,0.0236802751604419
579,0.0238309965229471
580,0.0239817178854523
581,0.0242797101134624
582,0.0241694533741463
583,0.0243406940069926
584,0.02395174152295
585,0.0240184267823855
586,0.023464911979072
587,0.023362809169388
588,0.0232425879865596
589,0.0231223668037313
590,0.0230021456209029
591,0.0231429473403596
592,0.0233234203024326
593,0.0232990068613995
594,0.0235867348474972
595,0.0234131624443397
596,0.0235622596692535
597,0.0236708445102335
598,0.0235714608652467
599,0.0235202634891677
600,0.0236678686138948
601,0.0237716496158399
602,0.0238666669898518
603,0.0237511555762281
604,0.02400384749609
605,0.0237110139229055
606,0.0237953894172104
607,0.0236768171937241
608,0.0233875023601667
609,0.0233431925831737
610,0.0232478617106469
611,0.0230191961840046
612,0.022982189183247
613,0.0229277818213314
614,0.0227088598814348
615,0.0230678502367716
616,0.0228264260858558
617,0.0230188851663921
618,0.0230071658136623
619,0.0230972874262737
620,0.0228931975772273
621,0.0230535108780015
622,0.0225566220541094
623,0.0225162601532492
624,0.0223471768818264
625,0.0221780936104036
626,0.0220090103389808
627,0.0218941597578819
628,0.0218681879459369
629,0.0219004828331071
630,0.0221780724222738
631,0.0219814218305713
632,0.0222167857321356
633,0.0223386884563745
634,0.0224777390887122
635,0.0226542303119918
636,0.022416756133076
637,0.0226911331997798
638,0.0225955116072705
639,0.0227654975649921
640,0.0227007255785712
641,0.022688821592373
642,0.022624273435586
643,0.0225903193810068
644,0.0225563653264276
645,0.0225224112718484
646,0.0225782947347146
647,0.0227598657614193
648,0.0223555785321917
649,0.0228158581949695
650,0.0224759398867325
651,0.0225736663610061
652,0.0222830758547452
653,0.0219854335622536
654,0.0216004815222284
655,0.0218949719849157
656,0.021884809213567
657,0.0221484227286769
658,0.0222402685005763
659,0.0228010189795757
660,0.0228600767110169
661,0.0229267876446106
662,0.0229368130364781
663,0.0229049280215946
664,0.0226848988944224
665,0.0228826371734068
666,0.0228687651561474
667,0.022925513719266
668,0.0231035377124237
669,0.0226255454184038
670,0.0227522570854153
671,0.0227700103618322
672,0.0227158419499018
673,0.0227728543391177
674,0.0228870398123538
675,0.0228549861457032
676,0.0227856535877187
677,0.0230884632154151
678,0.0228399278370775
679,0.0228176307783922
680,0.0234108325881336
681,0.0228226160429662
682,0.0219515953616709
683,0.0213931751420581
684,0.0204502107477779
685,0.0196750097247375
686,0.0191936038283007
687,0.0191575976827888
688,0.019156960239049
689,0.0196629453049196
690,0.0202788052138502
691,0.0210420179289704
692,0.0214556831310469
693,0.0218868699157241
694,0.0223945361543184
695,0.0225589325749267
696,0.0229416207527775
697,0.0229950761429191
698,0.0228428763582585
699,0.0230626599006053
700,0.0235839787672581
701,0.0235355618335591
702,0.0239808926144768
703,0.0239636087612507
704,0.0244690873456339
705,0.0245309991504823
706,0.0248816599081747
707,0.0250845083511662
708,0.0251456070846954
709,0.0254651100498978
710,0.0252530023383088
711,0.0252527142281338
712,0.0253648487913329
713,0.0246028945299651
714,0.0243664523939202
715,0.0236749582163415
716,0.0231710641656846
717,0.0229610376008905
718,0.0229847894524337
719,0.0234013025674647
720,0.0235085521569412
721,0.0232166327054244
722,0.0240320730283559
723,0.023980855379788
724,0.0241254129306458
725,0.024244235795732
726,0.0242975175661723
727,0.0247614324289973
728,0.0251367575292076
729,0.0256831740414355
730,0.0258828282282115
731,0.0264532060101233
732,0.0268668458779286
733,0.0274937046385903
734,0.0277137679469872
735,0.027864647431405
736,0.0280771948450066
737,0.0282232884419698
738,0.0283693820389329
739,0.0285154756358961
740,0.0289429416571297
741,0.0289631961026274
742,0.0291410995941722
743,0.0293190030857171
744,0.0294969065772619
745,0.0294976648214048
746,0.0296124524766284
747,0.0297617637655916
748,0.0294442795023433
749,0.0298266285207303
750,0.0298248763307888
751,0.0297484549505891
752,0.0300260538041891
753,0.0296659210648629
754,0.0284737773260249
755,0.0258839362101967
756,0.0232940950943685
757,0.0207042539785403
758,0.0173095685782847
759,0.0149790685814882
760,0.0142261719216789
761,0.0142041605698746
762,0.0151869766279807
763,0.0172255230017857
764,0.0194261589692911
765,0.0216171039041979
766,0.0239305987623845
767,0.026143393491122
768,0.0274035181986099
769,0.028406838140924
770,0.0291641165465045
771,0.0296483096715791
772,0.0301153686923954
773,0.0303759338845544
774,0.0302802112414814
775,0.0304791699085209
776,0.0305906500394052
777,0.0303141337733272
778,0.0306785155761839
779,0.0305145121343718
780,0.0308973211015301
