"wavelength","measurement"
380,0.00609459830693807
381,0.00587521535591737
382,0.00580176333414826
383,0.00572842914240374
384,0.0058073049759491
385,0.0060949248857928
386,0.0063188634263906
387,0.0065908151253682
388,0.00683693961363023
389,0.00700241059288293
390,0.00691031293407056
391,0.00685596773448769
392,0.00695705101261231
393,0.00700205209512324
394,0.00727146112957252
395,0.00774513723759184
396,0.00854291435486668
397,0.00941687568631192
398,0.0102908370177572
399,0.0111647983492024
400,0.0116145338561866
401,0.0122061143075382
402,0.0126074265834537
403,0.0126400205086882
404,0.0126330423355479
405,0.0125305272489093
406,0.0127462295439576
407,0.0127536131922366
408,0.0128369935874622
409,0.0130042337169204
410,0.0135185700703052
411,0.0134975793182225
412,0.0137313778475265
413,0.0138903927766781
414,0.0137924903559292
415,0.0138123218210155
416,0.0136174319855353
417,0.0134813079530863
418,0.0136263579218802
419,0.0133176736615538
420,0.0135602339383219
421,0.0135011497371587
422,0.0135863160941773
423,0.0135744000046778
424,0.0135649970590899
425,0.01325815086438
426,0.0130245455642703
427,0.0126533977531196
428,0.0123019865332988
429,0.0123389492267233
430,0.012386731728706
431,0.012875896846564
432,0.0133789650370097
433,0.0137853308183557
434,0.0143165626139112
435,0.0145627581826765
436,0.0147265412372374
437,0.014921217735899
438,0.0151158942345606
439,0.0153105707332223
440,0.0154056856594515
441,0.0156234893251745
442,0.0159521760197491
443,0.0160971301934916
444,0.0163545338652321
445,0.0166119375369725
446,0.0168693412087129
447,0.0171217142648962
448,0.0171763309488376
449,0.0176858249337785
450,0.0175821169963097
451,0.0174330380867224
452,0.017370794696752
453,0.0173085513067816
454,0.0172463079168111
455,0.0172744761143797
456,0.0173125664367767
457,0.0174883243962957
458,0.0175546768618362
459,0.0178109473923619
460,0.0178104034557331
461,0.0175570124915575
462,0.0179853723341337
463,0.0174322989384618
464,0.0172204234294896
465,0.0170637449299133
466,0.0168730838855408
467,0.0167992102770974
468,0.0166695028670128
469,0.0165797721877411
470,0.0168799462770511
471,0.0169079265832897
472,0.0169668744415347
473,0.0171232977995377
474,0.0171022991606218
475,0.0173238004647306
476,0.016891097561037
477,0.0168696624480878
478,0.0168482273351385
479,0.0168267922221893
480,0.0167484588405353
481,0.0163019831641396
482,0.0160087233495837
483,0.0159785039754649
484,0.0156532187595544
485,0.0153919877518645
486,0.0156018425690424
487,0.015794473170293
488,0.0159929869631534
489,0.0163976121590136
490,0.0164753786349903
491,0.0165688116484718
492,0.0169466095348582
493,0.01669936981977
494,0.016948028095849
495,0.016653998199008
496,0.0166904715648323
497,0.0163997396656348
498,0.0164594640172687
499,0.0161294663111881
500,0.0162481269402249
501,0.0161318847577469
502,0.0164694760425774
503,0.0165666879723782
504,0.0163906742035684
505,0.016895896880817
506,0.0167681034696585
507,0.0168132067703082
508,0.0169027432559853
509,0.0168482289637356
510,0.0165451455902919
511,0.0167207616156725
512,0.0165513457229629
513,0.0160162912529602
514,0.0159185218226123
515,0.0156638648249885
516,0.0156276851423813
517,0.0156440205874433
518,0.015613415007369
519,0.0159577821713548
520,0.0162080587020652
521,0.0163403378070479
522,0.0164726169120306
523,0.0166048960170133
524,0.0164749715557903
525,0.0165020087984504
526,0.0165039884191921
527,0.016403139279907
528,0.0165192285972988
529,0.0166901656668201
530,0.0166677929753102
531,0.0166584614943955
532,0.0166160284917451
533,0.0167950690241741
534,0.0168545811691884
535,0.0166686215584824
536,0.0168267523890757
537,0.016706059391355
538,0.0165872529540623
539,0.0165094825153682
540,0.0166152880995396
541,0.0164973125516566
542,0.0163961476975703
543,0.0164747967115911
544,0.0165263241771255
545,0.0164218436872653
546,0.0165360867068459
547,0.0165107772507768
548,0.0164854677947076
549,0.0164601583386385
550,0.0164371240415343
551,0.0165120480499308
552,0.0166514046209201
553,0.0164634178057782
554,0.016404812394193
555,0.0165677177445039
556,0.0163278913883046
557,0.0163173399563896
558,0.0162166738839387
559,0.0160660294571187
560,0.0162764517034041
561,0.0159543093240065
562,0.0162001499810533
563,0.0159360563089248
564,0.0160042935873963
565,0.0157277730235918
566,0.0156354635088727
567,0.0154767941499623
568,0.0155831405096704
569,0.0154063416495298
570,0.0153541873947723
571,0.015375806065273
572,0.0153599246832703
573,0.01530246734335
574,0.0153858088794662
575,0.0151918221054986
576,0.015276859456339
577,0.0153618968071795
578,0.0154469341580199
579,0.0155319715088604
580,0.0156170088597008
581,0.0158292998110343
582,0.0157788111715987
583,0.0158952213983164
584,0.0156304498672608
585,0.0156394025921694
586,0.0152791164281403
587,0.0151704321854509
588,0.0150850708871907
589,0.0149997095889305
590,0.0149143482906703
591,0.0149903268025481
592,0.0151003317892627
593,0.0150464636935888
594,0.0152223163114694
595,0.0151735317735181
596,0.0152254552838303
597,0.0152356423423575
598,0.0151771471217072
599,0.015163806237368
600,0.0152581605445174
601,0.0153296247678492
602,0.0153832793042948
603,0.0152911340635693
604,0.0153889600460739
605,0.0152986837256066
606,0.015318781526935
607,0.0152414340056551
608,0.015079306845122
609,0.0150734456489323
610,0.0149982078166612
611,0.0149100268944065
612,0.0147979813277023
613,0.0147436435317477
614,0.0146303971456533
615,0.0148496075111888
616,0.0146836858541778
617,0.01482208024647
618,0.0147772868888763
619,0.0148357937975474
620,0.0147378970575395
621,0.0148346485074412
622,0.0145217700172779
623,0.0144835649250038
624,0.0143612502586315
625,0.0142389355922592
626,0.0141166209258869
627,0.0140599523785754
628,0.014038331880167
629,0.014022026759003
630,0.0141964863131735
631,0.0140547559956374
632,0.0142328365132212
633,0.0143415960609114
634,0.0144208995672534
635,0.0144852814901489
636,0.0144049840535557
637,0.0145782792759589
638,0.0145149382438758
639,0.0146059445376688
640,0.0145655115340777
641,0.0145767540050712
642,0.0145479701690185
643,0.0145078496728932
644,0.014467729176768
645,0.0144276086806427
646,0.0145467653437106
647,0.0145669434241773
648,0.0143425561752082
649,0.0146042784889172
650,0.0144495687503106
651,0.0144793215146006
652,0.0143184147886187
653,0.0140934316678945
654,0.0138409502171287
655,0.014015540754901
656,0.0139564025364431
657,0.0141056639407425
658,0.0142446802213328
659,0.0145327619747194
660,0.0146126438636648
661,0.0146506437928908
662,0.0146850464164124
663,0.0146286500587101
664,0.0145326887122934
665,0.014578385422675
666,0.0146033551644053
667,0.0146342584496558
668,0.0146974337586657
669,0.0144241461972875
670,0.0145071425510084
671,0.0145136246997271
672,0.0144810580657253
673,0.014503000625826
674,0.0145707519057042
675,0.0145790286896669
676,0.014552854731298
677,0.0146972277616076
678,0.0145304418257147
679,0.0144990855725115
680,0.0148685659937481
681,0.0145309068363871
682,0.0140392346530132
683,0.0136868148883114
684,0.0130491077877824
685,0.0125596480765742
686,0.0121510020879526
687,0.0120503053368965
688,0.0120840074830227
689,0.0123539952931711
690,0.0127859349046075
691,0.0132807273056439
692,0.0135682898238805
693,0.0138423247533364
694,0.0141418557873024
695,0.0141969026746002
696,0.0144586797921598
697,0.0145504665454836
698,0.0144525157688652
699,0.0145201453776192
700,0.0148333726050965
701,0.0147644260125292
702,0.0150204499248838
703,0.0150329395727712
704,0.0153079641298458
705,0.015276372801182
706,0.0154892653223098
707,0.015659887389781
708,0.0156276751386715
709,0.015807255206343
710,0.0156487217647431
711,0.0156675263220619
712,0.0156874252425688
713,0.0151921158354171
714,0.0150503607183255
715,0.0145244726262003
716,0.0141911874328409
717,0.0140283591855225
718,0.0139709131336636
719,0.0141435782902851
720,0.0142773549214037
721,0.0140664288816167
722,0.0144283649464564
723,0.0144541574170006
724,0.0144522048378455
725,0.0145471052705388
726,0.0145033587636311
727,0.0147520257881286
728,0.0149059634751393
729,0.0151981692830904
730,0.0153739231677476
731,0.0156655828971059
732,0.015927128404356
733,0.0162509500412035
734,0.0163886535545065
735,0.0164444521961641
736,0.0165620187686104
737,0.0166014250617271
738,0.0166408313548439
739,0.0166802376479607
740,0.0168836316267209
741,0.0169111121318556
742,0.0169684805381402
743,0.0170258489444247
744,0.0170832173507093
745,0.0170913086239297
746,0.0170443963296053
747,0.0171107744646463
748,0.0169098252751478
749,0.0170049101440472
750,0.0170150694646572
751,0.0169089292053768
752,0.0171572444493818
753,0.0169063532494025
754,0.0163414461757015
755,0.0148979244043262
756,0.013454402632951
757,0.0120108808615757
758,0.00997367447130623
759,0.00846106454842352
760,0.00775175622395756
761,0.00763424388060746
762,0.00809912364989528
763,0.00916647962053499
764,0.0104555354380601
765,0.0116697012804519
766,0.0130659031310374
767,0.0143293071962519
768,0.0151107234805665
769,0.0156770204851977
770,0.0161276687673394
771,0.0163308870523415
772,0.016563511810056
773,0.0168050508431564
774,0.0166903654876997
775,0.0167669124450328
776,0.0168152251390819
777,0.0166517842041687
778,0.0168950811520194
779,0.0166857988481497
780,0.0169514179317685
