"wavelength","measurement"
380,0.00165514124057281
381,0.00166367374861385
382,0.00165919149843226
383,0.00160852697555956
384,0.00168772605104847
385,0.00173540312136278
386,0.00183077756135119
387,0.00193736493342496
388,0.00205077260905159
389,0.00210230343099732
390,0.0020448107667354
391,0.00203903517883479
392,0.00214574473663236
393,0.00215729396896725
394,0.00222450678956881
395,0.00246262851340615
396,0.00274023613714374
397,0.00304807390351005
398,0.00335591166987635
399,0.00366374943624265
400,0.00384322372938386
401,0.00405788207195459
402,0.00423057553517487
403,0.00428564337731071
404,0.00432718439936763
405,0.00437532342263365
406,0.00442318545094001
407,0.00450448472796509
408,0.00454236000664646
409,0.00469068814152573
410,0.00489877626876435
411,0.00492887930926272
412,0.00511105379271399
413,0.00512474082487751
414,0.00514258446598759
415,0.00518146872770863
416,0.0051317855636816
417,0.00514494756712604
418,0.00521920553653167
419,0.00508355027725749
420,0.00523059903812614
421,0.00530683958011749
422,0.00533852131236284
423,0.00539060685056764
424,0.00543981234069816
425,0.0053092343541963
426,0.00528232017604107
427,0.00517245370894106
428,0.00511420808736266
429,0.00514030774946098
430,0.0052456688312578
431,0.00551500690294159
432,0.0057864000574376
433,0.0059807990302939
434,0.00632309140443307
435,0.00647444449919071
436,0.00664458976378907
437,0.00682369772968495
438,0.00700280569558082
439,0.0071819136614767
440,0.00735650143101575
441,0.00762974719254883
442,0.00789520105104197
443,0.00811263952221382
444,0.00843640451824994
445,0.00876016951428606
446,0.00908393451032218
447,0.0093478747280142
448,0.00952881738741873
449,0.00991575666691212
450,0.00992530442178303
451,0.00986206826268305
452,0.0098158985821167
453,0.00976972890155035
454,0.00972355922098399
455,0.00956656230643662
456,0.00952605774719514
457,0.00949568917506993
458,0.009401486034223
459,0.00941386639258325
460,0.0093705120654961
461,0.00914153787905586
462,0.00928814441353912
463,0.0089748093838344
464,0.00882348061701617
465,0.00871178237130362
466,0.00850575928519453
467,0.00845658003074777
468,0.00834766277438383
469,0.00825239652285838
470,0.00834299015057275
471,0.00833304789789616
472,0.00833441018959104
473,0.00834584393910978
474,0.00831546846368529
475,0.00839279484357012
476,0.00818448060498038
477,0.00816109930247255
478,0.00813771799996471
479,0.00811433669745687
480,0.00809289691513404
481,0.00786659066466559
482,0.0077610623496668
483,0.00778857352443382
484,0.00764188585348966
485,0.00755005606972478
486,0.00769535297677472
487,0.00779465039229501
488,0.0079525410052848
489,0.00811549567652325
490,0.0081881790021957
491,0.00828940105581955
492,0.0084948020355558
493,0.00840830372269892
494,0.00854259797314704
495,0.00840587026451464
496,0.00852520086991856
497,0.0083662953062368
498,0.00847279701934224
499,0.00832845644760307
500,0.00844537161186713
501,0.00839918499059848
502,0.00863665341733312
503,0.00873446489504136
504,0.0086613941993402
505,0.00894949136752037
506,0.00892936626078894
507,0.00894439538889969
508,0.00903565706431818
509,0.00903925435300202
510,0.00890285027199047
511,0.00900986974426626
512,0.00895977286861382
513,0.00870206642232977
514,0.0086947154231027
515,0.00858265966336418
516,0.00855450474762931
517,0.00857072498601147
518,0.00857535457334508
519,0.00876297891776263
520,0.0088565844893469
521,0.00892888784898284
522,0.00900119120861878
523,0.00907349456825472
524,0.00901595280638768
525,0.00903446685583406
526,0.00902495346287875
527,0.00899782876755981
528,0.00904206231994462
529,0.00911308524755808
530,0.00910719359821826
531,0.00911629807115223
532,0.00910239397722025
533,0.00920642605769331
534,0.00924654931309226
535,0.00917284512733196
536,0.00924043609085767
537,0.00921753784592735
538,0.00917650557685237
539,0.00917056813511767
540,0.00923667952279175
541,0.00921707256464047
542,0.00916764988877055
543,0.00922712507654294
544,0.00927670674708665
545,0.00923486544190141
546,0.0092782227245187
547,0.00927400318685257
548,0.00926978364918644
549,0.00926556411152031
550,0.00922486499326431
551,0.00929374183348264
552,0.00936559316630843
553,0.00929042288334761
554,0.00931608266182411
555,0.00943064516724722
556,0.00932725990645382
557,0.00933863950310423
558,0.00931340825338134
559,0.00927254288641946
560,0.00939669407698254
561,0.00925432076215816
562,0.00943226124773199
563,0.00930789122187127
564,0.00937591823361961
565,0.00929131690406493
566,0.00926352072544824
567,0.0091904369475642
568,0.00929116570978528
569,0.00921833573946866
570,0.00924316047799865
571,0.00931528852261392
572,0.00932448472735201
573,0.00934870907535109
574,0.00945304851427174
575,0.00935198217675948
576,0.00943330811070216
577,0.00951463404464485
578,0.00959595997858753
579,0.00967728591253021
580,0.00975861184647289
581,0.00991177625823419
582,0.00990534639518741
583,0.0100149901519563
584,0.00990505219678831
585,0.0099325179026106
586,0.0098140234272
587,0.00977072944744053
588,0.00974830186597774
589,0.00972587428451494
590,0.00970344670305214
591,0.00976887852938654
592,0.00987313896176759
593,0.00987020179803181
594,0.0099936225482362
595,0.00995076510026164
596,0.01002590073178
597,0.0100630134112398
598,0.010025404351769
599,0.01005761510067
600,0.0101295483389057
601,0.0101655143035466
602,0.0102051655117655
603,0.0101451050340698
604,0.0102561409953276
605,0.0101864282227258
606,0.0102446616485291
607,0.0101891616443287
608,0.0101229652849577
609,0.0101413335004908
610,0.0100822231031419
611,0.0100407425691148
612,0.00995909071424339
613,0.0099329016288156
614,0.00981906646532332
615,0.00992419379584054
616,0.00980427478711615
617,0.00991541994393118
618,0.00987835373605728
619,0.00987002534361469
620,0.00981765540782371
621,0.00987312689890005
622,0.00965105225427587
623,0.00964373641619022
624,0.00955067968422536
625,0.0094576229522605
626,0.00936456622029564
627,0.00931155588377857
628,0.00927940689966427
629,0.00925595014379799
630,0.00933046123082338
631,0.00921464070430529
632,0.00927846443766579
633,0.00932861241276669
634,0.00935532545480414
635,0.00937799192529915
636,0.00925295763434461
637,0.00935502757639541
638,0.00928983718688635
639,0.00935672617475534
640,0.00930286955299318
641,0.00927202647045453
642,0.00925678888978902
643,0.00921465469474431
644,0.0091725204996996
645,0.00913038630465489
646,0.00921979433254613
647,0.00921057821877448
648,0.00904909855854869
649,0.00921873564011686
650,0.00904951310641872
651,0.00911434702019812
652,0.00900644054461109
653,0.00880645252482211
654,0.00867063304337756
655,0.00876270995199884
656,0.00869331340642532
657,0.00877826169625362
658,0.0088223156949345
659,0.00897931985607388
660,0.0090523078339722
661,0.00903829461601463
662,0.00902422417016921
663,0.00899274507227889
664,0.008918144956325
665,0.00897184137766066
666,0.00894224710008986
667,0.0089453465689434
668,0.0089712803387793
669,0.00880478825722269
670,0.00884533122942761
671,0.00879964431695918
672,0.00884913348955535
673,0.00880458052614893
674,0.00884661817461545
675,0.00882596231988925
676,0.00880409645089873
677,0.00888463999575148
678,0.00874713596483522
679,0.00872634943238831
680,0.00893827308296212
681,0.00878664638140346
682,0.00846265406255488
683,0.00825648696742687
684,0.00785222554422521
685,0.0075286660253904
686,0.00729176547849966
687,0.00718685998263499
688,0.00719950919775377
689,0.00731884572125098
690,0.00754705817948509
691,0.00784009128925086
692,0.00797666809684407
693,0.00806352206923352
694,0.00822192537355769
695,0.00820341374959817
696,0.00834016105279084
697,0.00832126965626587
698,0.00825143742542579
699,0.00828586824192653
700,0.00840748012881009
701,0.00834986456282078
702,0.00846164454158241
703,0.00841860984453097
704,0.00856770574864522
705,0.00850295673734173
706,0.00862375677019733
707,0.0086192785069165
708,0.00860885566479689
709,0.00868138839703183
710,0.00858324018317468
711,0.00854343948573083
712,0.00857814292863543
713,0.0083096010293981
714,0.00819123798917274
715,0.00786441896394896
716,0.00763750686923188
717,0.00752171257440354
718,0.00746486376223784
719,0.00749748776603219
720,0.00760047239494955
721,0.00745901233231824
722,0.00766768473185355
723,0.007621030355496
724,0.00763162154126179
725,0.00761375243748275
726,0.00757489092199252
727,0.0077070279166791
728,0.00772899351438041
729,0.00788121285239133
730,0.00791442000865987
731,0.00812382892561267
732,0.00819477900139887
733,0.00835859477005884
734,0.00839507895811685
735,0.00842663681183557
736,0.00846867024763268
737,0.00847898804998608
738,0.00848930585233948
739,0.00849962365469288
740,0.00862976715921486
741,0.00865070453248251
742,0.00867233856384986
743,0.00869397259521722
744,0.00871560662658457
745,0.0087159910062776
746,0.00870446403928253
747,0.00878408812686914
748,0.00866319259535705
749,0.0087493734673809
750,0.00872332920801336
751,0.00869037313638116
752,0.00887776937890778
753,0.00873087265919368
754,0.00851175613119391
755,0.00777431480816541
756,0.00703687348513691
757,0.00629943216210842
758,0.00523904184004972
759,0.00437192206885731
760,0.00397079515159744
761,0.00394984257505458
762,0.0042198813357406
763,0.00478297525927686
764,0.00548615559910789
765,0.00617907609786869
766,0.00693168039099659
767,0.00765059155875512
768,0.00805910619598013
769,0.00832783556993217
770,0.00857856640790443
771,0.00864848814823085
772,0.0088456368362788
773,0.00892207659232646
774,0.00890250668439049
775,0.00891435873925733
776,0.00893466948396448
777,0.00887743199335084
778,0.00898336054190256
779,0.00891876371842784
780,0.00901243676024154
