"wavelength","measurement"
380,0.00490249013583014
381,0.00492915242667156
382,0.00470363729838459
383,0.00499712479323754
384,0.00498075876396852
385,0.00533160259586423
386,0.0055289720222442
387,0.00570955838596922
388,0.00622202706853068
389,0.00637424421124639
390,0.00650072194825429
391,0.00651550039190471
392,0.00657759615055929
393,0.0068392434991231
394,0.00736137057853426
395,0.00804596660664923
396,0.00915489514021144
397,0.0102616924134289
398,0.0113684896866464
399,0.0124752869598639
400,0.0130594323392338
401,0.0139601104356586
402,0.0147637982220885
403,0.015007685997497
404,0.0152539082558779
405,0.0154350617194154
406,0.016193465752632
407,0.016538846843229
408,0.0168361310374049
409,0.0173146815193217
410,0.0183604571606218
411,0.0182913652557362
412,0.0188048222214733
413,0.0193673306070236
414,0.0192226193190608
415,0.0194414835112055
416,0.0193294175724369
417,0.0192787702511873
418,0.0193709264197154
419,0.0189055214539286
420,0.0196196047054039
421,0.0194224610838573
422,0.0195832346757146
423,0.019686023773803
424,0.0196988479191379
425,0.0191410534379149
426,0.0187662660828408
427,0.0183321060248104
428,0.0179097379343099
429,0.0179129684583011
430,0.0180615050611072
431,0.0187896182091606
432,0.0194035587608244
433,0.0199847977902806
434,0.0207591274275157
435,0.0211146610582821
436,0.0212957386512632
437,0.0215788764739269
438,0.0218620142965907
439,0.0221451521192544
440,0.0222526478181023
441,0.0226107532736684
442,0.0229255354934049
443,0.0231796030969207
444,0.0235571924008392
445,0.0239347817047577
446,0.0243123710086762
447,0.0247056459253289
448,0.024575311652595
449,0.025293764272967
450,0.0251661190236728
451,0.0248561743144524
452,0.0247453581162716
453,0.0246345419180908
454,0.02452372571991
455,0.0244534591299312
456,0.0246751866091413
457,0.0248487393409145
458,0.0248876199131447
459,0.0252107301970857
460,0.0252604426670391
461,0.0248473415711214
462,0.0254439099621808
463,0.0247183009709551
464,0.0244226014270473
465,0.0243237626803621
466,0.0239744170082821
467,0.0240671539150202
468,0.0240140075702105
469,0.0237299985076493
470,0.0244189055055409
471,0.0245037731203738
472,0.0246810979568479
473,0.0249299447536628
474,0.0250161751438861
475,0.0252618117609334
476,0.0248112510598436
477,0.0248357001995676
478,0.0248601493392915
479,0.0248845984790154
480,0.0248213864128439
481,0.0240555961912828
482,0.0238045721959627
483,0.0236140241292756
484,0.0232723070741399
485,0.0228987412795352
486,0.0232593125490318
487,0.0236101841748943
488,0.0237641741998602
489,0.0243738499609804
490,0.0243632280802459
491,0.0245675261842565
492,0.0250183738030643
493,0.0246552183286568
494,0.0249071477252593
495,0.0244397619607567
496,0.0244233363854123
497,0.0239655197346277
498,0.0240954833290444
499,0.0235677173809795
500,0.0236987501522974
501,0.0235145481103274
502,0.0239443013368812
503,0.0241500816634592
504,0.0236670880136835
505,0.0244918721842162
506,0.0242083267763039
507,0.0241726942507366
508,0.0241678845925536
509,0.0241548864587636
510,0.023645293880602
511,0.0238321237106135
512,0.023516378679552
513,0.0227182470195853
514,0.0224889469704819
515,0.0220673793934452
516,0.0219701693723497
517,0.02188496209824
518,0.0218351129353276
519,0.0221182358426363
520,0.0225259839465138
521,0.0226062955597772
522,0.0226866071730406
523,0.022766918786304
524,0.0225278443797428
525,0.0225107568186718
526,0.022447567203764
527,0.0222529230663326
528,0.0223306067637778
529,0.0224662337534302
530,0.0224713350795563
531,0.0223353081599713
532,0.0222602414914748
533,0.0223871769206131
534,0.0224502665121815
535,0.0221583127943938
536,0.0222652600860914
537,0.0221455412578429
538,0.0218994932822647
539,0.0218470713488477
540,0.0219218482948243
541,0.0217277335859294
542,0.0215727553825702
543,0.0216639460821016
544,0.0216819760946593
545,0.0215580794052491
546,0.0216484858412262
547,0.0215988941576883
548,0.0215493024741504
549,0.0214997107906126
550,0.0214119553905984
551,0.021554008130273
552,0.0216218442845592
553,0.0213858838448429
554,0.021298640642923
555,0.0214540076571814
556,0.0210819635641929
557,0.021009443949002
558,0.0208187553070061
559,0.0206670256738149
560,0.0208288101076692
561,0.0203731653091086
562,0.0206813269013728
563,0.0202787784032711
564,0.0202793448621069
565,0.0199452419862036
566,0.0197920229967974
567,0.0196381665561965
568,0.0197399823705124
569,0.0195662614575424
570,0.019432743625254
571,0.0194950571312707
572,0.0194398593145224
573,0.0193816295516521
574,0.0195480041246738
575,0.0193332078232863
576,0.0194630759781236
577,0.019592944132961
578,0.0197228122877984
579,0.0198526804426357
580,0.0199825485974731
581,0.020238811337352
582,0.020210524248664
583,0.0204393559774956
584,0.0201096497609491
585,0.0201956450706897
586,0.019758436214816
587,0.0195557027082671
588,0.0195165356905649
589,0.0194773686728628
590,0.0194382016551606
591,0.0195186987245007
592,0.019697010091798
593,0.0196636381225977
594,0.0198833918959565
595,0.0198186066618358
596,0.0199610207762058
597,0.0200062821862157
598,0.0199750938152814
599,0.0199741594266957
600,0.0200396597512779
601,0.0201786166217906
602,0.0203565910757492
603,0.0201542914033399
604,0.0203855296843967
605,0.0201880501670115
606,0.0202335216500982
607,0.020131620512686
608,0.0199186209507774
609,0.0199257489226282
610,0.0198382970982172
611,0.0196562000731471
612,0.0195948512161307
613,0.0195079285315528
614,0.019322386509475
615,0.0197211918178136
616,0.0195034955298983
617,0.0196701943959457
618,0.0196704004745577
619,0.0196813735042691
620,0.0195844304595595
621,0.0197058086357246
622,0.0193125818712755
623,0.0192621001445941
624,0.0191301606609679
625,0.0189982211773417
626,0.0188662816937155
627,0.0188682015291459
628,0.0188102007913248
629,0.0188136561365801
630,0.0190455844453657
631,0.0188764466496085
632,0.0190437124681616
633,0.019284404441276
634,0.0192736454043557
635,0.0194945266308758
636,0.0193254758551183
637,0.0196048188036443
638,0.0194716818374964
639,0.0196354915606451
640,0.0195568651480426
641,0.0196028533316585
642,0.0195918024750308
643,0.0195526491890932
644,0.0195134959031556
645,0.0194743426172181
646,0.019639475527405
647,0.0197992867510128
648,0.0194828153713737
649,0.0198628521754365
650,0.019561182463772
651,0.0196114114574547
652,0.0193639704129123
653,0.019067598754925
654,0.0188217468876725
655,0.0190511642776872
656,0.0191216159765175
657,0.0193396107499143
658,0.0193825483203986
659,0.019917588449094
660,0.0199959816945959
661,0.0200568189309856
662,0.020097401405535
663,0.0201170115426416
664,0.0199911962445196
665,0.0201430872699974
666,0.0201027653672492
667,0.020243556691659
668,0.020356818485784
669,0.0199001417906074
670,0.0201457859352989
671,0.020120647364153
672,0.0201838076508969
673,0.0202274662954947
674,0.0202994776063649
675,0.0203850161353331
676,0.0203207568814536
677,0.0206070782514381
678,0.0204006210377239
679,0.0202990068463806
680,0.0208537975578814
681,0.0204377810452754
682,0.0197159808416634
683,0.0191974349203039
684,0.0184417581344886
685,0.0177137787503348
686,0.0172960407954295
687,0.0172188178189618
688,0.0172802814132234
689,0.0177168470334424
690,0.018370786178199
691,0.0190786333146662
692,0.0194582501289407
693,0.0198665268606481
694,0.0203379727460262
695,0.0204176823586798
696,0.0207969853196721
697,0.0209082321430581
698,0.0208142538901923
699,0.0210567639247598
700,0.0215608158828297
701,0.0214285757496528
702,0.0218317261434079
703,0.0218764190219818
704,0.0223240517573712
705,0.0223172650243275
706,0.0226727410891557
707,0.0229379083090462
708,0.0230821962606729
709,0.0232455554624769
710,0.0230568269557047
711,0.0231802499301446
712,0.0232380977946126
713,0.0225442108656314
714,0.0224224471322558
715,0.0216507910006157
716,0.0213623575899606
717,0.021116878622096
718,0.0210919927503995
719,0.0214229160574645
720,0.021780185425499
721,0.0215346842394473
722,0.0219538841994799
723,0.0221451047388375
724,0.0221855115451895
725,0.0224866544222627
726,0.0223612623808953
727,0.0228159201385837
728,0.0231700979410008
729,0.0236771798717402
730,0.0239072160577639
731,0.0244280282244097
732,0.0248310609311919
733,0.0252996316353534
734,0.0255215558096833
735,0.0256543132934587
736,0.0259788339625469
737,0.0261105888251807
738,0.0262423436878144
739,0.0263740985504481
740,0.0267266789265073
741,0.0267993222395854
742,0.0269430677816458
743,0.0270868133237063
744,0.0272305588657667
745,0.0273715782166134
746,0.0273957337891156
747,0.0274944972209488
748,0.0274025624795054
749,0.0276852092019368
750,0.0277274130280714
751,0.0275847802266979
752,0.0280105797828013
753,0.0276532874379986
754,0.0263838646435185
755,0.0240428163973116
756,0.0217017681511048
757,0.0193607199048979
758,0.0162417445355884
759,0.0140538792392727
760,0.0132532836805447
761,0.0132062681316171
762,0.014185845427982
763,0.0160258800845763
764,0.0181414557484996
765,0.0201831645136187
766,0.0224280409137171
767,0.0244554939750194
768,0.0257224122427308
769,0.0265187044187462
770,0.0273202478926622
771,0.0277000264872276
772,0.0280644639482325
773,0.0284214914722275
774,0.0283327767592524
775,0.0284671672008069
776,0.028535336878538
777,0.0282587352190909
778,0.0286227414756634
779,0.0283436726139341
780,0.0288165409565608
