"wavelength","measurement"
380,0.00813154059269151
381,0.00781974559763198
382,0.00771984826540335
383,0.00763075627899025
384,0.00774296048964033
385,0.00814650242315721
386,0.00841238412805401
387,0.00869343368745856
388,0.00906432193772676
389,0.00918573104427033
390,0.00906817631727235
391,0.00900298943097393
392,0.00902550141755645
393,0.00904102297498709
394,0.0093662190485692
395,0.00999593547257794
396,0.0109431227958913
397,0.0120295439884411
398,0.0131159651809908
399,0.0142023863735406
400,0.0147226656072896
401,0.0153521892108731
402,0.0158053700612668
403,0.0158358764164618
404,0.0157443953936292
405,0.0156937970826146
406,0.0158908817026763
407,0.0159007317784371
408,0.0160157494231432
409,0.0162384249501041
410,0.0169005028934725
411,0.0168243723498651
412,0.0172267478318144
413,0.0173579699196542
414,0.0171943736880996
415,0.0173116737953731
416,0.0170178643579944
417,0.016858383880997
418,0.0170696229676608
419,0.0167011459803006
420,0.0170538742176648
421,0.0170073547123162
422,0.0171207305923705
423,0.0171100144378729
424,0.0171475375993632
425,0.0167218079323211
426,0.0164955454644564
427,0.0159778975807854
428,0.0155638548844361
429,0.0155685614667815
430,0.0156303637669659
431,0.0162962988789395
432,0.016919491373557
433,0.0174547268702072
434,0.0181070665257147
435,0.0184415339154674
436,0.0186800257899609
437,0.0189177427608836
438,0.0191554597318062
439,0.0193931767027289
440,0.0195417068248867
441,0.0198698711877197
442,0.0202237615917557
443,0.0204945590351838
444,0.0207937188547852
445,0.0210928786743866
446,0.0213920384939881
447,0.0217349962762781
448,0.0217358843413961
449,0.0224463722730955
450,0.0222297257335656
451,0.022065388894204
452,0.02200009548186
453,0.021934802069516
454,0.021869508657172
455,0.0218826461134229
456,0.0218695953312169
457,0.0220942214367384
458,0.0222404707697539
459,0.0225150820690863
460,0.0225362580386939
461,0.0222287536825384
462,0.0227168796566046
463,0.0220263550480388
464,0.0217317960209902
465,0.0215492194289631
466,0.0212533687524324
467,0.0211497925078065
468,0.0210313284528921
469,0.0208691971395431
470,0.0213211662476997
471,0.0212350386865619
472,0.0213355444593005
473,0.02156265768038
474,0.0215163557546538
475,0.0217580773741072
476,0.021206826592971
477,0.0211821604970969
478,0.0211574944012227
479,0.0211328283053486
480,0.0210074437024796
481,0.0204603020732646
482,0.0200612807394016
483,0.0200096712277207
484,0.0195985605046793
485,0.0192690513114863
486,0.0195397227532357
487,0.0197803372608239
488,0.0200303546765871
489,0.0204608436153244
490,0.0205924574095684
491,0.020788521980884
492,0.0212530124644838
493,0.0209163649131986
494,0.0211636676491368
495,0.0208362841248364
496,0.0208715577493774
497,0.0204612252142071
498,0.0205945864019233
499,0.0200830488567831
500,0.0202655877046344
501,0.0201127128403898
502,0.0205223184063252
503,0.0206404665795108
504,0.0203841784684111
505,0.0210213265663866
506,0.0208721628092395
507,0.0209022105660721
508,0.0209931586305858
509,0.0209202426838849
510,0.0205269742836029
511,0.0206907716019321
512,0.0204617570910249
513,0.0197954734494547
514,0.0196269163820168
515,0.0193084601744527
516,0.019200743129273
517,0.0192348355283044
518,0.0191459673034977
519,0.0195646316101442
520,0.0198274375140891
521,0.0199658691836414
522,0.0201043008531937
523,0.020242732522746
524,0.020021887273238
525,0.0200433831455261
526,0.0200144152398994
527,0.0199066960600276
528,0.0199689797175247
529,0.0201333596228895
530,0.0201004909921162
531,0.0200632947409995
532,0.0199890052284245
533,0.0202054283078429
534,0.0202057196869706
535,0.0199961918495616
536,0.0201331249284304
537,0.01997793468873
538,0.0198174597375286
539,0.0197119329089336
540,0.0198112217697741
541,0.0196619886892893
542,0.0195548468100966
543,0.0195891484028768
544,0.0196387136534629
545,0.0195008863115046
546,0.0195930397152153
547,0.0195525859008693
548,0.0195121320865234
549,0.0194716782721774
550,0.0193900508246929
551,0.0195318118922415
552,0.0196342607885154
553,0.0194265808001979
554,0.0193395535205137
555,0.0195322291022715
556,0.0192283474633861
557,0.0192221634662634
558,0.0190641968438539
559,0.0189245873575824
560,0.0191216674939806
561,0.0187353465186079
562,0.0190489894219063
563,0.0187264799093644
564,0.0187988168664745
565,0.0185028391655085
566,0.018394746164206
567,0.0181346010153763
568,0.0183133074687824
569,0.0180955107600853
570,0.0180524840820009
571,0.0180902532447312
572,0.018098546092512
573,0.0180285354234051
574,0.0181550104089448
575,0.0178859839709315
576,0.0180034152780017
577,0.0181208465850719
578,0.018238277892142
579,0.0183557091992122
580,0.0184731405062824
581,0.0187733825615383
582,0.0186950719088821
583,0.0188299305202159
584,0.0185310646394879
585,0.0185381038780761
586,0.0181714486095443
587,0.0179942288891751
588,0.017903547851131
589,0.0178128668130869
590,0.0177221857750428
591,0.0178205695958965
592,0.0179767161399923
593,0.0179479750033672
594,0.0181860021644436
595,0.0181226465390709
596,0.0181565547833121
597,0.0181954657939275
598,0.0181123390377533
599,0.0181263001437658
600,0.0182248075163606
601,0.0183447689044029
602,0.0184042223736881
603,0.0182963777315629
604,0.0184732160595334
605,0.018347932434095
606,0.0183892614113698
607,0.0182957866814792
608,0.0180889237840747
609,0.0180953656690864
610,0.0179944619148517
611,0.0178903627446321
612,0.017755772397604
613,0.0177549128901726
614,0.0175732275763929
615,0.0178628538879982
616,0.0176519019409271
617,0.017830723628606
618,0.0178150010882988
619,0.0178410162393538
620,0.0177615725087822
621,0.017869670700956
622,0.0174620618322732
623,0.0174622480270668
624,0.0173134718487282
625,0.0171646956703896
626,0.017015919492051
627,0.016922610925214
628,0.0168900426629087
629,0.0168957209347765
630,0.0171274298400737
631,0.0169357213228148
632,0.0171551687010974
633,0.0172714536227115
634,0.0173631921150733
635,0.0174591039205654
636,0.0173422537331923
637,0.0175483335303675
638,0.0174763826019739
639,0.017609341835895
640,0.0175903166321751
641,0.0176001153827102
642,0.0175064195836915
643,0.0174674808137724
644,0.0174285420438534
645,0.0173896032739343
646,0.0175772637307497
647,0.0176165302944182
648,0.0173563197940048
649,0.0176571262242328
650,0.0174302750631799
651,0.0175214538830659
652,0.0173107912456713
653,0.017057395887615
654,0.0168036265713516
655,0.0169715909044227
656,0.0168915909634575
657,0.0170634347531843
658,0.0172341617437031
659,0.017622162264565
660,0.0177212742420052
661,0.0177759449384921
662,0.0177878472866756
663,0.0177412613842834
664,0.0176051273559915
665,0.0177311519706548
666,0.0177539791865411
667,0.0178056409000487
668,0.0178345948949134
669,0.0175341265794958
670,0.0176242346750289
671,0.0175857962338286
672,0.0175776261162768
673,0.0176295485153223
674,0.0176959008397303
675,0.0177076525148013
676,0.0176682630364757
677,0.0178424617291009
678,0.0176722915022025
679,0.0176091070108294
680,0.0180621892007709
681,0.0176215821013261
682,0.0170562261204202
683,0.0165684886291644
684,0.0157915819804059
685,0.0151763083906489
686,0.0146806595425235
687,0.0144917777918427
688,0.0145290307985164
689,0.0148915128913224
690,0.0152830930983621
691,0.0158737704541217
692,0.016163932512377
693,0.0164365240702812
694,0.0167635264935419
695,0.016778050058181
696,0.0169986075147694
697,0.0170587301249719
698,0.0169087836786109
699,0.0169813696418893
700,0.01726009639327
701,0.0171338760902026
702,0.017391996567924
703,0.0173723121458741
704,0.0176332930830594
705,0.0175631907763276
706,0.0177927706955841
707,0.0179608787807662
708,0.0178598414141532
709,0.0180251731798046
710,0.0177869105009079
711,0.0177690227864772
712,0.0177541506963491
713,0.0171739026044948
714,0.0169396009740193
715,0.0163600665514395
716,0.0159332490427847
717,0.0156887231423841
718,0.0155824172980592
719,0.0157465724102395
720,0.0159026755290614
721,0.0156499181258063
722,0.0160312834217372
723,0.0160206660005337
724,0.0159405953241629
725,0.0160401480591912
726,0.0159572342169069
727,0.0161962785781007
728,0.0162831788853524
729,0.0166057786774896
730,0.016773962198841
731,0.0171175224007547
732,0.0173537792287354
733,0.0177228330957239
734,0.0178382539149382
735,0.0178885064156997
736,0.0180032744297447
737,0.0180356888083226
738,0.0180681031869005
739,0.0181005175654783
740,0.0183251493218817
741,0.0182830499453878
742,0.0183529937916162
743,0.0184229376378447
744,0.0184928814840731
745,0.0185372770481003
746,0.0184750600290358
747,0.0185971605773222
748,0.0183619619366216
749,0.0184700286067549
750,0.0185153883531182
751,0.0184556507698254
752,0.0187131039475702
753,0.0184956956945875
754,0.0178591330323861
755,0.0163045660629244
756,0.0147499990934627
757,0.013195432124001
758,0.0109592365785615
759,0.00924788052578633
760,0.00846239180532021
761,0.0084043003064259
762,0.00891559282021829
763,0.0101401631116416
764,0.0115523000554938
765,0.0129456119806028
766,0.0145653045558098
767,0.0159483060338267
768,0.0167776509244522
769,0.0174751081953464
770,0.0179323349478262
771,0.0181711245914597
772,0.018417719753353
773,0.0186677124577988
774,0.018581893505877
775,0.0186376013156003
776,0.0187410420611001
777,0.0185266315267576
778,0.0188211043787454
779,0.0185938120791149
780,0.0188909271817156
