"wavelength","measurement"
380,0.00485256746773269
381,0.00470571227801238
382,0.00484400118768454
383,0.00472092010791101
384,0.00491814923600571
385,0.00525021437959243
386,0.00561800148027728
387,0.00582642399289891
388,0.00624580878812998
389,0.00647235700381948
390,0.00655769646473519
391,0.00657170051987342
392,0.00685430409860629
393,0.00703075027098065
394,0.00754134380614502
395,0.00834780556322618
396,0.00941287123190115
397,0.010653469912134
398,0.0118940685923669
399,0.0131346672725998
400,0.0137427987462465
401,0.0148317120490684
402,0.0155193621288713
403,0.0160063453301423
404,0.016300545519486
405,0.0165735966982657
406,0.0171939296062586
407,0.0175558304735923
408,0.0179893395061903
409,0.0185949399051094
410,0.019708016702151
411,0.0197210428916882
412,0.0202513248870143
413,0.0208107563572832
414,0.0207043036232634
415,0.020889851789199
416,0.0209205585662862
417,0.0207272736058088
418,0.0210350103910431
419,0.0204285451086013
420,0.0210865780900523
421,0.0209626205601448
422,0.0209586074083059
423,0.0211200720847569
424,0.021242672123652
425,0.0206391576519157
426,0.0202323891531152
427,0.0196615257411966
428,0.0191768545050463
429,0.0192813281352188
430,0.0193623058025717
431,0.0202522454725581
432,0.0208940143344142
433,0.0214212906089817
434,0.0222652030407193
435,0.0226952661846841
436,0.0228832228806745
437,0.0231564298855521
438,0.0234296368904297
439,0.0237028438953073
440,0.0239498644488669
441,0.0244108053012551
442,0.0246573177216041
443,0.0250039922287265
444,0.0253536474584278
445,0.0257033026881291
446,0.0260529579178304
447,0.0264883671810355
448,0.026467514705427
449,0.0272480269420481
450,0.026930568592772
451,0.0267600672249996
452,0.0266149350455491
453,0.0264698028660987
454,0.0263246706866482
455,0.026387538657496
456,0.0264445226149606
457,0.0268944386564344
458,0.0268447471070115
459,0.0271781226793931
460,0.0271104595906675
461,0.0268222601673539
462,0.0273600971600839
463,0.0266942683563517
464,0.0263201712568761
465,0.0262647785497719
466,0.025870613399484
467,0.0258552771790476
468,0.0258863962544878
469,0.0256282872625378
470,0.0263261846288657
471,0.0263451869258382
472,0.0265672704307864
473,0.0267948439412137
474,0.0269974403094248
475,0.0272302174620146
476,0.0267724517704715
477,0.0268039699682158
478,0.0268354881659601
479,0.0268670063637043
480,0.0267328587257806
481,0.0259969755920886
482,0.0255510527713845
483,0.0255095497745858
484,0.0250690571182084
485,0.0246990629646516
486,0.025077454037549
487,0.02535760370924
488,0.0256761813555117
489,0.0262192723684931
490,0.0263214317622192
491,0.0264530004074143
492,0.0269474569282631
493,0.0265426794672145
494,0.0268886902056245
495,0.0263778970042382
496,0.0264276563319292
497,0.0258449195622484
498,0.025955654683654
499,0.0253510435961889
500,0.0255909017253747
501,0.0253787386687173
502,0.0258111546728383
503,0.0260245747367169
504,0.0257342376460412
505,0.0263010452641926
506,0.0260522842296709
507,0.026063075434422
508,0.0261878589382792
509,0.0260257482711579
510,0.0254645936136975
511,0.0257255245959991
512,0.0253179480054663
513,0.0244877943165237
514,0.0243160208464157
515,0.0238523544784794
516,0.0236925268331141
517,0.0237057415402542
518,0.0236746901603415
519,0.0240702711655484
520,0.0243480807728398
521,0.0244667127006893
522,0.0245853446285388
523,0.0247039765563883
524,0.0244466072109896
525,0.0244745007229851
526,0.0243517237597359
527,0.0242635780331579
528,0.0242740815096831
529,0.0244170750187232
530,0.024323835775619
531,0.0243624793428999
532,0.0241896130853522
533,0.0244258664864852
534,0.024412895006045
535,0.0241784486639056
536,0.0242646926999455
537,0.0240900396590454
538,0.0238494547656741
539,0.0237541727724731
540,0.0238808408147232
541,0.0236343366104672
542,0.0235777564407085
543,0.0235970381813026
544,0.0237109925511107
545,0.0234934470039785
546,0.0235987631497892
547,0.0235452157449449
548,0.0234916683401005
549,0.0234381209352562
550,0.0232530078372592
551,0.0234902019512604
552,0.0235386862385638
553,0.0233334586240075
554,0.0231947656158135
555,0.0233602199089944
556,0.0230042440275422
557,0.0229205946752548
558,0.0227079560698907
559,0.0224753772492061
560,0.022653445634901
561,0.02221453382156
562,0.0224787065503404
563,0.0221383601398988
564,0.0220776409645594
565,0.0217711966444112
566,0.0215863834674483
567,0.0213210066245769
568,0.0215086422229781
569,0.0211639425102676
570,0.0211003275341519
571,0.0211687436102016
572,0.0211054721558142
573,0.0211201838730755
574,0.0211848290930736
575,0.0209831928771108
576,0.0211230614086946
577,0.0212629299402784
578,0.0214027984718622
579,0.021542667003446
580,0.0216825355350299
581,0.0219800878893682
582,0.0219243300688141
583,0.0221399623911667
584,0.0217551766710442
585,0.021820055652279
586,0.0213944952614957
587,0.0211994451262209
588,0.0211230296571406
589,0.0210466141880602
590,0.0209701987189799
591,0.0211050621010689
592,0.0212870607001495
593,0.0211816515302064
594,0.0214989144850968
595,0.0213708863373444
596,0.0215043667865855
597,0.0215521927479833
598,0.0214864399715889
599,0.021497945427139
600,0.0215593177632919
601,0.0217438716350879
602,0.0218589579208104
603,0.0216305439228867
604,0.0219116254073674
605,0.0217365924715152
606,0.0216946866742322
607,0.0216295544255889
608,0.0213770802583576
609,0.0213749089634635
610,0.0213054150970184
611,0.0211059317340485
612,0.0210012234047433
613,0.0209852698683687
614,0.0207848686960354
615,0.0211098183841799
616,0.0209349825764735
617,0.0211249257520121
618,0.0210656022718806
619,0.0210886147014057
620,0.0209479134503817
621,0.0211274110563109
622,0.0206668585878301
623,0.0205791847056195
624,0.0204257091757916
625,0.0202722336459637
626,0.0201187581161359
627,0.0200682881656812
628,0.0200367490376462
629,0.0201404669004622
630,0.0203028398509102
631,0.0201797666172773
632,0.0203957061848754
633,0.0204665581735219
634,0.0206304656142795
635,0.0207829920194232
636,0.0205506565135045
637,0.0208812140354794
638,0.0207562312721066
639,0.0208884699669164
640,0.0208777393397111
641,0.020826849972651
642,0.0207876374159879
643,0.020741986887921
644,0.020696336359854
645,0.020650685831787
646,0.0208157654008534
647,0.0209341533559417
648,0.0205893981105523
649,0.0210125863638999
650,0.0207318493747258
651,0.0207384455376938
652,0.0205179992877315
653,0.0202041924298606
654,0.0198968777800325
655,0.0200888312325252
656,0.0202417164531284
657,0.0203119980263174
658,0.0204618443090334
659,0.0209734673744703
660,0.0210478473894885
661,0.0211058092174239
662,0.0210947281394933
663,0.0210577715588364
664,0.0209347329383203
665,0.0210771251279395
666,0.0211064547850177
667,0.0211577563682556
668,0.0212458187349259
669,0.0208368901020545
670,0.0210442889932542
671,0.0209724544571436
672,0.0209830646201077
673,0.0209517361765314
674,0.0210146590963535
675,0.0210696365711123
676,0.0210849189918377
677,0.021288441888133
678,0.021034102251782
679,0.0210114262082752
680,0.0215138888378778
681,0.0210742440812603
682,0.0202094460258703
683,0.0196799259802613
684,0.0188053642764393
685,0.0181688588412654
686,0.0176909286225363
687,0.0175975230619875
688,0.017707098031936
689,0.0180914274552167
690,0.0187581776865337
691,0.0194771264250386
692,0.0198526212217538
693,0.0203130587241004
694,0.0207110531083089
695,0.0208553296120445
696,0.0211980418712646
697,0.021350210111253
698,0.0211384992665645
699,0.021464341973792
700,0.0219011904130176
701,0.0217900065561486
702,0.0222778900789756
703,0.0222424653336685
704,0.0227322554704756
705,0.0228521706707189
706,0.0231576538581919
707,0.0232587275435397
708,0.0234825118063053
709,0.0237618142009004
710,0.0235260275492052
711,0.0236573120240775
712,0.02373635857497
713,0.0229837979116499
714,0.0228497596944077
715,0.0221835836857416
716,0.0217727382427212
717,0.0216058852975404
718,0.0215675523561382
719,0.0219401782225968
720,0.0222994753597258
721,0.0219430235824811
722,0.0224920119709809
723,0.022529212219453
724,0.0227017741591093
725,0.0228519434582348
726,0.0228755368513937
727,0.0233258731878144
728,0.0235877597050706
729,0.0241366944613236
730,0.0243413311459107
731,0.0249320496333366
732,0.0252963752322578
733,0.0258196296840335
734,0.0261397910006063
735,0.0263335842763467
736,0.0264462019724407
737,0.026568357495102
738,0.0266905130177634
739,0.0268126685404247
740,0.0272278927831651
741,0.0272659490180039
742,0.027405896141238
743,0.0275458432644721
744,0.0276857903877062
745,0.0277318220565897
746,0.0277267463696497
747,0.0279517343772142
748,0.0275917593704143
749,0.0280334878772088
750,0.0278909280901365
751,0.0277695181333844
752,0.0283270829382707
753,0.0279166801749198
754,0.0267261906651312
755,0.024341912987865
756,0.0219576353105989
757,0.0195733576333328
758,0.016365551016232
759,0.0140711250519533
760,0.0132283195885812
761,0.0132066966168775
762,0.0141936126708019
763,0.015979938474079
764,0.0180412814857117
765,0.0202000577744084
766,0.0224696907285253
767,0.024399894092009
768,0.0254736837444848
769,0.026512098138779
770,0.0273236768218239
771,0.0274460228634027
772,0.0279021442372022
773,0.0282332914654684
774,0.028188344027854
775,0.0282394133194126
776,0.0284502837985687
777,0.0281066366697219
778,0.0284339023100195
779,0.0281071609721578
780,0.0285820050276072
