"wavelength","measurement"
380,0.00226270949239266
381,0.00219457164506785
382,0.00219179956056541
383,0.00220298630138753
384,0.00222844404402302
385,0.00237428709993417
386,0.0024881707274647
387,0.00260248389823538
388,0.00271168093982492
389,0.00281036108656453
390,0.00276957426418526
391,0.00278634926372193
392,0.00282241687153537
393,0.00289099899779228
394,0.00300143076136705
395,0.00327331399327136
396,0.00363164551413277
397,0.00404013227464774
398,0.0044486190351627
399,0.00485710579567766
400,0.00512375226215837
401,0.00539870165642248
402,0.00563667761151295
403,0.00573308705093405
404,0.00576981106263322
405,0.00582395901652396
406,0.00598499981496502
407,0.00606867850045778
408,0.00617377491190419
409,0.00634642441889613
410,0.00663861744855643
411,0.00672258167477527
412,0.00689727654272634
413,0.00704913265248232
414,0.00703776862574941
415,0.00710824156419234
416,0.00706283486865574
417,0.00705757473605171
418,0.0071364236614963
419,0.00704824106900331
420,0.0072300792735707
421,0.00723451690342016
422,0.00734209134764251
423,0.00736998215227226
424,0.00742039478782394
425,0.00728816960219202
426,0.00719690312970766
427,0.00701589315976684
428,0.00688866405792754
429,0.00691968711580678
430,0.00700551909044741
431,0.00730818070003747
432,0.00765693789730179
433,0.00790912799255993
434,0.0082651951262601
435,0.00845868907175129
436,0.00856210337985962
437,0.0087374204380942
438,0.00891273749632877
439,0.00908805455456334
440,0.00921785318841251
441,0.00940666211041588
442,0.00964222431247719
443,0.00981494648667215
444,0.0100428732571632
445,0.0102708000276543
446,0.0104987267981453
447,0.0107281824061936
448,0.0107853751387063
449,0.0111590020555968
450,0.0110962386936156
451,0.0110234750302144
452,0.0109605518380208
453,0.0108976286458272
454,0.0108347054536336
455,0.010804480154312
456,0.0107916050548176
457,0.0108595795201627
458,0.0108457670660666
459,0.0109686625124394
460,0.0109210509312443
461,0.0107248110020132
462,0.0109456486783338
463,0.0105863103274618
464,0.0104178700612245
465,0.010330355574093
466,0.0101480975548009
467,0.0101262461348135
468,0.0099879891358344
469,0.00989992553233976
470,0.0100742151874594
471,0.0100237123248162
472,0.0100773895214631
473,0.0101034632422717
474,0.0100805833092659
475,0.0101832775060513
476,0.00994463410469123
477,0.00990899451273999
478,0.00987335492078876
479,0.00983771532883752
480,0.00978546068000814
481,0.00950906550687341
482,0.0093244427467873
483,0.00933675034062493
484,0.00915268521178943
485,0.00902621328637353
486,0.00913939386990928
487,0.00926282560454628
488,0.00936782300076173
489,0.00960305646747125
490,0.00967764745792859
491,0.00976237188813153
492,0.00999016292319424
493,0.0098509566084296
494,0.00998807779385105
495,0.00982258462009035
496,0.00986390193447831
497,0.00970048102933444
498,0.00978036067482816
499,0.0095697633802188
500,0.0096852727392074
501,0.00962497570873751
502,0.0098310798811806
503,0.00990897649936036
504,0.00978792782680068
505,0.010107611478947
506,0.0100137469117318
507,0.0100807245775851
508,0.010124027320028
509,0.010087884253908
510,0.00989041573020575
511,0.0100036591297939
512,0.00990176260651762
513,0.0095843622350793
514,0.0095360785386119
515,0.00938438412860863
516,0.00932602498027081
517,0.00934681704550558
518,0.00931391068951037
519,0.0095031498118676
520,0.00963285043975383
521,0.00969411553352733
522,0.00975538062730084
523,0.00981664572107434
524,0.0097085740642293
525,0.00973749794282944
526,0.00971813258086427
527,0.00965552845729431
528,0.00968755838346405
529,0.00977226367751927
530,0.00976151105630252
531,0.00975877922029988
532,0.00970511942018061
533,0.00980667477583348
534,0.00982968784767861
535,0.00972387752621062
536,0.00978637612557601
537,0.00971800554395257
538,0.00966422064478741
539,0.00959611829224532
540,0.00966284183235207
541,0.00960054385685365
542,0.00953320347228013
543,0.0095758657829506
544,0.00961935961115956
545,0.0095243090313597
546,0.00959829374921664
547,0.00957115459121592
548,0.00954401543321519
549,0.00951687627521446
550,0.00946288958548991
551,0.00952068226272839
552,0.00958048501669191
553,0.0094761495277272
554,0.00943213320480095
555,0.00952161319374215
556,0.00942416658115508
557,0.0093880088075897
558,0.00934534793944199
559,0.00925879418586675
560,0.00939154063052255
561,0.00919036595769146
562,0.00935263039075209
563,0.00919341951864793
564,0.00923578277078076
565,0.00909417412831511
566,0.00905754424591125
567,0.00896985549685281
568,0.00903280969221383
569,0.00895579177221548
570,0.00893900791885935
571,0.00896253315911402
572,0.00897710601799317
573,0.00896676359838819
574,0.00901736626778938
575,0.00892847145098468
576,0.00899359791203085
577,0.00905872437307702
578,0.0091238508341232
579,0.00918897729516937
580,0.00925410375621554
581,0.00941249920104465
582,0.0093731742673672
583,0.00946427978674878
584,0.00935199674522844
585,0.009373448107718
586,0.00923341373525125
587,0.00915538840257395
588,0.00913381456516505
589,0.00911224072775616
590,0.00909066689034726
591,0.00915546986518602
592,0.00924225022039534
593,0.00923991692622384
594,0.009354145661198
595,0.00935506282666892
596,0.00940304732148731
597,0.00943651945106531
598,0.00939947197296322
599,0.00941627326599057
600,0.00948286497611587
601,0.00953575535481001
602,0.00960943708576326
603,0.00953647166525512
604,0.00963262927002384
605,0.00955300883491294
606,0.00958658805264838
607,0.00956343315736673
608,0.0094776548032018
609,0.00948898232829732
610,0.00945386568111403
611,0.00940626670133968
612,0.00934139215768979
613,0.00930707316252793
614,0.00923970642143056
615,0.00933494376762206
616,0.00924759224909922
617,0.00932376450395924
618,0.00931593924835055
619,0.00933249205847849
620,0.00926198667747646
621,0.00932665824676704
622,0.00913629558870683
623,0.00913163976769815
624,0.00904895744457029
625,0.00896627512144242
626,0.00888359279831456
627,0.00883688908537515
628,0.0088283871836038
629,0.00882574975485686
630,0.00891639427877481
631,0.00880282222967753
632,0.00891195262572585
633,0.00895618292850773
634,0.00902737586384707
635,0.00904473151479568
636,0.00898023793425871
637,0.00908299373025617
638,0.00901562893228184
639,0.00909560992778056
640,0.00905653585855864
641,0.00904999138761412
642,0.00904094083638262
643,0.00900979129795285
644,0.00897864175952308
645,0.00894749222109332
646,0.00905186639868785
647,0.00903486416142322
648,0.00891126190553408
649,0.00905172398384392
650,0.00896100799666194
651,0.00898584386084096
652,0.00887978366687212
653,0.0087189072391497
654,0.00860584905550973
655,0.00870413626859058
656,0.0086585051674812
657,0.00873982731171567
658,0.00882299144027327
659,0.00902896856131316
660,0.00906401518854827
661,0.00909207391234785
662,0.0091033769469728
663,0.00905616929458178
664,0.00900012032821273
665,0.00906132426944071
666,0.00906608898714452
667,0.00908416512490928
668,0.00911848851519899
669,0.0089618651729136
670,0.00900504161684024
671,0.00900085541210276
672,0.00901501262757121
673,0.00903714602911003
674,0.0090713371095614
675,0.00907088750546832
676,0.0090653820049327
677,0.00915521705052611
678,0.00904405154154398
679,0.00904266671233936
680,0.00926461099833611
681,0.00906545586088205
682,0.00876682693062947
683,0.00852134309040184
684,0.00811885275285023
685,0.00783664077051918
686,0.00757440361864632
687,0.00750750796186492
688,0.00755174994984174
689,0.00770865489049154
690,0.00794854404678238
691,0.00824647528955885
692,0.00840821266022971
693,0.00854261509141891
694,0.00875365023750445
695,0.00875136729941679
696,0.00890358661558801
697,0.00893765608699457
698,0.00884872476845719
699,0.00890802976165474
700,0.00908922154937974
701,0.00902324189749625
702,0.0091669856453748
703,0.00917233058448969
704,0.00931735379555564
705,0.00927838702737888
706,0.00942322027559121
707,0.0095485920176727
708,0.0095130707758376
709,0.00961475586454299
710,0.00950969736545665
711,0.00951761228700037
712,0.00955032403583438
713,0.00924239836501876
714,0.00913478917326598
715,0.00882341906868058
716,0.00863654517194655
717,0.00850876550316203
718,0.00852428539855964
719,0.00857820430492049
720,0.00868762888562086
721,0.00859782509320735
722,0.00879152736881054
723,0.00880658337477671
724,0.0088336223315269
725,0.00889944584892979
726,0.00888660700240915
727,0.00903170649564495
728,0.00913191227283195
729,0.00932147791995392
730,0.00944922513046517
731,0.00963096062551905
732,0.00983811758561026
733,0.0100264907577854
734,0.0101297531407292
735,0.0102097531733078
736,0.0102733187529968
737,0.0103205295182763
738,0.0103677402835558
739,0.0104149510488353
740,0.0105990492589838
741,0.0106663668996154
742,0.0107408909825741
743,0.0108154150655327
744,0.0108899391484913
745,0.0109514278127454
746,0.0109588488582688
747,0.0110567034351143
748,0.0109627016411434
749,0.0110987647104707
750,0.0111098034313177
751,0.0111101152590849
752,0.011312632194112
753,0.0112229645634304
754,0.0108416399333168
755,0.00989917027781751
756,0.00895670062231824
757,0.00801423096681897
758,0.00667829274813147
759,0.00563229002019063
760,0.00520495944932342
761,0.00519262214379848
762,0.00557823047079534
763,0.00634305667810792
764,0.00729912889176155
765,0.00820971712100825
766,0.00922426389596858
767,0.0101594064839834
768,0.0106649195419514
769,0.0111020906979321
770,0.0114481134865063
771,0.0116250113178453
772,0.0117915955309442
773,0.0120258464194611
774,0.01196479871085
775,0.0120443813398821
776,0.0121066449029625
777,0.0120126583676476
778,0.0121575938503701
779,0.0120675077007563
780,0.0122734371043264
