"wavelength","measurement"
380,0.00350501938720884
381,0.00344797620489343
382,0.00350159226012587
383,0.00342372826745649
384,0.00357978536695168
385,0.0038124346377909
386,0.00405831546091237
387,0.00430327748617136
388,0.00452954214670431
389,0.00475394098490236
390,0.00477856806139207
391,0.00476157742682335
392,0.00486229531002137
393,0.00494911595605178
394,0.00512880577542608
395,0.00538608989654899
396,0.00601690505203816
397,0.00672971328984035
398,0.00744252152764254
399,0.00815532976544473
400,0.00854649679908681
401,0.00915345356391145
402,0.00949603993619841
403,0.00966435248170434
404,0.00972647105321365
405,0.00971779115826821
406,0.00995592625376366
407,0.00999703900926364
408,0.010051234237594
409,0.01020855579923
410,0.0106986140880722
411,0.0106599720899375
412,0.0110234125671819
413,0.0112139201668224
414,0.0112414882579629
415,0.0113250154411901
416,0.0112202639940329
417,0.0111001238277574
418,0.0112761340691165
419,0.0109888619016647
420,0.0112973632519486
421,0.0112187909113993
422,0.0113193577790225
423,0.011408578069611
424,0.0114203837272451
425,0.0112210402032589
426,0.0111091314755587
427,0.010837648295451
428,0.0104721614570443
429,0.0104691746446121
430,0.0104884217571219
431,0.0108893253139171
432,0.0113299542576194
433,0.011842398359556
434,0.0123978277805188
435,0.0126301544017907
436,0.0127625533476177
437,0.0128700501162929
438,0.0129775468849681
439,0.0130850436536432
440,0.0131031849513269
441,0.013327140623891
442,0.0136588028105514
443,0.0137529302737931
444,0.0139783192396271
445,0.0142037082054611
446,0.014429097171295
447,0.0146815749360765
448,0.0147295905455954
449,0.0153641766806287
450,0.0152659455771667
451,0.0152016647298581
452,0.0151738941999256
453,0.015146123669993
454,0.0151183531400604
455,0.015179201413725
456,0.0151656174997965
457,0.0153838267059447
458,0.0154261359031413
459,0.0157092020302828
460,0.0157188165627306
461,0.0155932193793992
462,0.0160598953672808
463,0.0156206573989469
464,0.015461039036162
465,0.0153459034376572
466,0.0151601300461225
467,0.0151260532814879
468,0.0150424182788721
469,0.0148820296892728
470,0.0152034159964731
471,0.0152057935217453
472,0.0152780546710798
473,0.0154100261722309
474,0.0154801506664059
475,0.0157088332951196
476,0.0153891944653652
477,0.0154101858391199
478,0.0154311772128745
479,0.0154521685866291
480,0.015448780224813
481,0.0151008201555766
482,0.0149057401319745
483,0.0148708618876603
484,0.014555982132904
485,0.014284602177683
486,0.0143816878992311
487,0.0145188000882815
488,0.0146084462443259
489,0.015040184369473
490,0.0151037187913742
491,0.0151981827962421
492,0.0155391934988533
493,0.0153315135142118
494,0.0155476217062821
495,0.0153264728709858
496,0.0153751022927106
497,0.0151265881990837
498,0.0151533826237744
499,0.0148133624408761
500,0.0148241987049226
501,0.0146181944488894
502,0.0148145992574434
503,0.0148279744900209
504,0.0146790554459092
505,0.0151255756052989
506,0.01505003830126
507,0.0151398268347232
508,0.0152070019102258
509,0.0152380333516202
510,0.0149989160752796
511,0.0152316099149518
512,0.0151203885410626
513,0.0146784651786062
514,0.0146118085702051
515,0.0143322844782064
516,0.0142266702817936
517,0.0141672077926785
518,0.0141196333767485
519,0.0143500835366747
520,0.0146239255757824
521,0.0147748787450901
522,0.0149258319143978
523,0.0150767850837055
524,0.0149834212354479
525,0.0149965132437039
526,0.0150336754394427
527,0.0149270132899866
528,0.0150003514336189
529,0.0152107203668874
530,0.0152133310639359
531,0.0152337439125374
532,0.0151909592407582
533,0.0153293569409374
534,0.0153720309536023
535,0.0152034159051822
536,0.0154139857977602
537,0.0153986566303366
538,0.0154439117953974
539,0.0155534670115067
540,0.015867566954041
541,0.0160147727254767
542,0.0161643554684557
543,0.0163770435334926
544,0.0164634857205813
545,0.0162167019682113
546,0.0161696156655567
547,0.0159102676891433
548,0.0156509197127299
549,0.0153915717363164
550,0.0151581128193331
551,0.0151400848405725
552,0.015175895852824
553,0.0149584832246765
554,0.0148057145852369
555,0.014893163072217
556,0.0146493774946752
557,0.0145672976309764
558,0.0144386128429792
559,0.0142785120918472
560,0.0143993244956791
561,0.0141496453453288
562,0.0143600302136202
563,0.0141325319903307
564,0.0141420380987018
565,0.0139130659105357
566,0.0138185231852026
567,0.0136175949122712
568,0.0136421431355432
569,0.0134308453945546
570,0.0133994702132252
571,0.0134233109967127
572,0.0133790709435787
573,0.0133595803949482
574,0.0134613897114942
575,0.0133065226709107
576,0.0133785502072707
577,0.0134505777436308
578,0.0135226052799909
579,0.0135946328163509
580,0.013666660352711
581,0.0138555137423682
582,0.0137874976738782
583,0.0138362826124918
584,0.013624363644619
585,0.0135013666900536
586,0.0130388242959067
587,0.0127514830754301
588,0.0124909208093303
589,0.0122303585432305
590,0.0119697962771308
591,0.0119650528961232
592,0.0120405970916384
593,0.0120389851567376
594,0.0121793460951689
595,0.0121270870918037
596,0.0122301691070061
597,0.0123120627574963
598,0.012364475846732
599,0.0123795761205194
600,0.0125076776869561
601,0.0125403515859202
602,0.0126207845134265
603,0.0125396806955909
604,0.0126568114586276
605,0.0126188696549312
606,0.012710831907802
607,0.0128618553331331
608,0.0129802490082243
609,0.0132743336060984
610,0.0133930748585116
611,0.0134240458326616
612,0.0132419996212651
613,0.0129655197508611
614,0.0125200650527328
615,0.012389728548039
616,0.0121070126158139
617,0.0120770191431387
618,0.0120127559756921
619,0.0119916869526227
620,0.0119112669476839
621,0.0119404513501606
622,0.011679052316257
623,0.0116151153172554
624,0.0114570348961644
625,0.0112989544750735
626,0.0111408740539825
627,0.0111008313939343
628,0.0110188541159202
629,0.0109627324504505
630,0.0110527765886068
631,0.0108666301119009
632,0.0108500082824589
633,0.0108840191615018
634,0.0108625925079581
635,0.0108939902543448
636,0.0107877738837724
637,0.0108626181764635
638,0.0107319635247045
639,0.0107904499081665
640,0.0106821054992417
641,0.0106551506845599
642,0.0105146129867604
643,0.0103784128924903
644,0.0102422127982203
645,0.0101060127039503
646,0.0100999849288866
647,0.0100063504349621
648,0.00975944853707236
649,0.00995226744297475
650,0.00984143081007865
651,0.00991263448806526
652,0.00975238300539889
653,0.00958744644868927
654,0.00935426923953573
655,0.00944365224897818
656,0.00934680270256087
657,0.00941982338384893
658,0.00955152631223135
659,0.0097960841486636
660,0.00989569960460076
661,0.00992659840904584
662,0.00996698570009473
663,0.00988008521775262
664,0.0097974721063774
665,0.00984114523833959
666,0.00980564589189754
667,0.00981108966492199
668,0.00978036877299161
669,0.00958371877380837
670,0.00960164592485634
671,0.00952452889035888
672,0.00944458401542016
673,0.00947265514126759
674,0.00945408603872972
675,0.00942782614742171
676,0.00938208734699673
677,0.00941591440093966
678,0.00926331502787736
679,0.00920053050212561
680,0.00941536891076651
681,0.00919708888420528
682,0.008946592664102
683,0.00872915924313356
684,0.00836682853036611
685,0.00803638952379651
686,0.00777419618089551
687,0.00752650985619547
688,0.00736989922225005
689,0.00735650687965905
690,0.00746296533877151
691,0.00758005891788111
692,0.00755272786908608
693,0.00756565350560131
694,0.00769792069526467
695,0.00769392433824364
696,0.00783689641379533
697,0.00784455368048591
698,0.00770278013049494
699,0.00770692985700733
700,0.00781322161628063
701,0.00776093551334549
702,0.0078794688226864
703,0.0079487680212224
704,0.00814257674008257
705,0.0081770040150313
706,0.00831084870218082
707,0.00843873824225713
708,0.0084532197424268
709,0.0085360249413004
710,0.00842695191951355
711,0.00842775739085468
712,0.00837461873151014
713,0.00793744982588861
714,0.00761455527714495
715,0.00710053135913931
716,0.00660249410824695
717,0.00623419368994527
718,0.00611693911655827
719,0.00611711104065282
720,0.00619360529554705
721,0.00613463004352503
722,0.0063203264495785
723,0.00624590180799473
724,0.00620517685743897
725,0.00618897222753374
726,0.00613395627643463
727,0.00623305042673838
728,0.00637059546337725
729,0.00650786872717519
730,0.00678386376118358
731,0.00706407525752569
732,0.00736075020895761
733,0.00767480186003034
734,0.00788245588781078
735,0.0080238983423654
736,0.00814770328961821
737,0.00826914768373475
738,0.0083905920778513
739,0.00851203647196784
740,0.00873326577958681
741,0.00880220068185283
742,0.00887173722162881
743,0.00894127376140479
744,0.00901081030118077
745,0.00905569512825931
746,0.00903622653082945
747,0.00906344674374703
748,0.00894233872441023
749,0.00900144592704181
750,0.00898234594639188
751,0.00892544929090391
752,0.00895946221230878
753,0.0087985537399187
754,0.00878736890163469
755,0.0082099801851336
756,0.0076325914686325
757,0.00705520275213141
758,0.0060636345306819
759,0.00515502094082796
760,0.00445381586628272
761,0.00415515904521438
762,0.00423987050201072
763,0.00453632536499579
764,0.00509111457856533
765,0.00561444578308275
766,0.00628789805900701
767,0.00697881274373656
768,0.00736175579094397
769,0.00767625702040519
770,0.00786182118221617
771,0.00796829966741157
772,0.00807217348479022
773,0.0081086994775659
774,0.00804062344590098
775,0.00801309070053899
776,0.00808920837159667
777,0.00790764872461436
778,0.00794808128422376
779,0.00788045315531318
780,0.00793337742433504
