"wavelength","measurement"
380,0.00128976622407822
381,0.00128168115921824
382,0.00133784815131157
383,0.00119595442324617
384,0.00125191038532349
385,0.00132625157923822
386,0.00142049744197536
387,0.00145378912042455
388,0.00154875195992831
389,0.00163685373767823
390,0.00163342034113267
391,0.00162464678034724
392,0.00167217950018447
393,0.00178287128285547
394,0.00186123012895935
395,0.00204751152590988
396,0.00221445796482758
397,0.00258963969597853
398,0.00296482142712948
399,0.00334000315828043
400,0.00355584988258718
401,0.0038258916269882
402,0.00406085307115293
403,0.00424583884139082
404,0.00436928315215722
405,0.00445174348872151
406,0.00470373367433855
407,0.00487340018735772
408,0.00502265871831161
409,0.00523584063350906
410,0.00552608755781443
411,0.0056355034306113
412,0.00589979636053149
413,0.00617628402295839
414,0.00624302494261031
415,0.00644160009052065
416,0.00648233942030225
417,0.00653980635435858
418,0.006765965026726
419,0.00668084337677761
420,0.00695655203863212
421,0.00701122785885647
422,0.00711247958380167
423,0.00721696484616023
424,0.00735168175162327
425,0.00725006978781381
426,0.00731670448380591
427,0.00717487334514993
428,0.00702175783992816
429,0.00698892506126172
430,0.00708037914096901
431,0.00736970953082898
432,0.00763735928765187
433,0.00793203518519182
434,0.00830082826867795
435,0.00849332521454787
436,0.00856252883952777
437,0.00876638631522812
438,0.00897024379092847
439,0.00917410126662882
440,0.0092446018156276
441,0.00946681011713678
442,0.00974837402977938
443,0.00984634479541051
444,0.010043651913888
445,0.0102409590323656
446,0.0104382661508431
447,0.010601755324398
448,0.010643638974679
449,0.0110345980170667
450,0.0110553489858273
451,0.0109649948337894
452,0.0108893838136911
453,0.0108137727935929
454,0.0107381617734946
455,0.0107592947466065
456,0.0106564267656449
457,0.0107275256132754
458,0.0107368291041337
459,0.0108588811437923
460,0.0108147183499922
461,0.0106562843977805
462,0.0109315893313773
463,0.0106528987301818
464,0.0104810307512374
465,0.0104086717995642
466,0.0102636247153961
467,0.010223780609812
468,0.0101724536860927
469,0.0100058339043237
470,0.010173074575207
471,0.0101314747629431
472,0.0101881399349187
473,0.0102332444692282
474,0.010260028904805
475,0.0103947105288027
476,0.0101465660771402
477,0.0101442938827436
478,0.010142021688347
479,0.0101397494939503
480,0.0101214986769179
481,0.00987788185582345
482,0.0097328037908677
483,0.0097030201329654
484,0.00943445963159581
485,0.00924657839716147
486,0.00933748187506264
487,0.00942459242459197
488,0.00951318475706002
489,0.00975386628961986
490,0.0098385042454763
491,0.00991238845042566
492,0.0101608727673703
493,0.0100531116207548
494,0.0102512278281519
495,0.0101186659335065
496,0.0101477871660893
497,0.0100438286720525
498,0.0100911974952088
499,0.00993412550144737
500,0.00994227750497886
501,0.00988016875035827
502,0.0100407084253612
503,0.0100524788367771
504,0.0099868620754439
505,0.0103264632451683
506,0.0102890046487153
507,0.0103322165901839
508,0.0104104009436721
509,0.0104694981091793
510,0.0102927543643712
511,0.0104672197322712
512,0.0104592911175194
513,0.0101439599516642
514,0.0100910798678789
515,0.0099613516828275
516,0.00991515508738428
517,0.00990484307032278
518,0.00987098538236956
519,0.0100296873283213
520,0.010227221107889
521,0.0103505099841867
522,0.0104737988604844
523,0.0105970877367822
524,0.0105461733150281
525,0.0105667043547646
526,0.0106282575389028
527,0.0105642751123381
528,0.010617898812012
529,0.0107939017860405
530,0.0107907457463624
531,0.0108493486052162
532,0.0108105659193245
533,0.0109133529184639
534,0.0109475663227993
535,0.0108519959997125
536,0.0109945902945946
537,0.0109242073473996
538,0.0108233561471075
539,0.010795857776614
540,0.0108352749401371
541,0.0107506395333783
542,0.0107391098493923
543,0.0107235457301094
544,0.0108344233894228
545,0.0107743241016749
546,0.0108589088184161
547,0.0108579290041036
548,0.0108569491897911
549,0.0108559693754786
550,0.0107668359638019
551,0.0108529457667427
552,0.0109606004662437
553,0.0108554298255232
554,0.0108369478353771
555,0.010930318828293
556,0.0108183447356606
557,0.0107796296416283
558,0.010706794238554
559,0.0106374012046649
560,0.0107423888202103
561,0.0105835517579782
562,0.0107670162062936
563,0.0106027690249185
564,0.0106481119761125
565,0.0104962734254878
566,0.0104616925609784
567,0.0103365217718517
568,0.0103418451604794
569,0.0102346244930389
570,0.0102448415437417
571,0.0102856937803621
572,0.0102876038755004
573,0.0102763212967176
574,0.0103730853145145
575,0.0102557769610601
576,0.0103229411184186
577,0.010390105275777
578,0.0104572694331355
579,0.010524433590494
580,0.0105915977478525
581,0.0107896268523908
582,0.0107559744641262
583,0.0108988503152526
584,0.0107372365438648
585,0.0107703812410524
586,0.0105253276958618
587,0.010381924065728
588,0.0103210987172633
589,0.0102602733687985
590,0.0101994480203338
591,0.0103066036127361
592,0.0104954042198825
593,0.0105894831259662
594,0.0108666371271474
595,0.0108974322166261
596,0.0110740682267853
597,0.011238662961128
598,0.0113630853468725
599,0.0114662555187862
600,0.0116746561595882
601,0.0117624866765546
602,0.0119341273039878
603,0.0119566556582548
604,0.0121173759659637
605,0.0121277182618575
606,0.0122176487502924
607,0.012267065396789
608,0.0121476259406109
609,0.0122113401012083
610,0.0121722662698469
611,0.0121894382027447
612,0.0121222236515176
613,0.0121464397580403
614,0.0120226874372225
615,0.0121915574340856
616,0.0120901502149326
617,0.0122303754468976
618,0.0122235077017096
619,0.0122765604849561
620,0.0122337857909182
621,0.0122976401817094
622,0.0121086852159768
623,0.012059539979441
624,0.0119776718472159
625,0.0118958037149908
626,0.0118139355827657
627,0.0118018756276482
628,0.0117367454911391
629,0.0116842227544272
630,0.0118150990450649
631,0.0116855113187335
632,0.0117525344481692
633,0.0118528120191185
634,0.0118575205297315
635,0.0119552848445722
636,0.011825048243579
637,0.0119252435138357
638,0.0118627446588765
639,0.0119472267701757
640,0.0118684496720707
641,0.0118146644193323
642,0.0117643555520445
643,0.0116536753392882
644,0.0115429951265319
645,0.0114323149137756
646,0.0114350317938933
647,0.0113849763571879
648,0.0111504396565692
649,0.0113657023009867
650,0.0112505755185612
651,0.0113689241884409
652,0.0112392922902122
653,0.0110876049263919
654,0.0108826898244186
655,0.0109903437044202
656,0.0108896435562933
657,0.0109926274908557
658,0.0111245658715868
659,0.0114039800713389
660,0.0115074046640781
661,0.0115244979828949
662,0.0116117183597352
663,0.0115646820409513
664,0.0114743683299735
665,0.0114877872369061
666,0.0115264476923502
667,0.0114993930212236
668,0.0115545716682233
669,0.0113505319063314
670,0.0114043031935474
671,0.0113322726371121
672,0.0113036688437145
673,0.0113271224676193
674,0.0113319169458344
675,0.011330812650176
676,0.0112936351651841
677,0.0114016481277428
678,0.0112526372815588
679,0.0112287324678418
680,0.0114719674153987
681,0.0112794529242226
682,0.011030054185607
683,0.0107561401571079
684,0.0103995281296203
685,0.0100365473287377
686,0.00981722287849172
687,0.00956691218102762
688,0.00944316993485291
689,0.00950934870632013
690,0.0096361629897964
691,0.00987669791688582
692,0.00989113775653364
693,0.00999836161768278
694,0.0101635084595031
695,0.0102398244333394
696,0.0104373882758774
697,0.0105019775717049
698,0.0104072359291444
699,0.0105002160770028
700,0.0107103420786784
701,0.010670163554249
702,0.0109363072490163
703,0.0110191938656404
704,0.0113143509465627
705,0.0113587991846717
706,0.0116313348233498
707,0.0119025460781142
708,0.0119611443099907
709,0.0121792018698966
710,0.012208555705746
711,0.0122845462001854
712,0.0123552055351324
713,0.0118488485638982
714,0.0115701444766704
715,0.0109157285129582
716,0.0103512738607642
717,0.00995684610454571
718,0.00989753055015509
719,0.010042532374207
720,0.0102346258822713
721,0.0102861270447318
722,0.0106471027498339
723,0.0106406240830306
724,0.0107106148514352
725,0.0107740036244936
726,0.0107934167038664
727,0.0111423980768426
728,0.0113904224981819
729,0.0118468513839812
730,0.0123662659314016
731,0.0129795174893833
732,0.0135546467915788
733,0.0142136391791578
734,0.0147702664096648
735,0.0150402904060475
736,0.0155099821197534
737,0.0158249221814543
738,0.0161398622431552
739,0.0164548023048561
740,0.0170320128261142
741,0.0172913608257622
742,0.0175671425534038
743,0.0178429242810454
744,0.0181187060086869
745,0.0183445533917226
746,0.018444057107048
747,0.0186256279945357
748,0.018528945291241
749,0.018739149896948
750,0.0188552858302227
751,0.018810450251933
752,0.0191205938032448
753,0.0189835056481516
754,0.0189117492355409
755,0.0176077819637261
756,0.0163038146919113
757,0.0149998474200965
758,0.0128738429576014
759,0.0108960135660364
760,0.0095661905907564
761,0.00913222456314802
762,0.00952616676632635
763,0.0104499075532769
764,0.0117818859526267
765,0.0131812601974574
766,0.0147976362881348
767,0.016385902489948
768,0.0173791391291807
769,0.0180970250088731
770,0.0186867266571552
771,0.0190003330471544
772,0.0192331196794264
773,0.0195869985694814
774,0.0194997343824808
775,0.0195570958232535
776,0.0196236987227284
777,0.0194589106118991
778,0.0197081367223119
779,0.0195036052096444
780,0.0197339368204925
