"wavelength","measurement"
380,0.00352243406245752
381,0.00348499265059982
382,0.00352523370407715
383,0.00350731421465076
384,0.00358154452396645
385,0.00383736747546625
386,0.00408771307837749
387,0.00436870363314093
388,0.0045652559875111
389,0.00476930897237623
390,0.00480032713806177
391,0.00480480626961992
392,0.00487966870565343
393,0.0049310434391406
394,0.00515974315118367
395,0.0054435533556832
396,0.0060048102778589
397,0.00673609339063218
398,0.00746737650340546
399,0.00819865961617874
400,0.0085404727899609
401,0.00911421995130503
402,0.00953165636815662
403,0.00974168081620836
404,0.00981401013057048
405,0.00970697464425578
406,0.00996272170898618
407,0.0100160090112881
408,0.0100853912154722
409,0.0102330679119709
410,0.0107449362424996
411,0.0107209037315291
412,0.0110220262861571
413,0.0112195329655602
414,0.0112348217730285
415,0.0113861947610728
416,0.0112000632902945
417,0.0111587127714588
418,0.0112798155899992
419,0.0110528328226311
420,0.0112691027117192
421,0.0112892026328175
422,0.0113309302997307
423,0.0114255094865994
424,0.0114540047214974
425,0.0112510851311694
426,0.0111491080312883
427,0.0108463379456044
428,0.010489234439358
429,0.0104227281047968
430,0.0105860708503421
431,0.0109231720511641
432,0.011394706233734
433,0.0119164201928913
434,0.0125645848176621
435,0.0127824126581789
436,0.0129441542874673
437,0.0130026199063469
438,0.0130610855252265
439,0.0131195511441061
440,0.0131363987402427
441,0.013342859555251
442,0.0137113198106764
443,0.013748810588186
444,0.0139711267852691
445,0.0141934429823521
446,0.0144157591794352
447,0.0147247870978036
448,0.0147548184413238
449,0.0153871261148363
450,0.0152683730933128
451,0.0152554739211665
452,0.0152203873409307
453,0.0151853007606949
454,0.0151502141804592
455,0.0152061455687468
456,0.0152260231255422
457,0.0153981577615505
458,0.0154944140678675
459,0.0157570467669457
460,0.0157655806050675
461,0.0155751956115622
462,0.0160588333109988
463,0.0156589510839305
464,0.0154907245447088
465,0.0154258867274387
466,0.0152312045127448
467,0.0151892413354259
468,0.0150414107633517
469,0.0149271639791476
470,0.0152406471220274
471,0.0152141416392489
472,0.0152785855657157
473,0.0154047822894279
474,0.0155146272776013
475,0.0156965787991273
476,0.0153835457324934
477,0.015412422505752
478,0.0154412992790105
479,0.0154701760522691
480,0.0154866432012815
481,0.0151435813690004
482,0.0149087134455578
483,0.0149167844104496
484,0.0146195551718306
485,0.0143366047269884
486,0.0144844339326958
487,0.0146287734844987
488,0.014726146967982
489,0.0150995479735655
490,0.0151635492040914
491,0.0153020178266768
492,0.0156445497217715
493,0.0154394851893917
494,0.015651919598008
495,0.0154207201982098
496,0.015455674491321
497,0.0151458007061396
498,0.0152328111637072
499,0.0148281927330066
500,0.0148951139000702
501,0.0146308448417544
502,0.0148768790653186
503,0.0148641102856796
504,0.0147107304625727
505,0.0151536028316451
506,0.0150967500826557
507,0.0151639436569487
508,0.0152450315835388
509,0.0152615920210694
510,0.0150503520768614
511,0.0152848112693755
512,0.0151806730747737
513,0.014722308154146
514,0.0146535899643008
515,0.0143792363461114
516,0.0142623864201301
517,0.0142261720164339
518,0.0141710893248895
519,0.0144103831432782
520,0.0146748873934899
521,0.0148259903467439
522,0.014977093299998
523,0.015128196253252
524,0.0150122240714345
525,0.0150488077480008
526,0.0150853562866581
527,0.0149565910943733
528,0.015043280451454
529,0.0152655438246932
530,0.0152660536195296
531,0.0152611248780093
532,0.0152198236331645
533,0.0153787258229417
534,0.0154275966025105
535,0.0152801723003544
536,0.0155101262635152
537,0.0155467008662483
538,0.0155857907716501
539,0.0157916849793897
540,0.016167405731361
541,0.016426386957551
542,0.0166440458076331
543,0.0169470436131484
544,0.0170292178566625
545,0.0167125743395005
546,0.0166597312903464
547,0.0163197477013434
548,0.0159797641123404
549,0.0156397805233375
550,0.0153302691746653
551,0.0153115440310445
552,0.0153500319585818
553,0.0150685386308242
554,0.0149038300598053
555,0.0149526763538857
556,0.0147064019768194
557,0.0146438131718383
558,0.0144956440574128
559,0.0143176884737777
560,0.0144388509885896
561,0.0141745839921636
562,0.0144423325461835
563,0.0141572866387147
564,0.0142115572051716
565,0.0139488581048359
566,0.0138497863950393
567,0.0136901802219103
568,0.0136907389761043
569,0.0134678796016895
570,0.0134645981159087
571,0.0134596543315905
572,0.0134384740531732
573,0.0134112774251955
574,0.0135399392218685
575,0.0133782827659983
576,0.0134633528536137
577,0.013548422941229
578,0.0136334930288444
579,0.0137185631164598
580,0.0138036332040752
581,0.0140119150819526
582,0.0139336115943562
583,0.0140140156049929
584,0.0137845134505867
585,0.013690610418068
586,0.0131743835986911
587,0.012888617863459
588,0.012630426929478
589,0.012372235995497
590,0.012114045061516
591,0.012074632727535
592,0.0121643600455751
593,0.0121512706082103
594,0.0123052387984105
595,0.0122110273399132
596,0.0123132757402683
597,0.0124031750913265
598,0.0124415273333572
599,0.0124793504446245
600,0.0125514335416951
601,0.0126448208025978
602,0.0126778882330362
603,0.0126018495357105
604,0.0127655794359145
605,0.0126843204729417
606,0.0128358463192157
607,0.0130353073754762
608,0.0132442518967797
609,0.0136362702159754
610,0.0138075631622547
611,0.0138928860138214
612,0.0136986848912483
613,0.0133370780267889
614,0.0127965454961648
615,0.0126619812941513
616,0.0122944817227861
617,0.0122841030149953
618,0.0121331887777037
619,0.0121380439372028
620,0.0120462969262203
621,0.0120730017189563
622,0.0118118185815474
623,0.0116631326940777
624,0.0115322434714267
625,0.0114013542487757
626,0.0112704650261247
627,0.0112031036615203
628,0.01111771441838
629,0.0110696906696514
630,0.0111362284743336
631,0.0109932810118708
632,0.0109452958188663
633,0.0109962799326906
634,0.0109341059026926
635,0.010939415060289
636,0.0108400443802211
637,0.0109241836918798
638,0.010821579814396
639,0.0108162560384834
640,0.0107698120306202
641,0.0106998388985745
642,0.0105764731927421
643,0.0104387514328138
644,0.0103010296728855
645,0.0101633079129573
646,0.0101178766115972
647,0.0100365629802766
648,0.00983527820290243
649,0.0100006410105898
650,0.00988943228598758
651,0.00999218113270194
652,0.00982314589935459
653,0.0096433642080105
654,0.0094378364827927
655,0.00948159231391494
656,0.00943015379170921
657,0.00949538946110864
658,0.00959548024362657
659,0.00985113553689991
660,0.00997537312983464
661,0.00996135026312696
662,0.0100101671016092
663,0.00994468558278195
664,0.00986508578890934
665,0.00986298729396231
666,0.00984102306628967
667,0.00983996607838481
668,0.00983335241000499
669,0.00964010354852015
670,0.00964882181582764
671,0.0096276054696784
672,0.00953547087904456
673,0.00954839213983849
674,0.009538430466289
675,0.00948554304654004
676,0.00944357306900554
677,0.00948015606752218
678,0.00930822080825844
679,0.00927897483783345
680,0.00947113869272339
681,0.00925582867021279
682,0.00902467068131045
683,0.00881409342564419
684,0.00842374824859245
685,0.00810942270853857
686,0.00785295337136876
687,0.00759900957574448
688,0.00746933842541278
689,0.00742492186054848
690,0.00754915563370354
691,0.00763659742275518
692,0.00759650527727191
693,0.00766804829925435
694,0.00775697557491482
695,0.00777537650294905
696,0.00790099999347491
697,0.00787376908796065
698,0.00778314413689013
699,0.00776120685435345
700,0.00786926185049713
701,0.00780565808457241
702,0.00793700497849678
703,0.00803490845039898
704,0.00823602104855139
705,0.00825359688821916
706,0.00839565958582258
707,0.00854477811235981
708,0.00849941185069484
709,0.00865010246489105
710,0.00853480319057807
711,0.0084975659226097
712,0.0084858682962588
713,0.0080301586511737
714,0.00770527999199368
715,0.0071700785065133
716,0.0066699109428535
717,0.00628465598393424
718,0.00620789871732928
719,0.00616737858608333
720,0.00624653299088748
721,0.00619129690494782
722,0.00638025067580987
723,0.00629868989562704
724,0.00625951012728988
725,0.00624227783629872
726,0.00620871108677418
727,0.00632300524520808
728,0.00639301860215155
729,0.00657841616118304
730,0.00683613475904392
731,0.00715440303572741
732,0.00746566313328186
733,0.0077162271786299
734,0.00798319362360105
735,0.00810327997089814
736,0.00821682714477098
737,0.0083383668324674
738,0.00845990652016382
739,0.00858144620786024
740,0.00875493718467339
741,0.00889227071723859
742,0.00894650880393006
743,0.00900074689062153
744,0.00905498497731301
745,0.00914618136056373
746,0.00911089644270953
747,0.00912302997085577
748,0.00899511216409046
749,0.00900174862282572
750,0.00907673390030837
751,0.0089327994215784
752,0.00908423160074284
753,0.00884041918681549
754,0.00886709075540889
755,0.00826537218150637
756,0.00766365360760384
757,0.00706193503370131
758,0.00605553675961476
759,0.00509557077392741
760,0.00443539120981008
761,0.00415643923832279
762,0.0042446907704305
763,0.00458871188706683
764,0.00509264830043996
765,0.00568660140789438
766,0.00639254083820626
767,0.00702185657134705
768,0.00748784977742583
769,0.0077042782224034
770,0.00791550645857093
771,0.00804406684492068
772,0.00813263660003657
773,0.00819963697718366
774,0.00813542428364199
775,0.00812507374314304
776,0.00812025127678828
777,0.00801614652508116
778,0.00804343153846513
779,0.00794700436926733
780,0.00803650290325243
