"wavelength","measurement"
380,0.00131073801651283
381,0.00128769096142228
382,0.00132336544489061
383,0.00132723651022756
384,0.00137703471727266
385,0.00142996442795352
386,0.00147247264536408
387,0.00152386458107551
388,0.00166840620491992
389,0.0017735038033273
390,0.00177625525176842
391,0.00178492553781032
392,0.00177966410409717
393,0.00184285260970742
394,0.001947584568396
395,0.00210890153039356
396,0.00240988072859131
397,0.00277486552303915
398,0.003139850317487
399,0.00350483511193484
400,0.00368421458985787
401,0.00396455051695236
402,0.00425505053543817
403,0.00448102965829666
404,0.0045686777200128
405,0.00467346434673452
406,0.00499359618702286
407,0.00506238387733141
408,0.00524506307671399
409,0.0054070533133593
410,0.00578723471877488
411,0.00590275625053771
412,0.00620739237417154
413,0.00640427724734941
414,0.00653204558286381
415,0.0067508631782811
416,0.00677102664573168
417,0.00686409394762912
418,0.00697810020854672
419,0.00699854602727258
420,0.00729423457246006
421,0.00734621806797997
422,0.00750464314180556
423,0.0075890557898332
424,0.00775559297256935
425,0.00766462110933333
426,0.00766483123699816
427,0.00751994101733124
428,0.0073788763741573
429,0.00736537540375953
430,0.00745017785772643
431,0.00773506549505554
432,0.00809724252219034
433,0.00831696259959186
434,0.00874395219869978
435,0.0088873590213306
436,0.00908997025279539
437,0.00927509398306776
438,0.00946021771334013
439,0.0096453414436125
440,0.00973290032854826
441,0.00987768970790614
442,0.0101430746662103
443,0.0103131255491221
444,0.0105027669051027
445,0.0106924082610832
446,0.0108820496170638
447,0.0110962199277215
448,0.0110993045116929
449,0.0115749175779144
450,0.0114484659018438
451,0.0113851225182416
452,0.0113353289193546
453,0.0112855353204676
454,0.0112357417215806
455,0.0111936717471028
456,0.0111144970570774
457,0.0111863210819503
458,0.0112205723370203
459,0.0113304088910617
460,0.011305541438284
461,0.0111205645403116
462,0.0114473820642286
463,0.011120546362436
464,0.010961346062964
465,0.0108712015142688
466,0.0106914292761728
467,0.0107040698735055
468,0.0105846044208788
469,0.0104653212087586
470,0.0106725633231609
471,0.0105991890781622
472,0.010623298376409
473,0.0106750274465044
474,0.0107157819632102
475,0.0108623248195745
476,0.0106042612768957
477,0.0105924693946574
478,0.010580677512419
479,0.0105688856301807
480,0.0105820362380486
481,0.0102952672033476
482,0.0101192315719761
483,0.0100831130324163
484,0.00985204502801447
485,0.00967188234675756
486,0.00974575874636151
487,0.00978415947393545
488,0.00987764466894686
489,0.0101175176705583
490,0.0102267241312641
491,0.0102928439384977
492,0.0105909112074683
493,0.0104620032256356
494,0.0106294702753291
495,0.0105185636735078
496,0.010552135993992
497,0.010426255475272
498,0.0104904617470443
499,0.0103141454664055
500,0.0103538280930817
501,0.010249113091629
502,0.0104007495489077
503,0.0104726481980824
504,0.0103753736992028
505,0.0107015049100344
506,0.0106855599051051
507,0.0107237289473595
508,0.0108066748813041
509,0.0108531668826184
510,0.0107222343346389
511,0.0108816543586023
512,0.0108109395647909
513,0.0105086990984662
514,0.0104935073928578
515,0.0103184889716405
516,0.010278768959155
517,0.0102502399896429
518,0.0102499946836422
519,0.0104147814501334
520,0.0106279065404121
521,0.0107487698238646
522,0.0108696331073172
523,0.0109904963907697
524,0.0109197646254094
525,0.0109799053462466
526,0.0110288554500345
527,0.0109674986652095
528,0.0109996171087302
529,0.0111663678213905
530,0.0111778403571189
531,0.0112256405756726
532,0.0111994609701311
533,0.0113040484093205
534,0.0113841730349317
535,0.0112750994114697
536,0.0113572497664314
537,0.0113017892164567
538,0.0112384701061426
539,0.0111757006149469
540,0.0112226446181235
541,0.0111613899259034
542,0.0110918210564156
543,0.0111369384351153
544,0.0112032968800434
545,0.0111367303866297
546,0.0112342380535679
547,0.0112383372584089
548,0.0112424364632499
549,0.0112465356680909
550,0.0111813122669861
551,0.0112582114854116
552,0.0113069517854977
553,0.0112514849596769
554,0.0112228713265641
555,0.0113090468108078
556,0.0112162753281997
557,0.0111701313351184
558,0.0110822193304678
559,0.0110082001658946
560,0.0111576778220281
561,0.0109715465887598
562,0.0111440666954747
563,0.0109601563748496
564,0.0110369736854367
565,0.0108860686963194
566,0.0108205719422472
567,0.0106651020809822
568,0.0107597806424633
569,0.0106180348699894
570,0.0105842244931725
571,0.0106433561975231
572,0.0106366891963119
573,0.010637534581755
574,0.010737643167006
575,0.0106158649710662
576,0.0106887755329177
577,0.0107616860947692
578,0.0108345966566207
579,0.0109075072184721
580,0.0109804177803236
581,0.011154215962522
582,0.0111630906350688
583,0.0112791932758215
584,0.0111205635671092
585,0.011161976951934
586,0.0108629102052425
587,0.0107409659867236
588,0.0106742794834972
589,0.0106075929802708
590,0.0105409064770444
591,0.0106595773839334
592,0.010838092143757
593,0.0109363679089388
594,0.0112166393387251
595,0.0112906533247752
596,0.011453410942882
597,0.0116127377230042
598,0.0117526055504742
599,0.0118604018530721
600,0.0120384742479387
601,0.0121972262656722
602,0.0123495246656234
603,0.0123659973731481
604,0.0125568583809538
605,0.0125769947373049
606,0.0126724265703371
607,0.012698004056912
608,0.0125675619115393
609,0.0126556987080005
610,0.0126282943954819
611,0.0125912499522204
612,0.0125533790312763
613,0.0125720437809781
614,0.012482737379173
615,0.012645305835861
616,0.0124780783627493
617,0.0126612984782008
618,0.0126594809256762
619,0.0127144591795318
620,0.012669829865535
621,0.0127474688754592
622,0.0125297131204541
623,0.0124852690329378
624,0.0124092134324792
625,0.0123331578320205
626,0.0122571022315619
627,0.0122197590135659
628,0.0121557479005601
629,0.012155963053647
630,0.012244266438935
631,0.0120917314373363
632,0.0121589004357576
633,0.0122804165310008
634,0.012260785759456
635,0.0123703863005514
636,0.0122529069842646
637,0.0123885775918033
638,0.0123174724666976
639,0.0123624282506022
640,0.0122936827710167
641,0.012237442751636
642,0.0121705642095127
643,0.0120542003159272
644,0.0119378364223417
645,0.0118214725287562
646,0.0118656370391922
647,0.0118071253690111
648,0.0115301491289724
649,0.0117647915100396
650,0.0116357946709323
651,0.0117676841503549
652,0.0116325133983612
653,0.0114726521617444
654,0.011257431415943
655,0.0113641559021225
656,0.0112444802828201
657,0.0113650310109262
658,0.0115115521225256
659,0.0118118922701739
660,0.0119114200771567
661,0.0119574579703889
662,0.0120215685322352
663,0.0119435037963854
664,0.0118660974067848
665,0.0119001296852161
666,0.0119289252295527
667,0.0119342284671031
668,0.0119456672568688
669,0.0117430653464057
670,0.011772318140996
671,0.0117406057721625
672,0.0116964481772216
673,0.0117028851420425
674,0.0117584795363914
675,0.0117002279398858
676,0.0117147130818849
677,0.011756309811487
678,0.0116428326501793
679,0.0116179525981019
680,0.0118547276334422
681,0.011670048390632
682,0.0114341862938741
683,0.0111280310518864
684,0.0107612665430056
685,0.0104199827118
686,0.0101536696936279
687,0.00989282517156555
688,0.00975914716363326
689,0.00980830510833122
690,0.00995696639815531
691,0.0101373032787571
692,0.0101440329005981
693,0.0102964344704101
694,0.0104759014789246
695,0.0105438445729912
696,0.0107749041022933
697,0.0108302161306408
698,0.0107504448136814
699,0.0108195441247651
700,0.0110551180128886
701,0.011001131947057
702,0.0112616471828253
703,0.0113491411755497
704,0.0116350418274185
705,0.011724055124451
706,0.012004300980936
707,0.012240503679172
708,0.0123070955314558
709,0.0125437159616923
710,0.012512848828785
711,0.0126319519438205
712,0.0127040407948258
713,0.0121728319161417
714,0.0118886473227431
715,0.0112262294032531
716,0.0106180724029928
717,0.0102251325104268
718,0.0102010213937737
719,0.0102868629249779
720,0.0104866874892756
721,0.010529728250575
722,0.010902415151373
723,0.0108880678947214
724,0.0109038860476623
725,0.0110266403720694
726,0.0110737852294351
727,0.0113638897121641
728,0.01166226810731
729,0.0120947786471669
730,0.0126169647053125
731,0.0132820414300121
732,0.0139214947871431
733,0.0145300373441536
734,0.015034289273483
735,0.0153664534577035
736,0.0157845492273831
737,0.0161237896728457
738,0.0164630301183082
739,0.0168022705637708
740,0.0173206833808024
741,0.0176089592841247
742,0.0178888545171583
743,0.018168749750192
744,0.0184486449832256
745,0.0186794102349165
746,0.0187975184974256
747,0.018994151399591
748,0.0188732294385857
749,0.0190401901416096
750,0.019159839433593
751,0.0191421980018923
752,0.0194956854803345
753,0.0192814784764316
754,0.0192157235306544
755,0.0179028290769249
756,0.0165899346231954
757,0.0152770401694658
758,0.0130942968392829
759,0.011093905683341
760,0.00967890147203655
761,0.0092951977291582
762,0.00966791391109855
763,0.0105995066171562
764,0.0119416916778081
765,0.0133714566838537
766,0.0150379283518491
767,0.0166772445309142
768,0.017660457886998
769,0.0183990988394893
770,0.0189208005344003
771,0.0192137101991949
772,0.0195980963842906
773,0.0199203800520787
774,0.0197651867623572
775,0.0197930409911988
776,0.019968162080541
777,0.0197260925811754
778,0.0200021710879825
779,0.0197942262410535
780,0.0200458797299014
