"wavelength","measurement"
380,0.00112065715443061
381,0.00117328638546823
382,0.00122921901520666
383,0.00115893530141242
384,0.00118719352021445
385,0.00122978677727443
386,0.00135082656474096
387,0.00146135865174959
388,0.00159939043445278
389,0.00160230566012551
390,0.00157212067829234
391,0.00160615264119518
392,0.0016589603516229
393,0.00169974192073358
394,0.00186757762580063
395,0.00195475903209423
396,0.00222425440186096
397,0.00255611027900924
398,0.00288796615615753
399,0.00321982203330582
400,0.00342434131904403
401,0.00374363997099867
402,0.00403732403815622
403,0.00429168289649174
404,0.00440690455254526
405,0.00445974456379471
406,0.00463332378448627
407,0.00484337874779601
408,0.00497382043719963
409,0.00515788279502123
410,0.00550272084262976
411,0.00560866633090013
412,0.00580558241246819
413,0.00595075801661134
414,0.0060848043883872
415,0.00627584613381818
416,0.0063029177419688
417,0.00628398967709433
418,0.00637736889073697
419,0.00635339452511306
420,0.00657935573750575
421,0.00662249423324776
422,0.00677719770132103
423,0.00668824048367412
424,0.00706093000203018
425,0.00669450771854821
426,0.00685940297265268
427,0.0066085822931689
428,0.00649267769014907
429,0.00647181183466997
430,0.0065711968777776
431,0.00690426639448335
432,0.0070112711748488
433,0.00738947442802087
434,0.00770631233754726
435,0.00788051834930757
436,0.00798293563296642
437,0.00816021818474521
438,0.00833750073652401
439,0.0085147832883028
440,0.00862434467935636
441,0.00880454034165162
442,0.00916259298760892
443,0.00923602144812345
444,0.00944021701630716
445,0.00964441258449086
446,0.00984860815267457
447,0.0100266230827195
448,0.0102066743252346
449,0.0105176306935619
450,0.0106283969618325
451,0.0104967938518493
452,0.0104588692391196
453,0.0104209446263899
454,0.0103830200136603
455,0.0103393334993946
456,0.0103342832528738
457,0.0104609035848106
458,0.0104782775698865
459,0.0104982288937046
460,0.0105301656747989
461,0.0104155622474265
462,0.0106750421997664
463,0.0103971914670353
464,0.0102598943991677
465,0.0102275229236931
466,0.0100560416388094
467,0.0100119810607194
468,0.00996544206212681
469,0.00981213356495113
470,0.00999074525261628
471,0.0100090678543376
472,0.0100031361929616
473,0.0100951569005458
474,0.010098856262864
475,0.0102501626116063
476,0.0099981912698489
477,0.0100386970933633
478,0.0100792029168777
479,0.0101197087403921
480,0.0101464505682499
481,0.00987725875730557
482,0.0097430366293759
483,0.00968409278803367
484,0.00949004168460042
485,0.00926561621333675
486,0.00941165700188296
487,0.00943304395040515
488,0.00958647367386617
489,0.00985259616962362
490,0.00995068317590272
491,0.0100746362609856
492,0.0102469130116801
493,0.0102067476719372
494,0.0103544041316217
495,0.0102919001566673
496,0.0103409718686622
497,0.0102074121485865
498,0.0102588016027119
499,0.0100883146421889
500,0.0101628296961915
501,0.0100615408867659
502,0.0102898907135463
503,0.0103253687558777
504,0.0102422806754234
505,0.0106109944596816
506,0.0106033966626089
507,0.0106770154453115
508,0.0107858421209233
509,0.0108109219166356
510,0.0106736392391538
511,0.0108314591137331
512,0.0107729336560554
513,0.01054970961064
514,0.0105158801238184
515,0.0103634523647369
516,0.0103266106841739
517,0.0103220702430955
518,0.010327457945744
519,0.0105043396342586
520,0.010761240424097
521,0.0108889339104621
522,0.0110166273968272
523,0.0111443208831923
524,0.0110966797815
525,0.0111885756175698
526,0.0111881778433428
527,0.0111390928748361
528,0.0112300834605738
529,0.0113884395450246
530,0.0114035819898892
531,0.0114694945171368
532,0.0114697222828988
533,0.0115512592077494
534,0.0116448586623134
535,0.0115483116891215
536,0.0116784419772354
537,0.0116401134552298
538,0.0115866086775999
539,0.0115404810045504
540,0.0116118736375394
541,0.0115426130302193
542,0.011502333509283
543,0.0115295726740816
544,0.0116121555262227
545,0.0115475428285323
546,0.0116742544453931
547,0.0116919579697933
548,0.0117096614941936
549,0.0117273650185939
550,0.0116733043180361
551,0.0117576841385635
552,0.0118635907011438
553,0.0117885741742254
554,0.0117570426396203
555,0.0118617253759684
556,0.0117477986947072
557,0.0117099621722016
558,0.0116767062433022
559,0.0115821776665121
560,0.0117418015301153
561,0.0115070199364423
562,0.0117169626331537
563,0.011588216516153
564,0.0116284687486786
565,0.0114966230486851
566,0.0114627471051377
567,0.0113062375801637
568,0.011405058855846
569,0.0112608757565794
570,0.0113340967026312
571,0.0113485516901971
572,0.011343666402994
573,0.0113824368772316
574,0.0115114744261839
575,0.0113674592653888
576,0.0114569667476376
577,0.0115464742298864
578,0.0116359817121351
579,0.0117254891943839
580,0.0118149966766327
581,0.0120486890220582
582,0.0120135566440336
583,0.0122134012932672
584,0.0120403841047634
585,0.0120424377248421
586,0.0117540703929292
587,0.0116369680596876
588,0.0116054147895186
589,0.0115738615193496
590,0.0115423082491806
591,0.0116468614172995
592,0.0118967274558054
593,0.012005771859335
594,0.0123427581249863
595,0.0124181876944802
596,0.0126010576001424
597,0.0127779904137093
598,0.0129230108153031
599,0.013029599481003
600,0.0133272806571852
601,0.0134956434361991
602,0.0137003826880386
603,0.0136946838298745
604,0.0139243966037807
605,0.0139371561914377
606,0.0140737142469311
607,0.0140997836270211
608,0.0140016228626652
609,0.0140765738823736
610,0.0140612697214822
611,0.0140872501948479
612,0.0140287960449434
613,0.0139856592780247
614,0.0139033468330941
615,0.0141300602279315
616,0.0140303065210891
617,0.0141679965589307
618,0.0141705262827104
619,0.0142588137047636
620,0.0141981812305077
621,0.0142718997117308
622,0.0140476558363027
623,0.0140172830520481
624,0.0139357618249178
625,0.0138542405977875
626,0.0137727193706573
627,0.0137656210677807
628,0.0136967011858379
629,0.013689457916285
630,0.0138048020628352
631,0.0136409784858297
632,0.0137321710583145
633,0.0138275670031037
634,0.0138791883913543
635,0.0139804767795503
636,0.0139379061011184
637,0.0140458236083775
638,0.0139624516732402
639,0.0140529646728426
640,0.0139703991060365
641,0.0139388176783517
642,0.0138242532220585
643,0.0137128137510844
644,0.0136013742801103
645,0.0134899348091362
646,0.0135206025561336
647,0.0134570751568593
648,0.0131419060683932
649,0.0134327239858355
650,0.0132752674443346
651,0.0134596194922595
652,0.0133037269116472
653,0.0131838955226498
654,0.0129207676400448
655,0.0130904350116578
656,0.0129764880536411
657,0.013066440182989
658,0.0132435105371168
659,0.0135765333850805
660,0.0137714232449548
661,0.0137557179162132
662,0.0138324782272395
663,0.013805597123374
664,0.0137166725193958
665,0.0137365091619487
666,0.0137715136887483
667,0.0138230767131318
668,0.0137955077723095
669,0.0135773769308128
670,0.0136499873623202
671,0.013562543947049
672,0.0135326320590034
673,0.013576795506409
674,0.0136286185594363
675,0.0135944061723709
676,0.0136609922855144
677,0.0137002815153316
678,0.0135175314710308
679,0.0135225373929452
680,0.0138175939091437
681,0.0135916277960856
682,0.0132671141666468
683,0.0130485608857128
684,0.0125541252693134
685,0.0121902626812614
686,0.0118538204362127
687,0.0115704764107971
688,0.0114449284222639
689,0.0114581553964124
690,0.0116468329215696
691,0.0118966870308255
692,0.0119444912404577
693,0.0120346042938911
694,0.0122852548916308
695,0.0123319362930739
696,0.0126123154934142
697,0.0127064553728125
698,0.0125930982862358
699,0.0126699138923205
700,0.0129110213211551
701,0.0128375883294265
702,0.0132153848539907
703,0.0132771980869167
704,0.0136316446151702
705,0.0137054905448373
706,0.0140279019660156
707,0.0143745301919667
708,0.0144663678265384
709,0.0147338680472984
710,0.0146944696922029
711,0.0148097826140544
712,0.0149251159603553
713,0.0142941157115982
714,0.0140449378164256
715,0.013195998032458
716,0.0125279609857912
717,0.0120499108347768
718,0.0119766806823948
719,0.0120831445211738
720,0.0123761163052041
721,0.0124159205624427
722,0.0128692942726383
723,0.0128168482404508
724,0.012894027073753
725,0.0130136319969956
726,0.013076907287443
727,0.0134496183923452
728,0.013794626418836
729,0.0143626894684009
730,0.0148872638723023
731,0.0156282430078124
732,0.0164592423020615
733,0.0172238401878732
734,0.0178027701598815
735,0.0181855950088889
736,0.0187125800538742
737,0.0190887773482939
738,0.0194649746427136
739,0.0198411719371333
740,0.0205495259248481
741,0.0208391300294122
742,0.0211895855137002
743,0.0215400409979883
744,0.0218904964822764
745,0.0220859245159048
746,0.0221735578589313
747,0.0224953442366087
748,0.0222998819558397
749,0.0225895786351367
750,0.0226774691305816
751,0.0228118372561154
752,0.0231475650057545
753,0.0228842966678859
754,0.0228547407026359
755,0.021303228543929
756,0.019751716385222
757,0.0182002042265151
758,0.0156704859517482
759,0.0132695021359676
760,0.0117391578214514
761,0.0112299428058548
762,0.0116288064582265
763,0.0128457878881899
764,0.0143288865289766
765,0.0160774848861665
766,0.0180085674417509
767,0.0199037262105574
768,0.0211206034882072
769,0.0220447700760184
770,0.0227565868701672
771,0.0230474038055022
772,0.0234775389393439
773,0.0237744794868585
774,0.0236955330587383
775,0.0237962998225028
776,0.0240014794383935
777,0.0237203024425169
778,0.0240833437022817
779,0.0237206142366584
780,0.0239945126704461
