"wavelength","measurement"
380,0.00120900368484559
381,0.00122151751503864
382,0.00126249295344616
383,0.00115900225628182
384,0.00118173239544733
385,0.00122817710151371
386,0.00138918362580399
387,0.001423972912597
388,0.00154336135595889
389,0.00153760930280866
390,0.00160712851989346
391,0.00158851084039552
392,0.00163695521165587
393,0.00170242942180408
394,0.00184098983753649
395,0.00196191488463265
396,0.00217983461626211
397,0.00249795362967982
398,0.00281607264309753
399,0.00313419165651524
400,0.00331660571925193
401,0.00368533012932556
402,0.00392891579819944
403,0.00413455051753524
404,0.00427444981338926
405,0.00438218360451554
406,0.00455767838199173
407,0.00472604367384996
408,0.0048868360713715
409,0.00503367065886655
410,0.00540252407008505
411,0.00554860455737715
412,0.00580305604457153
413,0.00603277290591942
414,0.00614123764774581
415,0.00633518287953711
416,0.00637037844497392
417,0.00643762329183152
418,0.00666596981779986
419,0.00660515624893781
420,0.00685650264092621
421,0.00691672371452929
422,0.00706614941852748
423,0.00714013746503408
424,0.00731885520811695
425,0.00724860323488059
426,0.00725830329350494
427,0.00710260887327859
428,0.00691182816434571
429,0.00702658662349009
430,0.00708707518847592
431,0.00738290842225807
432,0.00763021682933189
433,0.0079483255664929
434,0.00827252406605659
435,0.00847627020240635
436,0.00859542969235375
437,0.00878703496829619
438,0.00897864024423862
439,0.00917024552018106
440,0.00925568553021445
441,0.00941543481696452
442,0.00969927952085174
443,0.00985181882551731
444,0.0100363820794569
445,0.0102209453333965
446,0.0104055085873361
447,0.0106269418808483
448,0.0106106933615866
449,0.0110330938769311
450,0.0110110024575697
451,0.0108723954408169
452,0.0108275099719017
453,0.0107826245029864
454,0.0107377390340712
455,0.01073525742189
456,0.0106377259060473
457,0.010771793977082
458,0.0106800536556216
459,0.0108345062607199
460,0.0107733421595349
461,0.0106384917416485
462,0.0109605563987434
463,0.0106180363590807
464,0.0104495378736551
465,0.0104014677641973
466,0.0102435869601006
467,0.0101797319375389
468,0.0100817455809504
469,0.00999028526683779
470,0.0101611008230412
471,0.010109335103852
472,0.0101434837104118
473,0.0102235158333486
474,0.0102536553718204
475,0.0103672484570471
476,0.0101390627119723
477,0.0101395505959449
478,0.0101400384799175
479,0.0101405263638901
480,0.0101220751257902
481,0.00986929549519431
482,0.0096940162544944
483,0.00966318639480535
484,0.0094494054938904
485,0.00928369943010319
486,0.00933825850984225
487,0.0094113692594857
488,0.00948969283144452
489,0.00973489684419805
490,0.00979674731839949
491,0.00989173175701865
492,0.0101238580467106
493,0.0100337317309449
494,0.0102082740044328
495,0.0101343803562743
496,0.0101524722221781
497,0.0100011869606502
498,0.010103961872284
499,0.00985310143288267
500,0.00997027681046915
501,0.00984850176395454
502,0.0100281213933247
503,0.0100595431852146
504,0.00998998926286461
505,0.0103073555628763
506,0.010293316217757
507,0.0103204201992278
508,0.010436729611714
509,0.0104241343123141
510,0.0103032864825992
511,0.0104785262567373
512,0.0104391944839555
513,0.0101440947056483
514,0.0101041255574114
515,0.00996292391834911
516,0.00989502907323632
517,0.00987097981778006
518,0.00985507789439378
519,0.0100484223201717
520,0.0101908016429594
521,0.0103193410095973
522,0.0104478803762352
523,0.0105764197428732
524,0.0105038035241887
525,0.0105569775900971
526,0.0105912063774462
527,0.010517542876513
528,0.0106159053699687
529,0.0107424559589827
530,0.0107690736738904
531,0.0108108501898589
532,0.0107583056906363
533,0.0109024597086642
534,0.0109459055414702
535,0.0108233374859811
536,0.0109510947399193
537,0.010890467238388
538,0.0108388341763909
539,0.0107371894548106
540,0.0108142432770006
541,0.0107476158427537
542,0.0106730952353083
543,0.0107129752235927
544,0.0107944608613004
545,0.0106823328930137
546,0.0108150401139181
547,0.0108147135844426
548,0.0108143870549671
549,0.0108140605254915
550,0.0107382265075256
551,0.0108836829577486
552,0.0109376157655992
553,0.0108385597558948
554,0.0107850022396216
555,0.0109211166209972
556,0.0107713703279945
557,0.0107607039354314
558,0.0107182450862508
559,0.0106281083830734
560,0.0107229153666679
561,0.0105951206696478
562,0.0107552280811696
563,0.0105836027449027
564,0.0106541982139951
565,0.0104915863195817
566,0.0104176211484083
567,0.0103302128945868
568,0.010404055079583
569,0.0102632273789086
570,0.0102757086780938
571,0.0103014458124763
572,0.0103181941076046
573,0.0103318954015417
574,0.0103691574159806
575,0.0102992695638817
576,0.0103692226459346
577,0.0104391757279875
578,0.0105091288100404
579,0.0105790818920933
580,0.0106490349741462
581,0.0108223103135832
582,0.0108175975850181
583,0.010919644993379
584,0.0108115110130517
585,0.0108582389732503
586,0.010564787079638
587,0.0104720032488913
588,0.0104058029791274
589,0.0103396027093635
590,0.0102734024395995
591,0.0104186997386227
592,0.0105812957887277
593,0.0107071564711963
594,0.0109633412366713
595,0.0110145229212413
596,0.0112100491815374
597,0.0113366419360022
598,0.0115044767005115
599,0.0115823184023214
600,0.0117909403717264
601,0.0119409947971148
602,0.0120786732944348
603,0.0121098454524931
604,0.0123379473320511
605,0.0123097044161705
606,0.0124333637930265
607,0.0124685753654233
608,0.0123423996900439
609,0.0124281980178779
610,0.0123669021396205
611,0.0123852902574132
612,0.0123154681292961
613,0.012310020072971
614,0.0122047171917945
615,0.0123787607543651
616,0.0122680152107172
617,0.0124114181077142
618,0.0124251468335328
619,0.012471448842812
620,0.0124463569131823
621,0.012541849666465
622,0.0123217140228473
623,0.0122948277702094
624,0.0122078822193054
625,0.0121209366684014
626,0.0120339911174974
627,0.0120273817059025
628,0.0119666389359797
629,0.0119178426955388
630,0.0120203176489182
631,0.011930718060579
632,0.0119791361041874
633,0.0120842038017522
634,0.0121021076367066
635,0.0121783231823121
636,0.0120714546114166
637,0.0122306686903286
638,0.0121433060051203
639,0.0121933066608471
640,0.0121145212200814
641,0.012092820454596
642,0.0120212219295175
643,0.0119147776787255
644,0.0118083334279334
645,0.0117018891771414
646,0.0116741982357468
647,0.0116424738230987
648,0.0113990653660728
649,0.0116173974089431
650,0.0114724507929344
651,0.0116393083471058
652,0.0114830831020205
653,0.0113291507886611
654,0.0111075306088506
655,0.0112374245163312
656,0.0111560947534449
657,0.0112450828239178
658,0.0114088117873027
659,0.0117014881698055
660,0.0118047488177907
661,0.011839548533231
662,0.0119063008645163
663,0.0118329602847087
664,0.0117594999520983
665,0.0118132540393159
666,0.0118179165721706
667,0.0118413671626454
668,0.0118589868529889
669,0.011655738840578
670,0.0116760668775752
671,0.0116531794043056
672,0.0116033060195038
673,0.0116220886363617
674,0.0116750066501378
675,0.0116489975346759
676,0.0115893620629877
677,0.0117048242253072
678,0.0115270227991047
679,0.0115177468958072
680,0.0117933068719947
681,0.0115652620828064
682,0.0113512350757489
683,0.011109273485494
684,0.0106942555367769
685,0.0103476223528846
686,0.0100698336467961
687,0.00984555115201743
688,0.00973067230052303
689,0.00975419208195201
690,0.00989382095477804
691,0.0100991673939498
692,0.0101124886852814
693,0.0102563336819977
694,0.0104225461344186
695,0.010493793616305
696,0.010729439712678
697,0.0107651850645805
698,0.0106582688637734
699,0.0107280506569972
700,0.0109378891479845
701,0.0109548877434319
702,0.0111831957352256
703,0.0112971829912358
704,0.0115680524698178
705,0.011625688706336
706,0.0119365966518751
707,0.012113380953753
708,0.0122552575359346
709,0.0124588534406359
710,0.0124173906057295
711,0.0125267935583607
712,0.0125809032704571
713,0.0120776970000609
714,0.0118016002660274
715,0.0111435469109761
716,0.0105746916425017
717,0.0101542082427621
718,0.0101023055665439
719,0.0102356820490909
720,0.0103999244071079
721,0.0104649316692284
722,0.0108493633242051
723,0.0107986228260554
724,0.010847715188769
725,0.010924367383527
726,0.0109997018244916
727,0.0112832416022583
728,0.0115585846220859
729,0.0119759223982863
730,0.0125213798042099
731,0.0131704971597567
732,0.0137918486462576
733,0.0144365699574218
734,0.0149655161733389
735,0.0152118419508057
736,0.0156911750576168
737,0.015991745024275
738,0.0162923149909332
739,0.0165928849575914
740,0.0171981256659838
741,0.0174929975184414
742,0.0177707793539928
743,0.0180485611895441
744,0.0183263430250954
745,0.0185531279850956
746,0.0186831612437362
747,0.0188455635179418
748,0.0187308171295881
749,0.0189801960947131
750,0.0190502692421094
751,0.0190621600895183
752,0.0193671854407879
753,0.0191906096465902
754,0.0190970064733212
755,0.0177934790599811
756,0.016489951646641
757,0.015186424233301
758,0.0130807488428461
759,0.0110389947672439
760,0.00966965194590104
761,0.00929697213521226
762,0.00967559764050834
763,0.01059988630722
764,0.0119304421848583
765,0.0133120961624312
766,0.01501375454912
767,0.0165439935209921
768,0.0175746634013252
769,0.0183786831902338
770,0.0188755933704026
771,0.0192420071264395
772,0.0195823479383474
773,0.0198511157608646
774,0.0197275892080557
775,0.0198247515341111
776,0.0199363858182837
777,0.019698817939172
778,0.0199780858385247
779,0.0198172021815592
780,0.0199840435535656
