"wavelength","measurement"
380,0.013338004678302
381,0.0130531007050446
382,0.0128425199875389
383,0.012588573542609
384,0.0125832204313516
385,0.0134440336182608
386,0.0142391055711552
387,0.0151110383363326
388,0.0155495931357931
389,0.0161769066345192
390,0.0160940519812043
391,0.0161991999194797
392,0.0164897226803624
393,0.0167135906720919
394,0.0174813910431921
395,0.0187539913264915
396,0.0210069007411264
397,0.0235891839956369
398,0.0261714672501474
399,0.0287537505046578
400,0.0303898199450937
401,0.0325952741042228
402,0.0340130024340694
403,0.0347271716079428
404,0.0353787828276741
405,0.0356273854620735
406,0.0367651826596748
407,0.0373406651349782
408,0.037968438645207
409,0.0388418776355472
410,0.0406511764624122
411,0.0411054939972203
412,0.042306726239553
413,0.0431592303788816
414,0.0431511135851477
415,0.0435224166091279
416,0.0431861869639804
417,0.0428476518033626
418,0.0432425839608734
419,0.0424145117775148
420,0.0432413971635097
421,0.043101083426501
422,0.043011829549712
423,0.0430285294069172
424,0.043299900220252
425,0.0420695244549738
426,0.0415540272905572
427,0.0402177381850443
428,0.0389488100674719
429,0.0387026222002988
430,0.0387167389215407
431,0.0398702262273052
432,0.0413026610406831
433,0.0423957407631404
434,0.044055006851627
435,0.0446434770563518
436,0.044871744036203
437,0.0454437559394618
438,0.0460157678427205
439,0.0465877797459792
440,0.0466614735172414
441,0.0474864827459027
442,0.0483385242065121
443,0.0483868863391991
444,0.049047786440893
445,0.0497086865425869
446,0.0503695866442808
447,0.0508567284790054
448,0.0506677834298381
449,0.0525079707467884
450,0.0520219652623616
451,0.0514147198857241
452,0.0510734785437324
453,0.0507322372017407
454,0.050390995859749
455,0.0501638765563343
456,0.0502573975050589
457,0.0504811782681049
458,0.0506769542622133
459,0.0511417475405301
460,0.0511869603751839
461,0.0503597720328964
462,0.0517673208110199
463,0.0500653016826496
464,0.0494741898229713
465,0.0492488150950935
466,0.048376572831244
467,0.0483414261627156
468,0.0477485592958836
469,0.0475165782173395
470,0.048229562707307
471,0.0484805812576885
472,0.0485417893588053
473,0.0490814588562009
474,0.0492889884223052
475,0.049976310356
476,0.0487020299295412
477,0.0487890656793678
478,0.0488761014291945
479,0.0489631371790211
480,0.0487185838906785
481,0.047564362724345
482,0.0467078517180538
483,0.0462144047250565
484,0.0451442352024901
485,0.0440072130125334
486,0.0445446442411324
487,0.0447015785080781
488,0.0450727424402186
489,0.0459952333586871
490,0.0462622714504052
491,0.0465326878058308
492,0.0473480549412155
493,0.046789586717461
494,0.0473095899739588
495,0.0467200298332776
496,0.0467160803448721
497,0.0458278064365367
498,0.0460182628046785
499,0.0448027299145013
500,0.0451523484416268
501,0.0446285328403453
502,0.0453943259124889
503,0.0455364852314978
504,0.0449756069510232
505,0.0462252265178358
506,0.0460587256162168
507,0.0461516870025583
508,0.0463330078962045
509,0.046271294880453
510,0.0453966760338294
511,0.0458480716403422
512,0.0453869167320547
513,0.0441257413114552
514,0.0438304365850761
515,0.0429849035446659
516,0.0427649607393032
517,0.0426244764607784
518,0.0425232721005757
519,0.0433710101723447
520,0.0440798956721603
521,0.0445752685288321
522,0.0450706413855039
523,0.0455660142421757
524,0.0453511603882449
525,0.0453369757506841
526,0.0455875928601837
527,0.0452388174406901
528,0.0454658451069413
529,0.0461711678089408
530,0.046154994438323
531,0.046227062106506
532,0.0461128035589618
533,0.046462094734923
534,0.046597161994477
535,0.0460188041229507
536,0.0464506182262813
537,0.046148325652243
538,0.0457774393101407
539,0.0455702803997654
540,0.045754940359205
541,0.0453871677743962
542,0.0451272713131102
543,0.0453937024143509
544,0.0455788222219031
545,0.0452547762688426
546,0.0455818190032529
547,0.0454855370039371
548,0.0453892550046212
549,0.0452929730053054
550,0.0450678863564772
551,0.0452015047336369
552,0.0455934616843073
553,0.0451175921086467
554,0.0449177325152064
555,0.0452594328170105
556,0.0444649083663224
557,0.0443107067540342
558,0.0439628537385607
559,0.0434599522658148
560,0.0439030778421518
561,0.0430111092534987
562,0.043586116857289
563,0.0428526896051827
564,0.043128096094032
565,0.0423377787631468
566,0.0420074362242258
567,0.0414402821592559
568,0.0416877697662806
569,0.0410645696125205
570,0.0410188363834808
571,0.0410027364525418
572,0.0409430893930969
573,0.0407399225344434
574,0.0409954720348871
575,0.0404012268577072
576,0.0404849786658122
577,0.0405687304739173
578,0.0406524822820223
579,0.0407362340901273
580,0.0408199858982324
581,0.0412549085016494
582,0.0409378386936462
583,0.0411007724008788
584,0.0405263534557374
585,0.0403668604599567
586,0.0393857162084212
587,0.0390380745090263
588,0.0387378279093753
589,0.0384375813097242
590,0.0381373347100732
591,0.0382451255181814
592,0.038543972509191
593,0.0385198765783686
594,0.0390819428669212
595,0.0388541378240847
596,0.0390405009319481
597,0.0390852208136628
598,0.0389955299849617
599,0.0389787951892564
600,0.0392313116947384
601,0.0392972924717028
602,0.0395084296902838
603,0.0391246794301197
604,0.0395040821731238
605,0.0391432550813834
606,0.0391917245483417
607,0.0389774867879331
608,0.0385053633293844
609,0.0384739069538371
610,0.0381381691537982
611,0.0378882607555024
612,0.0375303760186541
613,0.0374573755646458
614,0.0369317287828898
615,0.0374591573752484
616,0.0368815253041931
617,0.0371915035634722
618,0.0370580338043305
619,0.0372151286812768
620,0.0371110510651899
621,0.0373043173914861
622,0.0365368480867166
623,0.0365321918469665
624,0.0362863680957697
625,0.0360405443445729
626,0.0357947205933761
627,0.0357340895092805
628,0.0356963400796065
629,0.0355705984328025
630,0.0358848119193439
631,0.0354083894800032
632,0.0357074748935333
633,0.0358340233286824
634,0.0358774567745286
635,0.0360550108988741
636,0.0356608387377833
637,0.0359803554130444
638,0.0357802165635514
639,0.035916214487569
640,0.0355708930405112
641,0.0355912184956835
642,0.0353287623769515
643,0.0351567862097263
644,0.0349848100425011
645,0.0348128338752759
646,0.0350884196376653
647,0.0349591069421548
648,0.034407637581141
649,0.0349908205992999
650,0.0345682456099812
651,0.0348347819925756
652,0.0343039614195207
653,0.0338981603552376
654,0.0331336203546541
655,0.0334793817551119
656,0.0331304529375896
657,0.0334725205965505
658,0.0337193933866197
659,0.0345834063894939
660,0.0347825562510493
661,0.0348403008364076
662,0.0349880627521626
663,0.0347155493690924
664,0.0345207758254345
665,0.0346744069320495
666,0.0347089472167752
667,0.034650439115859
668,0.0347634935989665
669,0.0341646838291931
670,0.0342223726186124
671,0.0342208844277767
672,0.0340715675352005
673,0.034163069830147
674,0.0341942475416468
675,0.0341818440599707
676,0.0342552277624057
677,0.0345506235711923
678,0.0340869264272684
679,0.0340850800010902
680,0.0347539253447948
681,0.034174087655058
682,0.033510932171121
683,0.0329557047506564
684,0.0318377087924086
685,0.0311694005094881
686,0.0305481743348141
687,0.0300038065147354
688,0.0300859267784917
689,0.0303131882968331
690,0.0311640844387849
691,0.0321987906106685
692,0.0325089552566591
693,0.0332360522106346
694,0.0339831926699467
695,0.0343398049271607
696,0.0352951019185494
697,0.0356805657774718
698,0.0356828527001432
699,0.0360531266633366
700,0.0372243384112888
701,0.0372550544559375
702,0.0383351696060618
703,0.0388674837284618
704,0.0398162024899611
705,0.0401294931400026
706,0.0411445163128032
707,0.0420073605020649
708,0.0424434444366049
709,0.0434155592298658
710,0.043436419004296
711,0.0440134136123704
712,0.0447213432920805
713,0.0437059362773413
714,0.0437936317076117
715,0.0424743716901247
716,0.0418314252907852
717,0.0414506831644039
718,0.0416663381977118
719,0.0425134852101955
720,0.0435819390245928
721,0.0436395908518825
722,0.0453661330257945
723,0.0458562395243112
724,0.0462782722606614
725,0.0471940375643542
726,0.0474380033731128
727,0.0489673762976519
728,0.0498353381958499
729,0.0514492012679116
730,0.0527981641436301
731,0.0544399386182186
732,0.0561946355760351
733,0.058021026026659
734,0.0592544690068622
735,0.0598502786020656
736,0.061059060730481
737,0.0617244586711716
738,0.0623898566118622
739,0.0630552545525528
740,0.0645169144904244
741,0.0649903651891031
742,0.0657049060351383
743,0.0664194468811736
744,0.0671339877272088
745,0.0676399510204614
746,0.0679542305120223
747,0.0684624406321668
748,0.0681270135036773
749,0.0685553739966095
750,0.068910880926383
751,0.068942970237173
752,0.0698595662576491
753,0.0697175896653746
754,0.068791051697652
755,0.0643395053554756
756,0.0598879590132992
757,0.0554364126711227
758,0.0485137596223385
759,0.0426539100022184
760,0.0390622612206309
761,0.0388119624413972
762,0.0401671882454913
763,0.0434885070632801
764,0.0477867778709642
765,0.0520808741652712
766,0.0570173550633321
767,0.0616490000556108
768,0.0642621314690087
769,0.0664927395950161
770,0.0679781202154734
771,0.068715889545014
772,0.0695854840595758
773,0.0703341773692014
774,0.069908199516644
775,0.0701042420004013
776,0.0705356497059478
777,0.0696379922267595
778,0.0707492771031169
779,0.0698534158025602
780,0.0709114477970207
