"wavelength","measurement"
380,0.00493345659345356
381,0.00483738015647759
382,0.00483757775018779
383,0.00486145031413893
384,0.00492529829221503
385,0.0052709735533465
386,0.00559548968425583
387,0.00588710187976094
388,0.00621345261326626
389,0.00647686956552746
390,0.0064780101072759
391,0.00653968231039561
392,0.00663259148503268
393,0.00667885104001021
394,0.00691130940127552
395,0.00730626192245999
396,0.00808758961691286
397,0.0090153020506927
398,0.00994301448447255
399,0.0108707269182524
400,0.0113395624026445
401,0.0120751341061862
402,0.0125197533013431
403,0.0126470550077758
404,0.0127142962322892
405,0.0127148823328278
406,0.012913569784371
407,0.0129122229032051
408,0.0130306196721107
409,0.0131506557540972
410,0.0137413469931608
411,0.0136446588119018
412,0.0140549167252819
413,0.0143202106364262
414,0.014220979735553
415,0.0143352071272023
416,0.0141479272847459
417,0.0140371896040305
418,0.0141694035835485
419,0.0138567032622635
420,0.0141238430777079
421,0.0140358833517654
422,0.014106495517945
423,0.0141445701060462
424,0.0142058992332138
425,0.0139478830309134
426,0.0137256395894492
427,0.0133158639586688
428,0.0129167533320502
429,0.0128561415072787
430,0.0128122557401717
431,0.0133464923828298
432,0.0140085828628078
433,0.0145669208490604
434,0.0153684979610194
435,0.0155958663335729
436,0.0155350015416187
437,0.0156121779917047
438,0.0156893544417907
439,0.0157665308918767
440,0.0157378330115029
441,0.0159887596672558
442,0.0163096647713983
443,0.0163952150668546
444,0.0166200891869485
445,0.0168449633070423
446,0.0170698374271361
447,0.0173883387167819
448,0.0173924826587189
449,0.0181157867567266
450,0.0179063328048571
451,0.0177829356017966
452,0.0177428141058836
453,0.0177026926099707
454,0.0176625711140577
455,0.0175969854718056
456,0.0175701767877384
457,0.017762767947649
458,0.0178583770516201
459,0.0180550414909786
460,0.0180595757432337
461,0.0178656002846456
462,0.0183457176419943
463,0.0177948363766993
464,0.0176108776676153
465,0.0174895405671534
466,0.0172146301544504
467,0.0171676237603786
468,0.0170567172951419
469,0.0168150910524713
470,0.0171338261852915
471,0.0171183908501514
472,0.0171656736986385
473,0.0173189600091775
474,0.0173922578561229
475,0.0176216726048852
476,0.0171734040323495
477,0.0171810268726562
478,0.0171886497129628
479,0.0171962725532695
480,0.0171812676701474
481,0.0167714293282592
482,0.0165011233976296
483,0.0164698805653079
484,0.0161333235589422
485,0.015818356125087
486,0.0160048827752557
487,0.016127383997361
488,0.0162283332713361
489,0.0166363208063716
490,0.0166781709645235
491,0.016753456341497
492,0.0170711151559377
493,0.016814783994142
494,0.0170194016151126
495,0.0166977627347877
496,0.0167634397942694
497,0.0164377166624856
498,0.0164553880175124
499,0.0160267475881449
500,0.0160890017281718
501,0.0159264995786341
502,0.016145459681481
503,0.0161819106196856
504,0.0160308117712001
505,0.0165026632208942
506,0.0164060943940205
507,0.0164610559701149
508,0.0164957908896559
509,0.0164917862443052
510,0.0162571214781045
511,0.0164606205926447
512,0.0163501613982202
513,0.015830998966395
514,0.0157420074458145
515,0.0154527100332528
516,0.0153582954093126
517,0.0153290077940505
518,0.0152707151806537
519,0.0155830457808225
520,0.0158738294584643
521,0.0160504774982845
522,0.0162271255381047
523,0.016403773577925
524,0.0163747547469562
525,0.016386749108169
526,0.0164741191823229
527,0.0163327668873803
528,0.0164787012587573
529,0.0166830617326165
530,0.0167298697650181
531,0.0167835172033265
532,0.0167549793612204
533,0.0168986955161256
534,0.0170235469356433
535,0.0168381782687401
536,0.017111740490713
537,0.0171514643003134
538,0.0173286107729151
539,0.0175842236487351
540,0.0181374330375804
541,0.0184861000946071
542,0.0188563748023089
543,0.0191949531458569
544,0.019291312997508
545,0.0189503849201923
546,0.0188164975449101
547,0.0183670771795589
548,0.0179176568142077
549,0.0174682364488565
550,0.0170791166373463
551,0.0170579856270033
552,0.0170220037686765
553,0.0167082120006447
554,0.0165211805261736
555,0.0165802254932476
556,0.0162677651989743
557,0.0161815989319754
558,0.016027180794578
559,0.0158061619171872
560,0.015959421335025
561,0.0156645297283332
562,0.0159027927090358
563,0.0156008738625908
564,0.0156617962869281
565,0.0154010776019141
566,0.0152744474106653
567,0.0150804015705644
568,0.0151736539481661
569,0.0149397847556377
570,0.0148719940033186
571,0.0148676366279166
572,0.0148453428992269
573,0.0148203062880676
574,0.014907224142482
575,0.0147551673157936
576,0.0148117759744744
577,0.0148683846331551
578,0.0149249932918358
579,0.0149816019505165
580,0.0150382106091973
581,0.0152380400025683
582,0.0151219963337223
583,0.0151941067040384
584,0.0149855100043598
585,0.0149485748150546
586,0.0145255789803678
587,0.0143195876978492
588,0.0141169929907202
589,0.0139143982835913
590,0.0137118035764623
591,0.0136917924788038
592,0.0137604885996831
593,0.0136539965056635
594,0.0137741670662469
595,0.0135980936912732
596,0.0136291630893992
597,0.0136093631683471
598,0.0135754739634705
599,0.0135056450031835
600,0.0135513045035571
601,0.0135007605207607
602,0.0135313257913087
603,0.0134192840264219
604,0.0134845099552228
605,0.0134193971476739
606,0.0135734199246486
607,0.0138803857900388
608,0.0141474725992544
609,0.0146250861182868
610,0.0148352905972574
611,0.0149399762458898
612,0.014646086735943
613,0.0141932481728286
614,0.013510723725294
615,0.0133170103653662
616,0.0128882696387561
617,0.0128167821516105
618,0.0126861285591809
619,0.0126298304290717
620,0.0125350625106743
621,0.0125526674617523
622,0.0122524680319073
623,0.0121552006549964
624,0.0120215583713785
625,0.0118879160877605
626,0.0117542738041426
627,0.0117436222980185
628,0.0116649486815976
629,0.0116302200199079
630,0.0116591211604473
631,0.0114343031173818
632,0.0113758584974557
633,0.0113855735543023
634,0.0112651302021921
635,0.0112596920870691
636,0.0110950127302887
637,0.0111716096555395
638,0.0110194881199204
639,0.0110310790940213
640,0.0109092094734739
641,0.0108621935441482
642,0.0107841761183568
643,0.0106865894938092
644,0.0105890028692615
645,0.0104914162447139
646,0.0105131818119277
647,0.0104807710549925
648,0.0102489207878533
649,0.0103819809289222
650,0.0102191044492268
651,0.0102957315993667
652,0.0100796798675722
653,0.00989307438468436
654,0.00963749120493424
655,0.0097007754061904
656,0.00952313213276475
657,0.00953829251107884
658,0.00963488889244687
659,0.00980591797918615
660,0.00981804815102166
661,0.00985093903056209
662,0.00984034387409044
663,0.0097385518195383
664,0.00963433217449238
665,0.00965039444774572
666,0.00958396105521681
667,0.00958784580131993
668,0.00955624610315448
669,0.00933659398772419
670,0.00932982623470187
671,0.0092717870296869
672,0.00918739516925678
673,0.00919317818678749
674,0.00919792365524861
675,0.00908773653014813
676,0.00909856123889968
677,0.00914646846136469
678,0.00898640249468879
679,0.00894113498794328
680,0.00913895405111704
681,0.00896374323992856
682,0.00874491938857092
683,0.00855724735443334
684,0.00824061868495806
685,0.00800524905752443
686,0.00785688558156186
687,0.007687394802755
688,0.00761410462240987
689,0.00771740312723457
690,0.00787475673451288
691,0.00807308380564586
692,0.00821264147262733
693,0.00834908866189029
694,0.00851215934540479
695,0.00853723902945261
696,0.00875226467226285
697,0.00880941633364424
698,0.00883905485412591
699,0.00891779743096514
700,0.00911143896010203
701,0.00912236254053311
702,0.00930201044378405
703,0.009418026065912
704,0.00972884684038428
705,0.00977939801849454
706,0.00998527224771505
707,0.0101603271701462
708,0.0101724419502305
709,0.0103642128507501
710,0.0102649989163488
711,0.0103197040700095
712,0.0104070600729
713,0.010093259812508
714,0.00996045665910789
715,0.00961432981899425
716,0.00935286390985078
717,0.00917591820859369
718,0.00912869601895828
719,0.009241015309412
720,0.00936436322362626
721,0.0093045602480303
722,0.00962690704554002
723,0.00969034110298351
724,0.00969049841755916
725,0.00978172464734362
726,0.00978417420101044
727,0.0100020280283347
728,0.0101091309017229
729,0.010316977750086
730,0.010503607395429
731,0.0107666238526176
732,0.0110800206238248
733,0.0113491347851811
734,0.011511674077526
735,0.0115522397401685
736,0.0117015600753748
737,0.0117642825292934
738,0.011827004983212
739,0.0118897274371307
740,0.0120685849279644
741,0.0120682434820887
742,0.0121233295607431
743,0.0121784156393976
744,0.012233501718052
745,0.0122547711047614
746,0.0122313290561915
747,0.0122910617091759
748,0.0120940397297448
749,0.0121612436722316
750,0.0121534294351846
751,0.0120028640430436
752,0.0121508362655202
753,0.0119517709669807
754,0.0119109939251902
755,0.0111422774312863
756,0.0103735609373824
757,0.00960484444347847
758,0.00839795307276624
759,0.00735182756021217
760,0.00664996404548422
761,0.00642794840596937
762,0.00663826036626347
763,0.00706653854751604
764,0.00779487340074547
765,0.00836629250138174
766,0.0091489181183605
767,0.00990489415934167
768,0.0103407673044081
769,0.0106078853121339
770,0.0108042804418433
771,0.0108387734392003
772,0.0109642703305689
773,0.0110699019354109
774,0.0109162598185381
775,0.0109395571138023
776,0.0109353602522289
777,0.0108469561675242
778,0.010896662569288
779,0.0107773388725282
780,0.0108434401321355
