"wavelength","measurement"
380,0.0122985134293019
381,0.0118113159243377
382,0.0118752032740915
383,0.0116675252710614
384,0.0117707822564909
385,0.0124479326362284
386,0.0131358228350891
387,0.0138242128059912
388,0.0144840775772931
389,0.0150726782847916
390,0.0151395165632635
391,0.0153647453900596
392,0.0154749167004074
393,0.0160734207561705
394,0.0165367978385775
395,0.0180597605178451
396,0.0200079826161345
397,0.0227681773650967
398,0.0255283721140589
399,0.0282885668630211
400,0.0298103122647499
401,0.0320499965845423
402,0.0336002445830719
403,0.0344385882692366
404,0.035015732038001
405,0.0354122194181221
406,0.036584878533794
407,0.0375460601927393
408,0.0380588145536477
409,0.0390687869109273
410,0.0412425985982093
411,0.0415832285796158
412,0.0428882997088902
413,0.0438420476712024
414,0.0439377540097914
415,0.0444288899988278
416,0.0439592112505091
417,0.044027458069114
418,0.0445079867938515
419,0.0433039471727088
420,0.0443070625242504
421,0.0441692728207863
422,0.0440654649282991
423,0.0442614829295003
424,0.0444278101137389
425,0.0431931044624015
426,0.0425448824107493
427,0.0413394937403575
428,0.0399445953719055
429,0.0396762232486078
430,0.039679514834199
431,0.040964870462403
432,0.0423464892895601
433,0.0434032218805447
434,0.0452376493307115
435,0.0459262044230137
436,0.0460279847022961
437,0.0466364740094228
438,0.0472449633165496
439,0.0478534526236763
440,0.0477397566488813
441,0.0484690322096971
442,0.0493364900003324
443,0.0496342708629361
444,0.0501793089640355
445,0.0507243470651349
446,0.0512693851662344
447,0.0519008835631543
448,0.0517100779027315
449,0.0538501710391981
450,0.0529079392322251
451,0.0524750952672294
452,0.052066100647171
453,0.0516571060271126
454,0.0512481114070542
455,0.0511836569866475
456,0.0511724702480321
457,0.0513724622815239
458,0.0515483285803678
459,0.0519756238796417
460,0.051914575942644
461,0.0513409006185599
462,0.0525939448176517
463,0.0511183785334451
464,0.0502823723641076
465,0.0499769193277656
466,0.0492292573124083
467,0.0491098077988616
468,0.0487053555877931
469,0.0481875170250116
470,0.0490904263274348
471,0.0490096944661337
472,0.0493491443118005
473,0.049834753743191
474,0.0499358322138525
475,0.0507245542583348
476,0.0495943345224541
477,0.0496261970756953
478,0.0496580596289364
479,0.0496899221821775
480,0.0495426531376856
481,0.0483080978128448
482,0.0473548372714482
483,0.0470551089984754
484,0.0458054241712481
485,0.0448402217168909
486,0.0451115456303682
487,0.0453978363327241
488,0.0457033776356221
489,0.0467025931529738
490,0.0468953833178209
491,0.0472563990173544
492,0.0480946954319808
493,0.0473556851830312
494,0.0480472734513814
495,0.0472098934971024
496,0.0472878160823635
497,0.0465658392581764
498,0.0465170879106631
499,0.0454303526303783
500,0.0455754431783175
501,0.0452796448530609
502,0.045811509491746
503,0.0461244150838895
504,0.045495310048446
505,0.0468306970354702
506,0.0465162879177065
507,0.0465370395055128
508,0.0467583925398783
509,0.0466544309935107
510,0.0457100950030925
511,0.046410415822923
512,0.0458028574286969
513,0.0443572890374299
514,0.0441137879056929
515,0.0433359535046115
516,0.0430381309538555
517,0.0428847551173252
518,0.0427976977803911
519,0.0435439077491653
520,0.0443156346033631
521,0.0447819094724591
522,0.0452481843415552
523,0.0457144592106512
524,0.0454658490124797
525,0.045460558766454
526,0.0456826476281403
527,0.0453947046721068
528,0.0457247110524692
529,0.0462698473184415
530,0.0461563607071271
531,0.0463528823304432
532,0.0460799286454263
533,0.0464087242560074
534,0.046510205770825
535,0.0460076189193802
536,0.0463565022556613
537,0.0460956128052384
538,0.0457206310754788
539,0.0454315752175713
540,0.0456506885355631
541,0.0453725804092166
542,0.0450558591635744
543,0.045198197459159
544,0.0455155711770955
545,0.0450687076401864
546,0.045446359360706
547,0.0454140562365833
548,0.0453817531124605
549,0.0453494499883378
550,0.0447914876551895
551,0.0452212408472531
552,0.0454936070056789
553,0.0450325224829364
554,0.0446188288371911
555,0.0450187931727978
556,0.0444106283873663
557,0.0440743986431362
558,0.0437513011786942
559,0.043295001626541
560,0.0436448623060269
561,0.0426375669857523
562,0.0433564278738356
563,0.0426374111212601
564,0.042727464945847
565,0.0420357691618162
566,0.0415761670583193
567,0.0411403717684491
568,0.0413386018001434
569,0.0407177306669994
570,0.0404586197903811
571,0.0407084500721523
572,0.0404569000509447
573,0.0404040175451239
574,0.040612032197062
575,0.0398889188277671
576,0.0399895850524391
577,0.0400902512771111
578,0.0401909175017831
579,0.0402915837264552
580,0.0403922499511272
581,0.0408098710013527
582,0.0405820586421359
583,0.0407721433868429
584,0.04005787266571
585,0.0399911474098902
586,0.0390395015588618
587,0.0386270231892913
588,0.0383112568746303
589,0.0379954905599692
590,0.0376797242453081
591,0.0378788280743328
592,0.0381875894308531
593,0.0381355848688428
594,0.0387425208298858
595,0.0384025795333443
596,0.038622016723599
597,0.0387173912729058
598,0.0386568372493142
599,0.0385076017655831
600,0.0388526687464676
601,0.0388614082408512
602,0.0389968782023332
603,0.0387539845865556
604,0.0391172754854338
605,0.038790987921228
606,0.038798535257394
607,0.038686199715981
608,0.0380717049905353
609,0.038017696202138
610,0.0375951619343566
611,0.0374670891643332
612,0.0370064644901279
613,0.0369622780389477
614,0.0364785340702753
615,0.0368628871561262
616,0.036350694687257
617,0.0367132517496317
618,0.0365671419981584
619,0.0367271818581874
620,0.0365563985187408
621,0.0368010521636439
622,0.0359969450989979
623,0.0360087420443318
624,0.0357853802013769
625,0.035562018358422
626,0.0353386565154672
627,0.0352921485038401
628,0.035263816898244
629,0.0350549149587132
630,0.035422885245169
631,0.0349281111124521
632,0.0351403632860971
633,0.0352559773944133
634,0.0352834024282395
635,0.0354344345328176
636,0.0352091781026517
637,0.0355248942347762
638,0.0351946958767626
639,0.0353924741822419
640,0.0350688633483674
641,0.034988158377599
642,0.0348534874839719
643,0.0346657327265153
644,0.0344779779690587
645,0.0342902232116022
646,0.0344548194027061
647,0.0345589585252021
648,0.0338419626707319
649,0.0344092390443932
650,0.0340496023112932
651,0.0342712944939528
652,0.0337635743996097
653,0.033243585569503
654,0.0325783923114419
655,0.032993408626664
656,0.0325359934611825
657,0.0330391114174923
658,0.0332163811215381
659,0.0339990674904455
660,0.0341741130232617
661,0.0342459686216447
662,0.0343706818134569
663,0.0342683278669582
664,0.0340388891616259
665,0.0340729094655135
666,0.0341990206542055
667,0.0341024794753192
668,0.0342128534500548
669,0.0335162038661107
670,0.0337180246934326
671,0.0335744656957039
672,0.0334656780439212
673,0.0335238483668763
674,0.0336996469418495
675,0.0336242528789394
676,0.0336650411618288
677,0.0338812201367371
678,0.0335041989802989
679,0.0333910835614569
680,0.0342739472278518
681,0.0336810288792658
682,0.0329409808637715
683,0.0324052212633659
684,0.0313806516821319
685,0.0306217772231345
686,0.0299794479271513
687,0.0295807774733414
688,0.0295306971642351
689,0.0299668211920398
690,0.0306945556422269
691,0.0316767813493711
692,0.0320755763261081
693,0.0329011370089642
694,0.0336140285531849
695,0.0339399758413563
696,0.0347999340098128
697,0.0353263556285296
698,0.0353695198283413
699,0.0358431154194462
700,0.036879439771577
701,0.0369596340964799
702,0.0380755754762597
703,0.0384667837324681
704,0.0394675513837405
705,0.0399796927759596
706,0.0409735322521997
707,0.041922908678419
708,0.0422758508114082
709,0.0432859307838903
710,0.0434162589144461
711,0.0438592860031721
712,0.0447966208407663
713,0.0438303264540383
714,0.043872568817254
715,0.0426342673129657
716,0.0419513151653375
717,0.041446948432285
718,0.0416937145098852
719,0.0426846480778966
720,0.0437778120172064
721,0.0437867583498113
722,0.0456193017511656
723,0.0460728636217428
724,0.0466129711773868
725,0.047560097590266
726,0.0479591412401071
727,0.0492330167832669
728,0.0502914555412795
729,0.0520620489736104
730,0.0533837486416278
731,0.0549282545939699
732,0.0567181372737458
733,0.0586317044621051
734,0.0599735586265364
735,0.0605237299688579
736,0.0619416477423419
737,0.0626525310554596
738,0.0633634143685773
739,0.064074297681695
740,0.0654637883646617
741,0.0659761131144286
742,0.0666724020877672
743,0.0673686910611059
744,0.0680649800344445
745,0.068849625750706
746,0.069129846638413
747,0.0696388362340899
748,0.0691438323535826
749,0.0699853069143103
750,0.0700585884725969
751,0.0701857681680584
752,0.071107125505148
753,0.0707675612595997
754,0.0700207198560274
755,0.0655622804993013
756,0.0611038411425752
757,0.0566454017858492
758,0.0495583176797166
759,0.0433592236391611
760,0.0398374176779196
761,0.039389396095178
762,0.0409429709991765
763,0.0443692369172101
764,0.0488555816636955
765,0.0530465079206882
766,0.0581419219456573
767,0.0631490967961074
768,0.0657902717813831
769,0.0678079519561925
770,0.0696499839280657
771,0.0702088608808643
772,0.0710046441704602
773,0.0718729641486973
774,0.071498619875282
775,0.0713739215765978
776,0.0719841117607967
777,0.0711208747420728
778,0.0720075818955931
779,0.0714559597918133
780,0.0724445888239977
