"wavelength","measurement"
380,0.00140007876743998
381,0.00140850283626536
382,0.00144168496497721
383,0.00144840204056333
384,0.00139422552255813
385,0.00155735620750606
386,0.0016350640898804
387,0.0016957365794657
388,0.00181973607803904
389,0.00194695874203339
390,0.001907292947325
391,0.00189897002955632
392,0.00192047573412543
393,0.0019744409226122
394,0.00211594776788297
395,0.00220999382065693
396,0.00242979267995533
397,0.00269636473165433
398,0.00296293678335333
399,0.00322950883505233
400,0.00345897476988589
401,0.00370929161939405
402,0.00389757064742973
403,0.00397543665133963
404,0.00404537998765932
405,0.00405653297170397
406,0.004139775073474
407,0.00419658061587691
408,0.00427102036737708
409,0.00438567709436327
410,0.00455029003107842
411,0.0045908177573941
412,0.00479318895761549
413,0.00485697469813631
414,0.00488212439418609
415,0.00495449800461067
416,0.00495953872324139
417,0.00495602667152705
418,0.00502412492887461
419,0.00487575452465025
420,0.00503042560947575
421,0.00506570925370141
422,0.00511323489211239
423,0.00513502729493847
424,0.00520514347971268
425,0.00513588707591423
426,0.00507364400513618
427,0.00496444781382231
428,0.0048203846943973
429,0.00487095619387431
430,0.00485319676789853
431,0.00521562145113796
432,0.0055955566404204
433,0.00604638883796254
434,0.00647616078858577
435,0.00663904516155401
436,0.00660776716189547
437,0.00649833880748438
438,0.0063889104530733
439,0.00627948209866221
440,0.00618080719405125
441,0.00625070857444924
442,0.00635144035072553
443,0.00645950576277314
444,0.00656107646577077
445,0.00666264716876839
446,0.00676421787176602
447,0.00692484418211892
448,0.00692164381815789
449,0.00723427797418326
450,0.00720706994344353
451,0.00715666571788494
452,0.00713529726959201
453,0.00711392882129907
454,0.00709256037300614
455,0.00706704550897901
456,0.00704369845879539
457,0.00713737855336966
458,0.00714127062819425
459,0.00725821358558175
460,0.00727688408216792
461,0.00718379350399871
462,0.00732193028600934
463,0.0071041998304725
464,0.00702651227243804
465,0.00704467206428861
466,0.00686829034688002
467,0.00687888372318608
468,0.00680817719734523
469,0.00670648876327927
470,0.006827421267686
471,0.00683032649598013
472,0.00687089904381677
473,0.00687170885971882
474,0.00691889000617806
475,0.00698692649392563
476,0.0068334326171386
477,0.00684821259460499
478,0.00686299257207139
479,0.00687777254953778
480,0.00687269315494408
481,0.00678726269586379
482,0.00676930525945571
483,0.00680262313189288
484,0.00674074736910197
485,0.0066996191076393
486,0.00677009753860411
487,0.00683740856301179
488,0.00684985992230013
489,0.00697249982300215
490,0.00702655087523543
491,0.00702431927546057
492,0.00714224139527801
493,0.00700085746040811
494,0.00707669565896935
495,0.00694515591187218
496,0.00694725444048228
497,0.00681938071050084
498,0.00685520058165801
499,0.00667741616126421
500,0.0067134353227408
501,0.00664392395852391
502,0.00674041941002972
503,0.00681099774716281
504,0.00673732154073593
505,0.00701167077282588
506,0.00698448427349297
507,0.00707209963043763
508,0.00712671866125469
509,0.00718926218916117
510,0.00715113943602479
511,0.00730149896684341
512,0.00729838996376306
513,0.00718619759926407
514,0.00723342071913463
515,0.0071819689461311
516,0.00728217801357987
517,0.00729624893058769
518,0.00737354811816395
519,0.00759312469549996
520,0.00790083022365621
521,0.00806810256088783
522,0.00823537489811945
523,0.00840264723535106
524,0.0084845997388229
525,0.00860278899067472
526,0.00875443715393918
527,0.00875542010057889
528,0.00891442114074097
529,0.00911280807168702
530,0.00920538459404078
531,0.0092983478228659
532,0.00935047778932512
533,0.00953591975521743
534,0.00973308601238176
535,0.00977004026125675
536,0.0100739117310795
537,0.0103004342322715
538,0.010577365964391
539,0.0109320355378493
540,0.011342585512892
541,0.0116137426966294
542,0.0118723265088701
543,0.0121524047359929
544,0.0123617775801938
545,0.0123036212898444
546,0.0123454439877388
547,0.0119928772922214
548,0.0116403105967041
549,0.0112877439011867
550,0.0107729712303494
551,0.0105960035002529
552,0.0104428863147933
553,0.0101886150136159
554,0.010013931553391
555,0.0100286306846055
556,0.00980218239778572
557,0.0096989905348396
558,0.0095906129570601
559,0.00940642912958403
560,0.00950366839412347
561,0.00927672538591878
562,0.00941031459382013
563,0.00921378038307286
564,0.00921878477153102
565,0.00901280349930944
566,0.00894831929822968
567,0.00880654003894369
568,0.00879956835678121
569,0.00858175538803124
570,0.00856041830841764
571,0.00852546740226779
572,0.00844803927175844
573,0.0084264814033282
574,0.00845864053637642
575,0.00835244406629535
576,0.00838933683875936
577,0.00842622961122337
578,0.00846312238368739
579,0.0085000151561514
580,0.00853690792861542
581,0.00862739585229391
582,0.00857033409439657
583,0.00863028400970224
584,0.00853813218956079
585,0.00853688146515543
586,0.00836193185051216
587,0.00825453984720971
588,0.0081379907280828
589,0.0080214416089559
590,0.00790489248982899
591,0.00789895130385142
592,0.00788105354614145
593,0.00778785114482542
594,0.00779407131552618
595,0.00768116550369559
596,0.00766300961355435
597,0.0075852296229933
598,0.00758319627477617
599,0.00754148020753426
600,0.00756334350252518
601,0.00750486945596099
602,0.00748204046182879
603,0.00740802384149175
604,0.00745027928213724
605,0.00745411166482575
606,0.00764418575233609
607,0.00812689230738991
608,0.0086279829691206
609,0.0092509759797655
610,0.00958459734947337
611,0.00977793534310571
612,0.00952866327221637
613,0.0089971736965007
614,0.00828860141924747
615,0.00785562959813854
616,0.00739951520066883
617,0.00718844558648801
618,0.00702842728718934
619,0.00692484031983946
620,0.00683738257464802
621,0.00684549850890707
622,0.00670391096413454
623,0.00669139214537725
624,0.00663447954635068
625,0.0065775669473241
626,0.00652065434829753
627,0.00656989314081649
628,0.00653795898497788
629,0.00653106408027671
630,0.00653498152754703
631,0.0063679866148855
632,0.00628152128677122
633,0.00620849019149517
634,0.00608589080876683
635,0.00604392963613463
636,0.00592820052918786
637,0.00589880165016554
638,0.00580523106455228
639,0.00580259412823591
640,0.00568211328191883
641,0.00564109884659364
642,0.00554172002906897
643,0.0054580624962489
644,0.00537440496342882
645,0.00529074743060875
646,0.00526785882198287
647,0.00526149081764726
648,0.00511592889190128
649,0.00516409409052524
650,0.00506747959344783
651,0.00505018278569817
652,0.00494547130652392
653,0.00483829238115362
654,0.00466847125422348
655,0.00469840392125426
656,0.00460504042834093
657,0.00455795984822851
658,0.00458386050368753
659,0.00465582214887874
660,0.00462256698082999
661,0.0046248261952678
662,0.00456205575901776
663,0.00448740289734249
664,0.00437514571802575
665,0.00436295819608388
666,0.00428927617705588
667,0.00424387672631185
668,0.0042120402536584
669,0.00409166703246409
670,0.004101732579485
671,0.00403059963626632
672,0.00398591318112969
673,0.00399591656608033
674,0.00398724707058863
675,0.00396166316773473
676,0.00393340154897046
677,0.00398152323218433
678,0.0038851983987818
679,0.00392327530308502
680,0.004047011392341
681,0.00397613232685767
682,0.00392611392133767
683,0.00390050289276181
684,0.00387368591433599
685,0.00383872208497256
686,0.00385940993930811
687,0.00390555403375166
688,0.0039965235709502
689,0.00416111591764294
690,0.00441305670741791
691,0.00469947392547392
692,0.00493316880077212
693,0.00521832072807112
694,0.00554855298621409
695,0.00579551409092436
696,0.00614186823955809
697,0.00643750265045324
698,0.00663405369612448
699,0.00698607311566337
700,0.00740148817211663
701,0.00765611500303958
702,0.00810984092107731
703,0.00843375056186123
704,0.00894325117509338
705,0.00927956927700277
706,0.00971432567590696
707,0.010117757684086
708,0.0103850142204964
709,0.0107936892113332
710,0.0109403975669031
711,0.0112092673085686
712,0.0115682719548857
713,0.0114197613391199
714,0.0115099841074177
715,0.0113731984514418
716,0.0112958702095093
717,0.0112920745690224
718,0.0114775349530584
719,0.0117249087490623
720,0.012068216658725
721,0.0121469777846059
722,0.012772888695913
723,0.0129320012083697
724,0.0131036374644401
725,0.0133668842092878
726,0.0134735369235969
727,0.0138681930318912
728,0.0141278466354405
729,0.0144677283080853
730,0.014871102246542
731,0.0152402545116291
732,0.0156055819849542
733,0.0160321131427104
734,0.0164023830043459
735,0.0164820891653866
736,0.0167406518967907
737,0.0168207557935721
738,0.0169008596903535
739,0.0169809635871348
740,0.0173110669950019
741,0.0173606973292594
742,0.017464866879898
743,0.0175690364305366
744,0.0176732059811753
745,0.0177172084472725
746,0.0176829361047775
747,0.0177640184767916
748,0.0175218501379773
749,0.0176600058215136
750,0.0175993710450945
751,0.0174674296775515
752,0.0177253681534062
753,0.0174318482062145
754,0.0172751517021328
755,0.0161934276834727
756,0.0151117036648126
757,0.0140299796461525
758,0.0123013928577852
759,0.010777098960813
760,0.0098161263834983
761,0.00956494804861579
762,0.00988757764658006
763,0.0105214201190832
764,0.0115280885111196
765,0.0124237243814576
766,0.0135292289106025
767,0.0145649807760483
768,0.0151585561397415
769,0.0155170566388213
770,0.0157801383465163
771,0.0159155057483678
772,0.0160685196646
773,0.016223496674026
774,0.0159413000765657
775,0.0159722819364536
776,0.0160022434609868
777,0.0157971871199209
778,0.0159045872792295
779,0.0156290187449305
780,0.0158099741855427
