"wavelength","measurement"
380,0.0262641686932295
381,0.0251689583441198
382,0.024712641842053
383,0.0242126751414774
384,0.0243292183998516
385,0.0254934409131178
386,0.0266079814066854
387,0.0278197578770873
388,0.028788359623143
389,0.0291367562399461
390,0.0289670725655677
391,0.0288573480801771
392,0.0286576264606891
393,0.028383397450584
394,0.0289396294964402
395,0.0305069852154253
396,0.0334656432906662
397,0.0366701078636796
398,0.0398745724366929
399,0.0430790370097062
400,0.0450456327573761
401,0.0470556106395757
402,0.0487395575607491
403,0.0484601151741739
404,0.0486712623454367
405,0.0482242040660205
406,0.0488140557417246
407,0.0490090155532849
408,0.0489348120365648
409,0.0498304999440581
410,0.0518512439549307
411,0.0515046306661781
412,0.0529204448564981
413,0.054097551165973
414,0.0541121345044039
415,0.0549143984916735
416,0.0541059742605993
417,0.054092931723574
418,0.0546914407491063
419,0.0534642176855537
420,0.0548157398412801
421,0.0550638304896612
422,0.0555322485569625
423,0.0555606237423137
424,0.0556266345483941
425,0.0550127888486946
426,0.0541510121622404
427,0.0532063610236637
428,0.0516627074071244
429,0.0518282526017909
430,0.0516224388015389
431,0.0537397548785645
432,0.056028321334514
433,0.0575234448250246
434,0.0600400322336365
435,0.0610969374765685
436,0.0618387583615627
437,0.0628021796976893
438,0.0637656010338158
439,0.0647290223699423
440,0.0651369284537352
441,0.0665485400784735
442,0.067776418670168
443,0.0687176316609284
444,0.0697479981791371
445,0.0707783646973458
446,0.0718087312155545
447,0.072754724743258
448,0.0730574215483098
449,0.0758191060046852
450,0.0750617369640496
451,0.0747664973797591
452,0.0746617255132922
453,0.0745569536468252
454,0.0744521817803583
455,0.0744706236329927
456,0.0747609318328448
457,0.0752991166664515
458,0.0763010268170046
459,0.077100006789696
460,0.0772386464486507
461,0.0764963630555597
462,0.078443491479143
463,0.0765450326276833
464,0.0757244134818469
465,0.0754168242592775
466,0.0744498822696089
467,0.0742138261670495
468,0.0736541637976996
469,0.0735885640227366
470,0.0747456213940351
471,0.0748461449852505
472,0.0752276631105168
473,0.0764601112489312
474,0.0765095037132976
475,0.0777439449156483
476,0.0760525548781508
477,0.0761475692889302
478,0.0762425836997097
479,0.0763375981104891
480,0.0762169869439307
481,0.0743332565895211
482,0.0732557412649972
483,0.0727863017851218
484,0.0712221469050666
485,0.0695724785830007
486,0.0705612992442852
487,0.0708862575769174
488,0.0717326590066905
489,0.0737259416881415
490,0.0741745586434919
491,0.0750154091959324
492,0.0768209115110755
493,0.0760482350570304
494,0.0773394927166675
495,0.0765096912307896
496,0.0767259141094363
497,0.0757515222420082
498,0.0760812661324264
499,0.0747957198871691
500,0.0754698614292297
501,0.0751108161294467
502,0.0767355406591894
503,0.0774654759677693
504,0.0769937284606128
505,0.079376802333294
506,0.0794363452837704
507,0.0800994416203912
508,0.0807204217254091
509,0.0810791722465798
510,0.0798465645231627
511,0.0813996825007662
512,0.0811490046563615
513,0.0791599852601557
514,0.0790992468451022
515,0.0780111074293215
516,0.0781558579899909
517,0.0785151502126184
518,0.0788827588263823
519,0.0806675365464777
520,0.0829720853501758
521,0.0844090058707097
522,0.0858459263912436
523,0.0872828469117775
524,0.0874059301594557
525,0.0882019013338772
526,0.088865295660483
527,0.0889142060932396
528,0.0899516611813474
529,0.0916754709169076
530,0.0922982693149439
531,0.0925336540787847
532,0.0928632836673753
533,0.0939628815717521
534,0.09493603103588
535,0.0939585978140021
536,0.0953601380661523
537,0.094930763054962
538,0.0945348891392601
539,0.0945571565412816
540,0.0952261390571307
541,0.0949018549138065
542,0.0945692760659018
543,0.0954926077366892
544,0.0962251545720445
545,0.0956070195042256
546,0.0966617901949963
547,0.0968088434089854
548,0.0969558966229745
549,0.0971029498369636
550,0.0963924591217978
551,0.0977340505477321
552,0.098640553435571
553,0.0979418749996199
554,0.0976203647391221
555,0.0987737946189225
556,0.0974410752066579
557,0.0974907618623108
558,0.0969291835805089
559,0.0960807259976985
560,0.0972329012879612
561,0.0956489819885336
562,0.0972242202148399
563,0.0956514154837813
564,0.0961987921027885
565,0.0948022815992283
566,0.0944898773932245
567,0.0933677793516483
568,0.0940070764533859
569,0.0928837238161954
570,0.0925504956549126
571,0.0928893528658018
572,0.0927036893994493
573,0.092565999660889
574,0.0932537764611157
575,0.0916561976496788
576,0.0918148474818548
577,0.0919734973140308
578,0.0921321471462067
579,0.0922907969783827
580,0.0924494468105587
581,0.0934145554953988
582,0.0927960143633748
583,0.0931654676034571
584,0.091590819295354
585,0.0918074538594396
586,0.0893810591149024
587,0.0886393047963709
588,0.0880299736873851
589,0.0874206425783992
590,0.0868113114694134
591,0.0869638108778634
592,0.0880024824957772
593,0.0877572313318459
594,0.0890697123891063
595,0.0885419837343746
596,0.0887897012021967
597,0.0891319106337492
598,0.0889684539577375
599,0.0887344163078244
600,0.089457572529793
601,0.0895283284536455
602,0.0898542519243468
603,0.0896697131874582
604,0.0903737622730545
605,0.0895201394862715
606,0.0897899656427762
607,0.0891508797818323
608,0.0879663606719843
609,0.087897182950996
610,0.0871913543119467
611,0.0868249884844535
612,0.0859447344511131
613,0.0858421564867394
614,0.084665543122482
615,0.0858856130210094
616,0.0846692861866449
617,0.0852863894180529
618,0.0852488957926277
619,0.0855370803475212
620,0.0853890721146255
621,0.0858737214067914
622,0.0843042501287582
623,0.0843279217448269
624,0.0839614563258063
625,0.0835949909067858
626,0.0832285254877652
627,0.08323387766263
628,0.0830871024886754
629,0.0829506949302137
630,0.0833916348836807
631,0.0826530734200512
632,0.0829934347589706
633,0.0835776396659318
634,0.0838396156920173
635,0.0841068897763284
636,0.0831731084930074
637,0.0839554877918693
638,0.0834112239397957
639,0.0833672122157101
640,0.0829861439354805
641,0.0826593064461568
642,0.0821288132224691
643,0.0817520015847219
644,0.0813751899469747
645,0.0809983783092275
646,0.0813252171247709
647,0.0813232672505032
648,0.0797484835551995
649,0.0811899610206454
650,0.080041674991863
651,0.0808947980688068
652,0.0796760167535966
653,0.078419676831932
654,0.0767890525985073
655,0.0773528995910169
656,0.0763894081750887
657,0.0771168181857042
658,0.0780538908211811
659,0.0798334961308935
660,0.0799725766184357
661,0.0804467743875095
662,0.0804509267190176
663,0.0799691502126237
664,0.0793858500172288
665,0.0797312028271899
666,0.0797031788464401
667,0.079776299162048
668,0.0797011845629386
669,0.0785992093398621
670,0.0785777899881508
671,0.0784572138260136
672,0.0782691412558851
673,0.0783583128414996
674,0.0787360237243471
675,0.0786082748111407
676,0.0787266154906809
677,0.0793374821636356
678,0.0786318134887393
679,0.0787106033325061
680,0.0802237269240046
681,0.0791366505824903
682,0.0778430615151773
683,0.076426465204004
684,0.0745994080817138
685,0.0731930568832328
686,0.0723032347695611
687,0.0715538474084532
688,0.0718598579532573
689,0.0732088394438285
690,0.0753671940062244
691,0.0780450671592251
692,0.0798250538522007
693,0.0824225072219594
694,0.0839665246834619
695,0.0855919188839033
696,0.0881955693735915
697,0.0899067216091845
698,0.0904356125667689
699,0.0921881797690085
700,0.0953045326036027
701,0.0961392357813948
702,0.0992383349761872
703,0.100823498773603
704,0.103818647671914
705,0.105129513032885
706,0.107992012221123
707,0.110300056263123
708,0.112382579125485
709,0.115128570972209
710,0.115327178208464
711,0.117272620173147
712,0.119542091788146
713,0.117648450032428
714,0.117880361123522
715,0.115111577702165
716,0.11341823235739
717,0.112816440365058
718,0.113521611785975
719,0.11620785388499
720,0.118672197339293
721,0.119624028495735
722,0.12421211149043
723,0.125828676783235
724,0.127497900128474
725,0.129699857590497
726,0.131102429002235
727,0.134751832236154
728,0.137437968673404
729,0.141531451076505
730,0.145753522067404
731,0.150034574033235
732,0.154604631019068
733,0.159373677619734
734,0.162480957595804
735,0.164528026511802
736,0.167883575607759
737,0.169817822903715
738,0.171752070199671
739,0.173686317495628
740,0.177335102549539
741,0.179103000384491
742,0.181133651682999
743,0.183164302981507
744,0.185194954280015
745,0.186272516954477
746,0.186912032129811
747,0.188760328475148
748,0.187406044963406
749,0.189003792102779
750,0.189550236306318
751,0.189378089169889
752,0.192313469336022
753,0.191770094894951
754,0.18931276322152
755,0.177235768902141
756,0.165158774582762
757,0.153081780263383
758,0.134851058836942
759,0.118480911721791
760,0.108686509263507
761,0.107809626795552
762,0.111835638365433
763,0.12151023197871
764,0.133127583060117
765,0.144150989327855
766,0.157991350109317
767,0.17026008044798
768,0.177300117514414
769,0.182376450757323
770,0.187179209115154
771,0.188850536115973
772,0.190659359792852
773,0.193163871637255
774,0.19211047930811
775,0.192803702445776
776,0.193495358409949
777,0.191223982010412
778,0.193876270149861
779,0.192080058068674
780,0.19475219299463
