"wavelength","measurement"
380,0.00136032242414169
381,0.00137725148939172
382,0.00139395915279907
383,0.00137779098427397
384,0.00133932079073865
385,0.00146281668969115
386,0.00156866285645683
387,0.0016112680573509
388,0.00173133189648029
389,0.00182459156009586
390,0.00182037406950195
391,0.00185528910640342
392,0.001894296604005
393,0.00188560498296191
394,0.00196621691999984
395,0.00211546897025568
396,0.00235128473869088
397,0.00262175856098925
398,0.00289223238328762
399,0.00316270620558599
400,0.00336800258874434
401,0.0036110757650938
402,0.00380595615583948
403,0.00386658742428311
404,0.00395816447758884
405,0.00397261252509702
406,0.00406902459956301
407,0.00409154981643638
408,0.00414054939112322
409,0.00424892687111099
410,0.00446705914719217
411,0.00447774391385388
412,0.00455848970509198
413,0.00481607899872703
414,0.00478683297226568
415,0.00482593255085539
416,0.00484924377349186
417,0.00484972111760966
418,0.00490877919451616
419,0.00484342802731534
420,0.00494624596035214
421,0.00499344390716049
422,0.00501520368397904
423,0.0050660157828367
424,0.00510606475871018
425,0.00500932785323805
426,0.00501487637657127
427,0.00487243607979923
428,0.00473905891026423
429,0.00474882083417512
430,0.00484051992437257
431,0.00509754638134334
432,0.00549984602365123
433,0.00596057359778325
434,0.00640064665997512
435,0.00660053895179373
436,0.00656787665550145
437,0.00642824115101885
438,0.00628860564653625
439,0.00614897014205365
440,0.00607490632253174
441,0.006162350378349
442,0.00630027336553766
443,0.00635204248835997
444,0.00647524013560893
445,0.00659843778285789
446,0.00672163543010685
447,0.00679957760497209
448,0.0068349011056637
449,0.00714851303099324
450,0.00705318259979585
451,0.00705518033751352
452,0.00702659639445725
453,0.00699801245140098
454,0.00696942850834471
455,0.00701737674720899
456,0.00692508812829597
457,0.006993177450347
458,0.00706059846936397
459,0.00714010091359471
460,0.0071228039424532
461,0.00705969274216703
462,0.00724130306321031
463,0.00704600325045232
464,0.00695077141313415
465,0.0069201084292732
466,0.00678367368243699
467,0.00680575535791358
468,0.0066917647290582
469,0.00662166026136256
470,0.00672393745998002
471,0.00672796288787047
472,0.00676125731179681
473,0.00677179096878548
474,0.00681419597327254
475,0.00691511540724343
476,0.00672696897877601
477,0.00675017560483066
478,0.0067733822308853
479,0.00679658885693995
480,0.00680676886483484
481,0.00669113272427515
482,0.00668902404819684
483,0.00672795990117084
484,0.00664336862402057
485,0.00660037974159071
486,0.00668275711196277
487,0.00675869270887188
488,0.00680355010178323
489,0.00691660795272797
490,0.00687671909618804
491,0.00693352870646186
492,0.00705991699563151
493,0.00691924364146687
494,0.00698586806684658
495,0.00686310031491025
496,0.00682008878693216
497,0.0066934955876158
498,0.00676113059465086
499,0.00662070742176064
500,0.00663142968512054
501,0.00657065762547506
502,0.00669031811793645
503,0.00668149411772182
504,0.00662731315923575
505,0.00690278445719433
506,0.00689077100224181
507,0.00697389082366216
508,0.00704867084861277
509,0.0070927143136767
510,0.00705506814560654
511,0.00721484251198024
512,0.00723821473384457
513,0.00710734499572707
514,0.00714198048882869
515,0.00708382362265756
516,0.00714181255369772
517,0.00722224930125469
518,0.00730656085796064
519,0.00751190096851899
520,0.00778620188026415
521,0.00796870064847774
522,0.00815119941669133
523,0.00833369818490492
524,0.00837881338822015
525,0.00848135386814993
526,0.00862596414373227
527,0.00863606926038634
528,0.00877994482015276
529,0.00903304561452967
530,0.00910919839092616
531,0.00921000761688735
532,0.00925709907826441
533,0.00946146654484501
534,0.00965129445502493
535,0.00967880383570075
536,0.00999146722295457
537,0.0101857743518188
538,0.0105027601836938
539,0.0108650972241691
540,0.0112893680576063
541,0.011549110130046
542,0.0117986259224494
543,0.0120604995901016
544,0.012287694849343
545,0.0122324687934151
546,0.0122882511880497
547,0.0119239381119729
548,0.011559625035896
549,0.0111953119598192
550,0.0107335545533894
551,0.010502838895617
552,0.0103376728868731
553,0.0100744844849258
554,0.00992286669317735
555,0.00991669064698455
556,0.00971274173143242
557,0.00962275686576203
558,0.0094776183352802
559,0.00934942861739549
560,0.009373249489872
561,0.00919744839719186
562,0.00933046037345669
563,0.00914762025886373
564,0.00911843617534841
565,0.00893337623649788
566,0.00884321398908491
567,0.00868676431412789
568,0.00869343867152631
569,0.00853572988579578
570,0.00848337569115734
571,0.00841619530726216
572,0.00834029759044827
573,0.00834922364952966
574,0.00838685095494463
575,0.00828692394750006
576,0.00832408066088581
577,0.00836123737427155
578,0.0083983940876573
579,0.00843555080104304
580,0.00847270751442879
581,0.00855091700511595
582,0.00849222413942343
583,0.00856605614789361
584,0.00844658817988367
585,0.00844986052828199
586,0.00830912508686618
587,0.00821653684139898
588,0.00809241647748419
589,0.00796829611356941
590,0.00784417574965462
591,0.00779879040432943
592,0.00780063357590972
593,0.00772428862821957
594,0.00775078174980239
595,0.00762939726813552
596,0.00757581018715105
597,0.00754881901121593
598,0.00753776349615135
599,0.00748393006849959
600,0.0074691006497517
601,0.0074468951958947
602,0.00740885135662428
603,0.00734949271441874
604,0.00742477051021988
605,0.00737110375857681
606,0.00761681127061554
607,0.00807998628883791
608,0.00857666947298668
609,0.00919592739651622
610,0.00957015956352355
611,0.00975292631217867
612,0.00949488220474419
613,0.008960475339495
614,0.00825548915561572
615,0.00778701175217037
616,0.00738536516182828
617,0.00717589211877378
618,0.00697680587353171
619,0.00687018483524219
620,0.00678218899539078
621,0.00678905278921455
622,0.00663418104718986
623,0.00666559347220841
624,0.00660417340031792
625,0.00654275332842744
626,0.00648133325653695
627,0.00650952775735632
628,0.00649339175346989
629,0.0064734675098495
630,0.0064993323910244
631,0.00632143194266994
632,0.00624085291554429
633,0.00614765977987968
634,0.00602803659153421
635,0.00595813440101546
636,0.00589962924851935
637,0.00586801889327663
638,0.00574302347124173
639,0.00574242190113088
640,0.00565244772034856
641,0.00557804652296043
642,0.00546251777771544
643,0.0053925608094619
644,0.00532260384120835
645,0.0052526468729548
646,0.00524371388848614
647,0.0052139102426069
648,0.00504811452092252
649,0.00511644587461707
650,0.00502162524316808
651,0.00502348143613643
652,0.00491734355466684
653,0.00477879332507653
654,0.00466364128469279
655,0.00465442791800469
656,0.00452391720646349
657,0.00452304648666736
658,0.0045326213875823
659,0.00461217096885097
660,0.00459459969430635
661,0.00456821115905234
662,0.00453099757618316
663,0.00445403706141051
664,0.00435387489202747
665,0.00430482340125001
666,0.00427204064492625
667,0.00423578166887041
668,0.00416903294551931
669,0.00411990657597902
670,0.0040383172918962
671,0.00401844263471106
672,0.00396480636167835
673,0.0039334448018129
674,0.00396402611325857
675,0.00392175543018605
676,0.00391628746834769
677,0.00393156604001308
678,0.00386892639786717
679,0.00388649059171926
680,0.00396406261656665
681,0.00391013920091922
682,0.00388934442697382
683,0.00390129966799158
684,0.00380866013421022
685,0.00380737696471579
686,0.00381322773630253
687,0.00387933585767732
688,0.00395160477575696
689,0.00412774231991857
690,0.0043678068587387
691,0.00464429807419869
692,0.00490042863454915
693,0.00513069107402706
694,0.0054771170867285
695,0.0057211255769208
696,0.0060959953617962
697,0.00637491818276689
698,0.00659771423404201
699,0.00693741762142592
700,0.00734825542633867
701,0.00758902508579032
702,0.00804822750547504
703,0.00835497696879956
704,0.00886093679339029
705,0.0092177457185804
706,0.00958869353760824
707,0.0100055288437035
708,0.0102978174547773
709,0.0106952281087241
710,0.0108421078345388
711,0.0110836646288184
712,0.011430925733237
713,0.0113019295446588
714,0.0114275881594054
715,0.0112622237689476
716,0.0111821218380891
717,0.0111602327947928
718,0.0113222301108441
719,0.0116276633985715
720,0.0119261179815271
721,0.0120282311821898
722,0.0126388928025315
723,0.0127698257396126
724,0.0130339601754073
725,0.0132163020174783
726,0.0133465506586547
727,0.0137574337015893
728,0.0139464640916788
729,0.0143049841987155
730,0.0146864074608446
731,0.0151252562871905
732,0.0155043082216654
733,0.0159436583014678
734,0.0162513516714715
735,0.0162963295831297
736,0.0166110349078211
737,0.0166937995858051
738,0.0167765642637891
739,0.0168593289417731
740,0.0171387482381038
741,0.0171622488318741
742,0.0172848481269391
743,0.0174074474220041
744,0.0175300467170692
745,0.0175482999528257
746,0.0175087429893821
747,0.0175881660628006
748,0.017376049151378
749,0.0174480614243812
750,0.0173810816695195
751,0.0173144020566247
752,0.0175034447911748
753,0.0172096365072251
754,0.0171032239802351
755,0.016018740284482
756,0.0149342565887289
757,0.0138497728929759
758,0.0121364306802816
759,0.0106413980535071
760,0.00969973575359505
761,0.00944412976683354
762,0.00973990437589172
763,0.0104462821071341
764,0.0113757916930805
765,0.012304378878789
766,0.0133742601283975
767,0.0144552374819642
768,0.0149606553587902
769,0.0153474610307356
770,0.0156041630865724
771,0.0157357117983465
772,0.0159168282124003
773,0.016013339826215
774,0.0157850539921363
775,0.0158060473843537
776,0.0158441825986037
777,0.0155974002515686
778,0.0157455049771649
779,0.0154947414915232
780,0.0156572852927261
