"wavelength","measurement"
380,0.020350037556897
381,0.019586122349904
382,0.018968452781042
383,0.0185985665411698
384,0.0182055374758692
385,0.0189324429071433
386,0.0197276220331595
387,0.0204368613386218
388,0.0213723768555669
389,0.0211958447725387
390,0.0208224768679709
391,0.020519074032674
392,0.020579757933971
393,0.0205535589773884
394,0.0207097838362104
395,0.0217004225489943
396,0.0235405763309745
397,0.0257300083101456
398,0.0279194402893167
399,0.0301088722684878
400,0.0314332794314941
401,0.032786633491182
402,0.0332429750597682
403,0.033164512978576
404,0.0331420388374542
405,0.0331774305416563
406,0.0336059439749125
407,0.0333693828427336
408,0.0331905304831882
409,0.0337121919390286
410,0.0350165834555589
411,0.0350330272198891
412,0.0355743409093787
413,0.0366306432809868
414,0.0360475876917081
415,0.0366602501274019
416,0.0362990498030727
417,0.0360094217633098
418,0.0365215262388659
419,0.0357899157918758
420,0.0365706738442062
421,0.0364337169345161
422,0.0367117048626101
423,0.0366573720764656
424,0.036848004777836
425,0.0363972877389109
426,0.0358267943262072
427,0.0348461352662353
428,0.0338184806417976
429,0.0336669244020315
430,0.0336978599308529
431,0.0349157073165617
432,0.0357361286243748
433,0.0370512288750545
434,0.0382356891703343
435,0.0387913655412799
436,0.0388245832515678
437,0.0393713609650029
438,0.039918138678438
439,0.0404649163918731
440,0.0402444245971291
441,0.0405152348798576
442,0.0413109324168428
443,0.0416813542113358
444,0.0420243518859363
445,0.0423673495605368
446,0.0427103472351373
447,0.0433737231652712
448,0.0429855968562377
449,0.0443826370094358
450,0.0435674503622237
451,0.0433756972964802
452,0.0430144863581541
453,0.042653275419828
454,0.0422920644815019
455,0.0423461726753914
456,0.0419501850095182
457,0.0422373315251726
458,0.0424248580825796
459,0.0427548911679873
460,0.0427808883808811
461,0.0422150512869978
462,0.0430755477528662
463,0.0419530387934096
464,0.0413399375615234
465,0.0411385774929899
466,0.0402633306966659
467,0.0402332905017628
468,0.039528302605546
469,0.0390938896702186
470,0.0398338112426631
471,0.0395699963357987
472,0.0396692867578026
473,0.0400769736984426
474,0.0400529369835594
475,0.040291650419085
476,0.0397319166196687
477,0.0395472860401953
478,0.0393626554607219
479,0.0391780248812485
480,0.0388468578117759
481,0.0379091627996964
482,0.0370465174047568
483,0.0367164044787586
484,0.0358758235650785
485,0.0348672506992909
486,0.0349815319681927
487,0.035282297743432
488,0.0354021477940433
489,0.0363039535444345
490,0.0362855489278611
491,0.0365236868114138
492,0.0373854950783254
493,0.0367540755266777
494,0.0372317458526979
495,0.0366149004393359
496,0.0366805246818581
497,0.0362864610315918
498,0.0362210872938181
499,0.0352796290466597
500,0.0356879234851172
501,0.0351900705375872
502,0.0359603850627915
503,0.0361922915782817
504,0.0357772411131192
505,0.0367509653089455
506,0.0366425669788851
507,0.0367215883979626
508,0.0369559699209991
509,0.0369178788953303
510,0.0364084386572156
511,0.0368385024768982
512,0.03682060924787
513,0.0356378488727095
514,0.0355958460426182
515,0.035006180783539
516,0.0348981498078717
517,0.0349512627110951
518,0.0349582821643181
519,0.0359031502230049
520,0.0365694570296712
521,0.0370865577814273
522,0.0376036585331835
523,0.0381207592849396
524,0.0381514224259834
525,0.0382046449396165
526,0.0385918287957491
527,0.0384967438296973
528,0.0389273933045095
529,0.0395851208463285
530,0.039505016046864
531,0.0396772156279174
532,0.0397171089029
533,0.040106007333735
534,0.0402058390149965
535,0.0400068163886248
536,0.0403124886284079
537,0.0400003872297208
538,0.0398411964767466
539,0.0397074932060847
540,0.0399376974295286
541,0.0397217829690258
542,0.0394429039847615
543,0.0396858009948129
544,0.0399888633878919
545,0.0396268746326944
546,0.0400346178805401
547,0.0400156726376495
548,0.039996727394759
549,0.0399777821518684
550,0.039767636175137
551,0.0399105238296102
552,0.0402560467659465
553,0.0400425725335343
554,0.0397723386907903
555,0.0400004809258619
556,0.0393056512640107
557,0.0393560013331178
558,0.0390550486730508
559,0.0385692813150296
560,0.0388760302066877
561,0.0382091329333195
562,0.0388909074915243
563,0.038189153837478
564,0.0381571675267143
565,0.0376783620575203
566,0.0373820567959251
567,0.0367283866567478
568,0.0369209402557781
569,0.0363399435061946
570,0.0361148117815736
571,0.0362183296348769
572,0.036001542681181
573,0.0359164522149754
574,0.0358797922036819
575,0.035323164992462
576,0.0353140280416981
577,0.0353048910909341
578,0.0352957541401701
579,0.0352866171894062
580,0.0352774802386422
581,0.0355386481919358
582,0.0352924182285994
583,0.0353785276498417
584,0.0348006625383494
585,0.0344927003842165
586,0.0337764075027991
587,0.03313165653433
588,0.0328870160848363
589,0.0326423756353426
590,0.0323977351858489
591,0.0324010441196758
592,0.0327214309977644
593,0.0326235711068312
594,0.0330841069764762
595,0.032590109465794
596,0.0328806487672294
597,0.0329241549886995
598,0.0328135296930079
599,0.0326664813695948
600,0.0329865402184922
601,0.032888879046259
602,0.0332290090050467
603,0.0328886970051627
604,0.0331064726270552
605,0.0326806193981637
606,0.0325945540711189
607,0.0326213970138445
608,0.0320447469856908
609,0.0320354671705081
610,0.0315768074624351
611,0.0313554673067443
612,0.0310580244368921
613,0.0308919173523596
614,0.030550000122263
615,0.0309142595082095
616,0.0303319349110739
617,0.0305469991208791
618,0.0304587710139468
619,0.0305759787605251
620,0.0304563890242951
621,0.0306708109503653
622,0.0300830792519389
623,0.03012669526062
624,0.0298800114081789
625,0.0296333275557378
626,0.0293866437032967
627,0.0294139819637947
628,0.0293252721948659
629,0.029311706103021
630,0.029454185140683
631,0.0292170062122538
632,0.0291980997617278
633,0.02938445078209
634,0.0293151132261193
635,0.0292698896614259
636,0.0292249663468451
637,0.0295094334849538
638,0.0291967118017975
639,0.0292204374558922
640,0.0289336150080371
641,0.0287561604981351
642,0.0286426806481675
643,0.0285139530340472
644,0.0283852254199269
645,0.0282564978058066
646,0.0281400378871593
647,0.0281341957976767
648,0.0277254466777662
649,0.0281159241232117
650,0.0277333767348553
651,0.0278982069290862
652,0.0274742897438653
653,0.027083362128724
654,0.0264898599276955
655,0.0268609527093238
656,0.0262889796044794
657,0.0267338044907569
658,0.026736052595799
659,0.0274443977004116
660,0.027424695668805
661,0.0275854026724316
662,0.0276006788552371
663,0.027464060881963
664,0.0272081296649937
665,0.0271084027718663
666,0.0271028589680711
667,0.0272188106612107
668,0.0273053454080116
669,0.0267149016334226
670,0.0268533918937035
671,0.0266847570753571
672,0.026709215314231
673,0.0266398090540277
674,0.0267096204192857
675,0.0266946228777619
676,0.026750756492319
677,0.0271348713259461
678,0.0265924589317774
679,0.0265961261105929
680,0.0271709424580221
681,0.0266011731951469
682,0.0263557663672578
683,0.0259072534457079
684,0.0252437164037186
685,0.0246866550978258
686,0.0244177207205817
687,0.024324400919543
688,0.0244336320004159
689,0.0247626166659283
690,0.0254243539699632
691,0.0264994832720654
692,0.0271886199002765
693,0.0281997298916326
694,0.0288323532754803
695,0.0294260472613349
696,0.0305069271201643
697,0.0311458573139717
698,0.0313801848590596
699,0.0322284502520615
700,0.0333987776210177
701,0.033958270246666
702,0.0350942236798432
703,0.0358174382373736
704,0.0372566371315868
705,0.0378476624579708
706,0.038981848968156
707,0.0400218538842975
708,0.0408373010223523
709,0.0421307280180181
710,0.0422406944512769
711,0.0430507304726923
712,0.0441282266026184
713,0.0435057543145115
714,0.0439093454555079
715,0.0429254716061492
716,0.0425617335474403
717,0.0425216903852131
718,0.0428744230056857
719,0.0442610947063123
720,0.0452059288760911
721,0.0457799257574412
722,0.0478286925730992
723,0.0486960131525199
724,0.0493388693443173
725,0.0505682373034806
726,0.0511656908082423
727,0.0528757390693927
728,0.0541692091782149
729,0.0558660515580836
730,0.0576835884846544
731,0.0595574038089234
732,0.0616638016990196
733,0.0636061816180438
734,0.0652937800100994
735,0.0658941937442848
736,0.0675301505959204
737,0.0683934463764119
738,0.0692567421569033
739,0.0701200379373948
740,0.0719012170127888
741,0.0728023005417186
742,0.0736476645965957
743,0.0744930286514729
744,0.07533839270635
745,0.0759698047850827
746,0.076218489124602
747,0.0769062254099083
748,0.0766287277922889
749,0.0773212752003241
750,0.0775750310632167
751,0.0773240670995382
752,0.0785722149249583
753,0.0784885394181807
754,0.0774098531655625
755,0.072550078764191
756,0.0676903043628195
757,0.062830529961448
758,0.0551439559536502
759,0.0487863347548918
760,0.0447974430487415
761,0.044456037242498
762,0.04601560925256
763,0.0498681693349758
764,0.0544883132548179
765,0.0592675911546644
766,0.0646158542256548
767,0.0701403735583116
768,0.0727472499568124
769,0.0753567893909553
770,0.0765477202799125
771,0.0772503898786506
772,0.0784679293264451
773,0.0791711836360961
774,0.0788759777045894
775,0.0791326163768635
776,0.0794665192728265
777,0.0786924765032337
778,0.0799445714554575
779,0.0788422778510941
780,0.0799143959355607
