"wavelength","measurement"
380,0.192949150037004
381,0.185115635721875
382,0.181604815557817
383,0.176446112601542
384,0.178590062415252
385,0.186039063451223
386,0.193559784365138
387,0.200107779808341
388,0.207190921934107
389,0.212579761361161
390,0.21043021313752
391,0.206934492395236
392,0.205484346285761
393,0.207702446035651
394,0.210161285770589
395,0.220437343586698
396,0.242166312315621
397,0.266094378222657
398,0.290022444129693
399,0.313950510036729
400,0.324415747790843
401,0.34002367907802
402,0.349253152035016
403,0.348604560357573
404,0.347019731688764
405,0.345907625933421
406,0.348938610700461
407,0.348794466223135
408,0.349050815285801
409,0.354539375964995
410,0.368297653573978
411,0.364438131463945
412,0.372558327313029
413,0.377785628204147
414,0.376658089018635
415,0.377318773179499
416,0.37343006088717
417,0.371276214515381
418,0.373665890706115
419,0.366112551345367
420,0.37312631781499
421,0.371374265678972
422,0.371861211687773
423,0.372391900124101
424,0.374889967084918
425,0.367417842271544
426,0.362437737173718
427,0.352009570083603
428,0.341642110493351
429,0.342782856528985
430,0.342191263898114
431,0.355012587837909
432,0.367530577132125
433,0.379322949737571
434,0.393095951657026
435,0.401445202667848
436,0.405331279116018
437,0.411487676309042
438,0.417644073502065
439,0.423800470695089
440,0.426094758285301
441,0.432703458269057
442,0.44318604076908
443,0.447192779262048
444,0.454275114829718
445,0.461357450397389
446,0.468439785965059
447,0.47551690016079
448,0.477552002294851
449,0.495519544069398
450,0.491327505501774
451,0.489096057130888
452,0.488221167706664
453,0.48734627828244
454,0.486471388858216
455,0.486212934944643
456,0.489678519210043
457,0.493344782074596
458,0.497332891835584
459,0.503837783275832
460,0.506203412738561
461,0.499744928161536
462,0.512921839574489
463,0.499632242558634
464,0.494699876217531
465,0.492300115088532
466,0.486393023382525
467,0.486737950389721
468,0.482969449584937
469,0.479377758063862
470,0.489728840657966
471,0.489988746034841
472,0.492921859181777
473,0.500278996095779
474,0.500907114116272
475,0.509179946483314
476,0.497677314100616
477,0.498446047338228
478,0.49921478057584
479,0.499983513813452
480,0.498655396151526
481,0.486433013542416
482,0.477036222659226
483,0.475236582757232
484,0.463683015144246
485,0.454672824245442
486,0.459425626472253
487,0.46396111547149
488,0.467978429935063
489,0.47972543233225
490,0.4832411836396
491,0.488776860349663
492,0.498533084502261
493,0.493220642254415
494,0.500307008496662
495,0.493811313549644
496,0.496292704238467
497,0.48881446224333
498,0.490560710821558
499,0.479270085057301
500,0.483472261862558
501,0.48067346033873
502,0.48873551460699
503,0.490844353348268
504,0.487909289032355
505,0.500958156387309
506,0.498853892808089
507,0.502065917303295
508,0.502902433080181
509,0.503789379976551
510,0.493498381285365
511,0.500080065883456
512,0.495374674991199
513,0.480225684519528
514,0.477114226945608
515,0.469488221010324
516,0.466794951978824
517,0.465333430147833
518,0.463872061561364
519,0.474429808608037
520,0.481570339813113
521,0.486426672054728
522,0.491283004296343
523,0.496139336537958
524,0.494594525399332
525,0.495414543123565
526,0.497534338972424
527,0.494063088835339
528,0.496819496852658
529,0.503462392739804
530,0.503088107560249
531,0.503708528616639
532,0.502736822508413
533,0.507378046259285
534,0.507705374305236
535,0.503293856059472
536,0.507572565619847
537,0.503734906058092
538,0.500466386494613
539,0.497823066255633
540,0.501749437626845
541,0.4979167472133
542,0.496019299858625
543,0.497165393580243
544,0.500770788013927
545,0.4969727916538
546,0.501112430575488
547,0.500840269694704
548,0.50056810881392
549,0.500295947933136
550,0.496696740494837
551,0.501079122330835
552,0.506084956380226
553,0.500967575815553
554,0.4987028631579
555,0.503378577500879
556,0.497330282953319
557,0.495821411501017
558,0.493665962916269
559,0.490149973351419
560,0.496613204429444
561,0.488943985717973
562,0.497414844988152
563,0.489469530935364
564,0.494481992123207
565,0.487778143789894
566,0.486392297851408
567,0.481191999949273
568,0.485738719730767
569,0.482090496336349
570,0.482225678924498
571,0.484376130996141
572,0.484383756492367
573,0.485125461398624
574,0.488613173037073
575,0.481658686790041
576,0.483161845968442
577,0.484665005146843
578,0.486168164325243
579,0.487671323503644
580,0.489174482682045
581,0.495586909552771
582,0.492159901890796
583,0.495979092697478
584,0.487025900510455
585,0.487296151396254
586,0.474623783936388
587,0.471530749369719
588,0.468648946611074
589,0.465767143852429
590,0.462885341093784
591,0.464431385273513
592,0.46942790756839
593,0.469426227190803
594,0.474587895257503
595,0.473405188404691
596,0.475134402451393
597,0.475494201733025
598,0.474565280525995
599,0.47443904693925
600,0.477424100944506
601,0.47922725121435
602,0.480877214267136
603,0.478774963581108
604,0.484100640343737
605,0.479898074782225
606,0.480860239198567
607,0.479055371859475
608,0.473930272135696
609,0.473750228656493
610,0.469935737292078
611,0.467236883298854
612,0.463384093164298
613,0.462520771921981
614,0.456964290562375
615,0.46609862451714
616,0.458536180695205
617,0.462891130011907
618,0.462642360118022
619,0.464793343275016
620,0.464322327750359
621,0.465729715774558
622,0.458516078958434
623,0.457976438285866
624,0.455719570991788
625,0.453462703697711
626,0.451205836403633
627,0.452403832087002
628,0.451146778782743
629,0.450644226282824
630,0.452729375713516
631,0.447480944059176
632,0.450845355872579
633,0.453060853694626
634,0.454738330072611
635,0.455672632914249
636,0.450528110936053
637,0.456517024884113
638,0.454556197969109
639,0.455077181699677
640,0.453386796959369
641,0.451510517143138
642,0.45143650481363
643,0.449887073402646
644,0.448337641991661
645,0.446788210580676
646,0.449425218457688
647,0.450918748464247
648,0.442394997993093
649,0.450574336655728
650,0.445434746455217
651,0.448622272761957
652,0.441190425944654
653,0.436030505703669
654,0.427165298922837
655,0.432431232461995
656,0.426647077386487
657,0.433296342989114
658,0.436377136951903
659,0.447074408888198
660,0.449015995784426
661,0.451316955636557
662,0.45256249190225
663,0.450585501140618
664,0.447218919417182
665,0.449322253624686
666,0.451084927637364
667,0.451362601756845
668,0.452772763375914
669,0.44407664407661
670,0.446884418861708
671,0.446135362722491
672,0.444854840087074
673,0.445952468070101
674,0.446216635632055
675,0.445547370678154
676,0.445614103869469
677,0.449278412692176
678,0.443396374011159
679,0.442616834525735
680,0.453965652594405
681,0.44566348019462
682,0.434991105632002
683,0.427398327298846
684,0.413702688094306
685,0.403344910991697
686,0.395624732527458
687,0.388210660317893
688,0.388276154942959
689,0.391718510191098
690,0.397324901785584
691,0.40748349158091
692,0.410877373337218
693,0.416314120029037
694,0.420607828979038
695,0.419764891130041
696,0.426192111488715
697,0.427839924251728
698,0.423277029330301
699,0.424156407132539
700,0.431251781029498
701,0.428137823335727
702,0.432928629440264
703,0.433270557263388
704,0.439300773967593
705,0.439201457289397
706,0.443489209381475
707,0.447389640922017
708,0.445864361146824
709,0.45120914415828
710,0.44645926428493
711,0.445649124708854
712,0.449987033484466
713,0.433065284117463
714,0.428094718405583
715,0.412771708491084
716,0.400366582410443
717,0.391992874841794
718,0.388882351422791
719,0.392482104670003
720,0.396991811588019
721,0.390827251253159
722,0.401681416746654
723,0.401732987089899
724,0.400522931717118
725,0.402619347163823
726,0.401234689944151
727,0.406443808317503
728,0.409329924363344
729,0.416734009914818
730,0.422552041604447
731,0.430458370170222
732,0.438064719373694
733,0.44725196084898
734,0.451804754736263
735,0.450916050109648
736,0.454785011750954
737,0.456106073974612
738,0.457427136198269
739,0.458748198421926
740,0.464642079379147
741,0.464609487478418
742,0.466370442094135
743,0.468131396709851
744,0.469892351325568
745,0.472224058716044
746,0.469160489952621
747,0.472293128713558
748,0.466182713380205
749,0.468517771199662
750,0.46892738868383
751,0.466789153584394
752,0.472212887310795
753,0.468284185494443
754,0.460560092681041
755,0.430911578209762
756,0.401263063738482
757,0.371614549267203
758,0.32484483366357
759,0.286648140162799
760,0.264995322021957
761,0.26189661584506
762,0.272456162334367
763,0.293232544536908
764,0.319934345323051
765,0.345890994318615
766,0.377468571823383
767,0.407210198416835
768,0.421625691557069
769,0.434821805865847
770,0.444607169310368
771,0.448673528229348
772,0.452559086627273
773,0.460280001152417
774,0.455800606857395
775,0.456824284397138
776,0.459302445793308
777,0.453188636703353
778,0.461489804891812
779,0.45464704212207
780,0.462820714022646
