"wavelength","measurement"
380,0.00114810715102449
381,0.00118521555305035
382,0.00118105757602612
383,0.0011295288096547
384,0.00113997255859329
385,0.00124313144934492
386,0.00126823132591715
387,0.00134818733995549
388,0.00140916464939439
389,0.0015181431966945
390,0.00154147655602701
391,0.00155036642956491
392,0.00154326305194537
393,0.00158096524927915
394,0.00168327281509963
395,0.00176449364966116
396,0.00196071791391379
397,0.0021688385864713
398,0.00237695925902881
399,0.00258507993158632
400,0.00280154501324027
401,0.00303295725997728
402,0.00320686171763336
403,0.003276377553543
404,0.00335235022397672
405,0.0033791016006436
406,0.003432919349878
407,0.00340375758343695
408,0.00344931436938594
409,0.00352459616176117
410,0.00364656254602703
411,0.0037076741758256
412,0.0038517786816549
413,0.0039613870503518
414,0.00399457047798339
415,0.00403537494008547
416,0.00405170982741605
417,0.00408733190850212
418,0.00417015318456577
419,0.00412115509513236
420,0.00426050090903617
421,0.00426384594033657
422,0.00431147920274319
423,0.00434584048828074
424,0.00439074223209327
425,0.00433813989476399
426,0.00432061036651174
427,0.00424418684717355
428,0.00417381857570973
429,0.00420612518054792
430,0.00430146780506111
431,0.00470577789670006
432,0.00531115959621385
433,0.00589902349820017
434,0.00642931436156598
435,0.00657703430805039
436,0.00651565713777694
437,0.00619402160816152
438,0.00587238607854609
439,0.00555075054893067
440,0.00550691655517009
441,0.00551983082589895
442,0.00560496797546669
443,0.00565189021127037
444,0.00576681771325849
445,0.0058817452152466
446,0.00599667271723471
447,0.00609918449727169
448,0.00610016711944962
449,0.00633204050444242
450,0.00629384202658638
451,0.00627014645289447
452,0.00624938270727677
453,0.00622861896165908
454,0.00620785521604138
455,0.00623878065186725
456,0.00616867581960885
457,0.00626035766692139
458,0.00628507844578027
459,0.00636268534999679
460,0.00636096563252287
461,0.0062742133069605
462,0.00644090697023462
463,0.00625391300847285
464,0.00618830695029378
465,0.0061569227277151
466,0.00606682355210156
467,0.00601183220236091
468,0.00596520491656986
469,0.00591138950834934
470,0.00601279034628257
471,0.00600424270842634
472,0.0060315921023159
473,0.00608456272811619
474,0.00610374482502612
475,0.0061478281574982
476,0.00599326101526612
477,0.00603378252987707
478,0.00607430404448801
479,0.00611482555909895
480,0.00614888360857242
481,0.00607161091246733
482,0.00612394937706472
483,0.00622894300540449
484,0.00627079501085286
485,0.00629828851113801
486,0.00640302779455659
487,0.00647865956072078
488,0.00652123168757538
489,0.00659136409419465
490,0.00661355449125183
491,0.00654234529491128
492,0.00663121146285365
493,0.00647008866325056
494,0.00651799665359676
495,0.00636752825107456
496,0.00633881766060064
497,0.00622248821005841
498,0.0061973965346496
499,0.00601059709879086
500,0.00604028650208759
501,0.00592894596841986
502,0.00604480152939689
503,0.00605463650826896
504,0.00599859259084891
505,0.00618269855558885
506,0.00617082011778455
507,0.00621386917027497
508,0.00627879534063778
509,0.00633488141417443
510,0.00628764330022095
511,0.00646054946742632
512,0.00645085713585096
513,0.00632272846778586
514,0.00637283256350511
515,0.00633469267783009
516,0.00638447331045325
517,0.0064457183674103
518,0.00651112730788679
519,0.00673349252821195
520,0.00692940382315926
521,0.00709349393744345
522,0.00725758405172764
523,0.00742167416601183
524,0.00747317195465946
525,0.00757467349199548
526,0.00767930008890419
527,0.0077401491895599
528,0.0078302749795659
529,0.00805897198410837
530,0.00812868568225469
531,0.00823200127642868
532,0.00831535185169823
533,0.00850230120947836
534,0.00872552220262505
535,0.00886071910103163
536,0.00928390992442703
537,0.00968142801002488
538,0.0101919618125709
539,0.0107811840312313
540,0.0113586157793534
541,0.0118572589755231
542,0.0123189512906796
543,0.0126647204306932
544,0.0129512747791671
545,0.0128833753253713
546,0.0128514605586015
547,0.0122494473592778
548,0.011647434159954
549,0.0110454209606303
550,0.0103563819054383
551,0.00994430358620999
552,0.00965643268598126
553,0.00930792216473742
554,0.00909142866862201
555,0.00901891821355944
556,0.00878329814637068
557,0.00863611744984723
558,0.00851367561818168
559,0.0083871359986659
560,0.00838549307750011
561,0.00820531763072079
562,0.0083184969836253
563,0.00813979779948843
564,0.00814909872286107
565,0.00799267569814285
566,0.00791105609252433
567,0.00775386186264837
568,0.00774712276325288
569,0.00763825111644949
570,0.00756146540512458
571,0.00753270655327041
572,0.00748750564069225
573,0.00749759447338795
574,0.00757377610953962
575,0.00753970641275749
576,0.00761985031798297
577,0.00769999422320846
578,0.00778013812843395
579,0.00786028203365943
580,0.00794042593888492
581,0.00806799121502772
582,0.00804364945731736
583,0.00813107501677884
584,0.00806902448619375
585,0.00812968779141008
586,0.00799519957341686
587,0.00786236490686602
588,0.00773981074099317
589,0.00761725657512031
590,0.00749470240924746
591,0.00741587527894578
592,0.00739414118954404
593,0.00725042927055886
594,0.00725151287853931
595,0.00707745410566678
596,0.00704411330123035
597,0.00700634090555014
598,0.0069490687579526
599,0.00689696395241468
600,0.00690449183534116
601,0.00682853250384796
602,0.00680690514165655
603,0.00674915563495246
604,0.00683113440893876
605,0.0068701353473443
606,0.00730371434597684
607,0.00812742329513439
608,0.00901931457194245
609,0.0100207708733015
610,0.0106616325638987
611,0.0109405163243313
612,0.0105074181497242
613,0.00966009420285743
614,0.00862769114397876
615,0.00798058567655244
616,0.00733969349190959
617,0.00701562591642491
618,0.00675024342556638
619,0.00659546056619613
620,0.00648392129351125
621,0.00645257863836917
622,0.00634034159554654
623,0.00633153637135329
624,0.00629313137017125
625,0.00625472636898921
626,0.00621632136780717
627,0.00629647951218639
628,0.00626981730980971
629,0.00625243226528345
630,0.00622513089209812
631,0.00606925647748646
632,0.005866533847174
633,0.00575053481299584
634,0.00558402650306453
635,0.00548993552460975
636,0.00539025529488566
637,0.00537632504402538
638,0.00527549651397623
639,0.00526314369245125
640,0.00519424847482718
641,0.00512306824170997
642,0.00504911109031241
643,0.0049732968163394
644,0.00489748254236639
645,0.00482166826839337
646,0.0048331127922941
647,0.00478636430991143
648,0.00469837698772191
649,0.00479007861364038
650,0.00469125896152401
651,0.00467843320125645
652,0.00456184999685194
653,0.0044582613133595
654,0.00430414824222614
655,0.00428386373681873
656,0.00418355254478096
657,0.0042127085694216
658,0.00419841212902515
659,0.00428836725495766
660,0.00427454237009882
661,0.00426493726088074
662,0.00422350524922976
663,0.00414714770859279
664,0.00406653045583685
665,0.00402598620791009
666,0.00396364300114552
667,0.00391496600195044
668,0.00386792449052316
669,0.00380534626855704
670,0.0037592198757697
671,0.00373057891098238
672,0.00368379739458393
673,0.00368043930581437
674,0.00366167141054656
675,0.00364809096074242
676,0.00365126307240247
677,0.00365796791487269
678,0.00363314166191186
679,0.003601243626613
680,0.00372516111801416
681,0.00368507432612752
682,0.00361329886925106
683,0.00360974204917574
684,0.00358723039431934
685,0.00357268210359403
686,0.00359817242563788
687,0.00365761912844475
688,0.00371169763945584
689,0.0038781553990915
690,0.00406448543246121
691,0.00433309433586981
692,0.00451206647416992
693,0.00476648470458371
694,0.00504657602693331
695,0.00524631591671155
696,0.00554531380839066
697,0.00579155813069175
698,0.00596507494832871
699,0.00625086342776294
700,0.00661385366017074
701,0.0068464809285974
702,0.00728645192803588
703,0.0075587116159222
704,0.00803665090969694
705,0.00837538194549392
706,0.00872314205430436
707,0.00912868421241619
708,0.0093856409347289
709,0.00972197256547812
710,0.00982241509377046
711,0.00998220745349295
712,0.0102632667656407
713,0.0100731035843901
714,0.0100802149092727
715,0.00988188722284145
716,0.00980655561012574
717,0.00976691619187086
718,0.00991337575505333
719,0.0101847371423445
720,0.0104364335925877
721,0.0105507597579541
722,0.0110172823777889
723,0.0111519541085338
724,0.0113291057740261
725,0.0115428534290794
726,0.0116167969928305
727,0.0119862557576269
728,0.0122102560619355
729,0.0125329037970695
730,0.0128527463070982
731,0.0131786533503172
732,0.0135256616628623
733,0.0138776606941143
734,0.0141883154317195
735,0.0142225071246195
736,0.0145010441771544
737,0.0145954406152005
738,0.0146898370532465
739,0.0147842334912926
740,0.0149859910577183
741,0.0150668766279908
742,0.0151482034561529
743,0.0152295302843149
744,0.015310857112477
745,0.0153667540175702
746,0.0153679322520459
747,0.0154148663949699
748,0.0151921274014469
749,0.0152411497005228
750,0.0152617340996768
751,0.0150759504706837
752,0.015280412026813
753,0.0150755187323568
754,0.0148594889214336
755,0.0138717489083284
756,0.0128840088952231
757,0.0118962688821179
758,0.0103588512128924
759,0.00907482205401242
760,0.00835137133266851
761,0.00822726919967989
762,0.00852894995590007
763,0.00913983796347144
764,0.0100431979565886
765,0.0107779498521423
766,0.0117734143044135
767,0.01264790313476
768,0.013109303854594
769,0.0134382054784421
770,0.0137464361823576
771,0.0137652713281167
772,0.0139382600235733
773,0.014020998504228
774,0.0138644974538381
775,0.0138234960641199
776,0.0138410599897013
777,0.0135994915155433
778,0.0137525674344011
779,0.0135491690310931
780,0.0136978782573785
