"wavelength","measurement"
380,0.00592755223017899
381,0.00580386689310766
382,0.00560263071809676
383,0.00554353321628558
384,0.00531109034781985
385,0.00569487259023426
386,0.00596431110792638
387,0.00618073723462414
388,0.00640742332168624
389,0.00662158212565888
390,0.00662175354813694
391,0.0065730826379079
392,0.00657210239952869
393,0.00669786369691592
394,0.00691721812504015
395,0.00723992290067987
396,0.00800161986046486
397,0.0088767662975355
398,0.00975191273460613
399,0.0106270591716768
400,0.0111572443348522
401,0.0118993578333872
402,0.0123075872798796
403,0.0125279570747088
404,0.0125789557290559
405,0.0127801471855261
406,0.0129089933514141
407,0.0130957670093134
408,0.0132508721185223
409,0.0134936185434893
410,0.0141246358414765
411,0.0141801422143844
412,0.0145315940689029
413,0.0147857711964918
414,0.0147547618194899
415,0.0149766980271586
416,0.0148196958999389
417,0.0147823371282647
418,0.0150006807228541
419,0.0147390302233188
420,0.0149146215383407
421,0.0149060338246281
422,0.0150578078096763
423,0.0151171955182284
424,0.0152151398431614
425,0.0148382399615556
426,0.0146506875662129
427,0.014221664652931
428,0.0138090339776415
429,0.0137830701829848
430,0.0138834287465044
431,0.0142703686568016
432,0.0148245028380388
433,0.0153142442752668
434,0.015826364095679
435,0.0161429418733638
436,0.0161971259608291
437,0.016442940630721
438,0.0166887553006129
439,0.0169345699705048
440,0.0170660157696124
441,0.0173517683053168
442,0.0177018266495799
443,0.0178662918371262
444,0.0181833536713592
445,0.0185004155055923
446,0.0188174773398253
447,0.0191264048278458
448,0.0191553491769794
449,0.0199933924172164
450,0.0197134973156624
451,0.0196060415103134
452,0.0195062952124334
453,0.0194065489145533
454,0.0193068026166733
455,0.0193026457871152
456,0.0192649350326929
457,0.0193815141096317
458,0.0194433180330857
459,0.0196526513172518
460,0.0195259351719841
461,0.019325949321958
462,0.0197209092100386
463,0.0190907991522618
464,0.0188706865564699
465,0.0187478596997015
466,0.0184136821250466
467,0.0183210533662369
468,0.0181283432354839
469,0.0180002207744231
470,0.0182949275431113
471,0.0181905421671469
472,0.0182888796590928
473,0.0183727384176068
474,0.0184507627263999
475,0.0185847369414718
476,0.0182396640990971
477,0.0182239843870073
478,0.0182083046749175
479,0.0181926249628277
480,0.0181597166858016
481,0.0176761823583292
482,0.0172903794906297
483,0.0172613054849928
484,0.0167653238526764
485,0.0164361785155874
486,0.0165626508427411
487,0.0167194331462448
488,0.0168210260490363
489,0.0172880582801385
490,0.0174103966421679
491,0.0175099029177722
492,0.0179473095657003
493,0.0177333385379772
494,0.0179675010565142
495,0.0177338291766352
496,0.0178550392762884
497,0.0175997536888408
498,0.0176990780783157
499,0.0173386504596762
500,0.0174884253492686
501,0.0174903188035465
502,0.0178405757342111
503,0.0179844562035119
504,0.0178555107214921
505,0.018518549222802
506,0.0184308867534542
507,0.0185879442609675
508,0.0186815457130542
509,0.0188272960587008
510,0.0185551077595102
511,0.0189810356967764
512,0.0189644342304886
513,0.0184805998401249
514,0.0184954308162061
515,0.0183647512039569
516,0.0184433848940468
517,0.0184817102181861
518,0.0186444650070032
519,0.0191581311736113
520,0.0196574370393529
521,0.0200234122638972
522,0.0203893874884414
523,0.0207553627129856
524,0.0208356620317442
525,0.0210341872128097
526,0.0213047456271464
527,0.0213288030084909
528,0.0216362374619811
529,0.0220926154039624
530,0.0221686160992893
531,0.0223396357796333
532,0.022382656908117
533,0.0226984999661447
534,0.0228732938023024
535,0.0226985108368773
536,0.0229855053524507
537,0.0229426881070664
538,0.0228830369974951
539,0.0228118037626807
540,0.0230039005782085
541,0.0229364661949686
542,0.0228346338234239
543,0.0230313732626196
544,0.023291727258857
545,0.0231106500730302
546,0.0233426993171195
547,0.0233501913719608
548,0.0233576834268021
549,0.0233651754816434
550,0.0232720543815384
551,0.0234897159593128
552,0.0236599730726847
553,0.0234437944439699
554,0.0233936866738234
555,0.0236281568651762
556,0.0233041705462004
557,0.0232173546592454
558,0.0230862487729844
559,0.0228738117491314
560,0.0230643677191241
561,0.022624451870228
562,0.0229664951037377
563,0.0225874030109799
564,0.022599621997077
565,0.0222448108228509
566,0.0221244073433649
567,0.0217852112881407
568,0.021855735858686
569,0.0215669248011662
570,0.0215050490448731
571,0.021429467504045
572,0.0213590816782439
573,0.0212704667384576
574,0.0213291965878489
575,0.020995323192059
576,0.0209950927927808
577,0.0209948623935026
578,0.0209946319942243
579,0.0209944015949461
580,0.0209941711956679
581,0.0212421639844796
582,0.0209953698442213
583,0.0211195213062871
584,0.0208560262923299
585,0.020836256125814
586,0.0203799345753293
587,0.0201747328644505
588,0.0200764967612737
589,0.0199782606580969
590,0.0198800245549202
591,0.020006995748599
592,0.0202202456816973
593,0.0202368473193854
594,0.020519829491698
595,0.0204747775675628
596,0.020576918986872
597,0.0207090845854297
598,0.0207380505089832
599,0.0207292043993983
600,0.020871392046024
601,0.0209182385277988
602,0.021052966975182
603,0.0209533266011977
604,0.0211958331789615
605,0.0210281432616257
606,0.0210998696727257
607,0.0209744758831871
608,0.0207517594412018
609,0.0207328511201724
610,0.0205522126194617
611,0.0203843588818755
612,0.0202653806139259
613,0.0200699339527581
614,0.0199035827126243
615,0.0201555349781926
616,0.0198064720486636
617,0.0200195824973319
618,0.0198476512976677
619,0.0199804822684095
620,0.019853326945861
621,0.0199891279209572
622,0.0195796594619716
623,0.0195979928532653
624,0.0194665369762056
625,0.0193350810991459
626,0.0192036252220862
627,0.019194554197351
628,0.019174385822581
629,0.0190534730839387
630,0.0192060883062574
631,0.0189541810336407
632,0.01901855526488
633,0.0191457541743407
634,0.0190880123188649
635,0.0191247545418815
636,0.0189142360934655
637,0.0190203854584317
638,0.0188364121430427
639,0.0188666288414369
640,0.0187556900485473
641,0.0185549783773058
642,0.0184349147370188
643,0.0183115764898222
644,0.0181882382426257
645,0.0180648999954291
646,0.018050453963846
647,0.0180990991921347
648,0.0176747798554955
649,0.0179777048566818
650,0.0176801998761696
651,0.0178169414415938
652,0.0175695865213301
653,0.0172745959896673
654,0.0169609525206044
655,0.0170209611194614
656,0.0168356882366477
657,0.0168741462177498
658,0.0169746179857708
659,0.017300166632367
660,0.0173211783391257
661,0.0173746292408901
662,0.0173561230050195
663,0.0172066668761004
664,0.0170320442524413
665,0.0170263088435597
666,0.0170121383874996
667,0.016966061856416
668,0.0170423797564043
669,0.0166883495145959
670,0.0167193102285799
671,0.016649986338313
672,0.016568642497192
673,0.0166050225908293
674,0.0166482856977355
675,0.0166574168328481
676,0.0166180313579511
677,0.0168127534439981
678,0.0165942463490306
679,0.0166317236163774
680,0.0170387746902738
681,0.0168082666570825
682,0.016525999312749
683,0.016388865944988
684,0.0159331350301177
685,0.0157120101750363
686,0.0155857435910581
687,0.0156041420132611
688,0.0157672808290937
689,0.0161321343138913
690,0.0168160220174389
691,0.0176019355459152
692,0.0180322148124164
693,0.0187689805973392
694,0.0194418801283418
695,0.0199142063950512
696,0.0207538241408037
697,0.0213985885916426
698,0.0218151037349839
699,0.0225130984383115
700,0.0235432723669014
701,0.023936875375228
702,0.025069800115723
703,0.0257043992585797
704,0.0268100488601583
705,0.0274026407979651
706,0.0284010648365238
707,0.0293490720559665
708,0.0300407394838205
709,0.0311641614871411
710,0.0315884538997234
711,0.0323341470484276
712,0.0332700391808358
713,0.0330860722909978
714,0.0333929174877014
715,0.0329679521722548
716,0.0328361418032347
717,0.0329711079792954
718,0.0334895338378625
719,0.0344968765122141
720,0.0356430848202871
721,0.0360491685990355
722,0.0378557071045968
723,0.0384836819889941
724,0.0392131569582196
725,0.040184743336439
726,0.0407732185737163
727,0.0421472799089907
728,0.0432494647973357
729,0.0447180718988407
730,0.0460116663298759
731,0.0476919479918147
732,0.0491442059244837
733,0.0508499854790479
734,0.0521736907353367
735,0.0528782870230874
736,0.0540082046786174
737,0.0546905481818942
738,0.0553728916851711
739,0.0560552351884479
740,0.0574245325129345
741,0.0580811682970389
742,0.0588263498270384
743,0.0595715313570378
744,0.0603167128870373
745,0.0607495172075846
746,0.061139605009313
747,0.0618275160751318
748,0.0613104864457811
749,0.061941750165669
750,0.0623305225504821
751,0.062201785376827
752,0.0633161818719023
753,0.063088883169726
754,0.0622821136725216
755,0.0584048496459216
756,0.0545275856193215
757,0.0506503215927215
758,0.0444464541767683
759,0.0392534728970226
760,0.0361260486630512
761,0.0358325166114184
762,0.0372944755395842
763,0.0404548996356897
764,0.0444182354869944
765,0.0480187524726688
766,0.0525305430996255
767,0.0568735195170448
768,0.0592381674249216
769,0.0608605865304588
770,0.0622200368802228
771,0.0628527834450886
772,0.0636673625190799
773,0.0644209574807033
774,0.0640065748939539
775,0.0642246138324703
776,0.0644417193062627
777,0.063916074245554
778,0.0647695654668735
779,0.0641834574840539
780,0.0650289093978935
