"wavelength","measurement"
380,0.00475407292144414
381,0.00467020589019939
382,0.00468539810558237
383,0.00466972585828784
384,0.00473921762102538
385,0.0051183340853545
386,0.00536919088900445
387,0.00571720370732607
388,0.00597596478227483
389,0.00630578023155783
390,0.00627905109680932
391,0.00627682755591132
392,0.00635694926113119
393,0.00649762369518413
394,0.00666501923688389
395,0.00706384303305631
396,0.00781879876147136
397,0.00867940325643298
398,0.0095400077513946
399,0.0104006122463562
400,0.0109594417364071
401,0.0116501806597575
402,0.0120897264702158
403,0.0121693379225549
404,0.012267111419937
405,0.0122256302495093
406,0.0124215587607331
407,0.0124747666399318
408,0.0124922847267278
409,0.0126817497608171
410,0.0132153878657824
411,0.0132627426448216
412,0.0134865093304168
413,0.0137709516011593
414,0.0137632408816613
415,0.0138268001153801
416,0.0136314799325641
417,0.0135095751124604
418,0.0136009961886834
419,0.0133021562580509
420,0.0135882670726444
421,0.0135254969097457
422,0.0135422758003505
423,0.0136124011733138
424,0.0137053048396931
425,0.0133608243236347
426,0.0132054260647678
427,0.0127908638914967
428,0.012406196098487
429,0.0123876603032224
430,0.0123418783120546
431,0.0128971442109255
432,0.0135293023780725
433,0.0140437184723663
434,0.0147534020701529
435,0.0149795803759892
436,0.0150841118665518
437,0.0150965189081856
438,0.0151089259498193
439,0.0151213329914531
440,0.0151460052788148
441,0.0153213369698144
442,0.0156919686887625
443,0.015799634299478
444,0.0160140390439257
445,0.0162284437883734
446,0.0164428485328211
447,0.016643277030152
448,0.0166904987596883
449,0.017336189049312
450,0.0171897746941071
451,0.0170801940889957
452,0.017012369328859
453,0.0169445445687223
454,0.0168767198085856
455,0.0169081919350642
456,0.0169477729894781
457,0.0170577973862408
458,0.0171577113129643
459,0.0173436947119431
460,0.017309237035834
461,0.0171467693325848
462,0.0176124526148653
463,0.0170822239885332
464,0.0168724451014753
465,0.0168091245745884
466,0.0165012995659471
467,0.0164653475450521
468,0.0163220596600422
469,0.0161790020343724
470,0.0164426459462102
471,0.0164255552468785
472,0.0164706068571231
473,0.0166326757943457
474,0.0166811256613345
475,0.0168196092405835
476,0.0164944419575402
477,0.0164965067738964
478,0.0164985715902525
479,0.0165006364066087
480,0.0164811624780962
481,0.0160987909198329
482,0.0158754132502563
483,0.0158042314723575
484,0.0154372691919632
485,0.0151943626516902
486,0.0153242127850105
487,0.0154558535443329
488,0.0155235510185529
489,0.0158963554956096
490,0.0159450811082084
491,0.0160303512215762
492,0.0163161990162065
493,0.0161071595949026
494,0.0162772379106358
495,0.0160706161867401
496,0.0160240437886527
497,0.0157046268061705
498,0.0157547573130194
499,0.015340795103042
500,0.0154038561236306
501,0.0152320611624137
502,0.0154405996966491
503,0.0155132398301949
504,0.0153228589266846
505,0.0158057636547379
506,0.0156997783017978
507,0.0157547628690615
508,0.0158068878711558
509,0.0158278976180349
510,0.0155476796816705
511,0.015733179995079
512,0.0156259395643606
513,0.0151477189310222
514,0.0150193402529285
515,0.0148071705497422
516,0.0147098393317499
517,0.014676939913268
518,0.0146158741269231
519,0.0148797349628762
520,0.0152139960365365
521,0.0153722212158796
522,0.0155304463952227
523,0.0156886715745658
524,0.015671934407289
525,0.0156981176044305
526,0.015764677385889
527,0.0156548558374545
528,0.0157791347169589
529,0.0159925383840874
530,0.0160024554430745
531,0.0160438058902447
532,0.0160058088241862
533,0.0161779026509487
534,0.016224242511661
535,0.0160719811285915
536,0.0163524494599037
537,0.0164518046990201
538,0.0165921269820801
539,0.0168667458912119
540,0.0174073035680208
541,0.0177427627456769
542,0.018110387994818
543,0.0183834743503063
544,0.0185180214393951
545,0.0181586621080007
546,0.0179920079371545
547,0.0175665436403656
548,0.0171410793435767
549,0.0167156150467878
550,0.0163338962021663
551,0.0163079260980884
552,0.0162637243493177
553,0.0160210606902839
554,0.0158117693846322
555,0.0158722069596769
556,0.0155711984573645
557,0.015463469757988
558,0.0153339948496772
559,0.0151504537679276
560,0.0152784885885589
561,0.0149929248277091
562,0.0152201958398373
563,0.0149377822635239
564,0.0149820634605374
565,0.0147455533820092
566,0.0146281284170326
567,0.014422985505869
568,0.0144910570789676
569,0.0142906017191971
570,0.0142070105594612
571,0.0142392025743866
572,0.0141809309501499
573,0.0141554016710764
574,0.0142914549387995
575,0.0140826164927743
576,0.0141407263653304
577,0.0141988362378866
578,0.0142569461104427
579,0.0143150559829988
580,0.014373165855555
581,0.0145664351019442
582,0.0144632664879223
583,0.014536690639343
584,0.0143066880662016
585,0.0143195364222165
586,0.0139343774833396
587,0.0137256491568532
588,0.0135272694974345
589,0.0133288898380159
590,0.0131305101785972
591,0.0130974773205579
592,0.0131438873346344
593,0.013082554276447
594,0.0131547630681752
595,0.0130196358709587
596,0.0130147339424433
597,0.0130193528328535
598,0.0129659058066012
599,0.0128921880542448
600,0.0129096406743047
601,0.0128958738038938
602,0.0129003079682732
603,0.0127982509397806
604,0.0128768861943882
605,0.0128027958826252
606,0.0129645261754129
607,0.0132649888243358
608,0.0135530304421684
609,0.0140009306118871
610,0.0142112007799129
611,0.0143000060994447
612,0.0140131858266577
613,0.0135467364913006
614,0.0129687233306295
615,0.0127297458323811
616,0.0123496894542337
617,0.0122326477021069
618,0.0121240404514285
619,0.0120806699273877
620,0.0119822891109529
621,0.0120178764408988
622,0.0116784332746446
623,0.0116283306393855
624,0.0114937541114266
625,0.0113591775834677
626,0.0112246010555088
627,0.0112137415340431
628,0.011164669595542
629,0.01108647886528
630,0.0111505696327036
631,0.0109474508742141
632,0.0108779704930102
633,0.0108522572527387
634,0.0107535438400969
635,0.0107499450185202
636,0.0106078758345485
637,0.0106349125572669
638,0.0104930560313444
639,0.0105378462539562
640,0.0104204391098938
641,0.0103465870118733
642,0.010235426173268
643,0.0101571904495721
644,0.0100789547258763
645,0.0100007190021804
646,0.0100055367931461
647,0.00999063873833393
648,0.00979161110245567
649,0.00990812636014856
650,0.00974564401478446
651,0.00981445416735259
652,0.00965756199869398
653,0.00941426686114669
654,0.00915140095480725
655,0.00923482979966586
656,0.00911073624405992
657,0.00906191548258451
658,0.00916973155458503
659,0.00937043895647512
660,0.00936827956916395
661,0.00937757056079709
662,0.00938945419902355
663,0.00930104081538565
664,0.00917400079255444
665,0.00916094091799119
666,0.00912688785041804
667,0.00910719898423595
668,0.00909764891227447
669,0.0089002215938621
670,0.0088915357204272
671,0.00883909760218778
672,0.00876131843998368
673,0.00874974640912385
674,0.0087527598761622
675,0.0086849312435062
676,0.00868321372198006
677,0.008683689067302
678,0.0085405840146853
679,0.00852595826256725
680,0.00870534059757442
681,0.00849735094782848
682,0.00829282103488788
683,0.0081664763027087
684,0.00785671870840999
685,0.00765411916099312
686,0.00746486424815277
687,0.0073501209176059
688,0.0072820858616788
689,0.00731347674738346
690,0.0075028997514228
691,0.00773664198186294
692,0.00784968754615545
693,0.00794453166710902
694,0.00814289489036093
695,0.0081651805999265
696,0.00840416085154225
697,0.00844175031227753
698,0.00840763103575746
699,0.00848832238790171
700,0.00872328233277536
701,0.00870963820655216
702,0.0089618998862668
703,0.00900992186214855
704,0.00928717552940068
705,0.00936818453278377
706,0.00950399043643055
707,0.00972861869920514
708,0.00977704638901803
709,0.00989416824717945
710,0.00982325096813411
711,0.00988867876524278
712,0.00997374003047069
713,0.00967652406688795
714,0.00957284306130442
715,0.0092405196813288
716,0.00897955300900504
717,0.00877668640655603
718,0.00878529115532148
719,0.00886691613990355
720,0.0089744329918085
721,0.00896083131838772
722,0.00932762770993327
723,0.00931527411472807
724,0.00931269329051842
725,0.00940164777380967
726,0.00939166019968715
727,0.00962816971869539
728,0.00971004361560673
729,0.00989614738669023
730,0.0101369486062424
731,0.0104051588780642
732,0.010639741920812
733,0.010887494001409
734,0.011075717714347
735,0.0111298153223659
736,0.0112848287090251
737,0.0113250986438677
738,0.0113653685787103
739,0.0114056385135529
740,0.0115537403887301
741,0.0115980237077041
742,0.0116576058372496
743,0.011717187966795
744,0.0117767700963404
745,0.0118241705892185
746,0.0117585649257346
747,0.0118223396452505
748,0.0116043497193915
749,0.011719397190434
750,0.0116344858989042
751,0.0115758413913752
752,0.011695392149291
753,0.0114351221683629
754,0.0114425521345671
755,0.0107164853545859
756,0.0099904185746046
757,0.00926435179462333
758,0.00814999002710155
759,0.00711144941079082
760,0.00642423893464847
761,0.00619519018695416
762,0.0063971289823422
763,0.00680887322839456
764,0.00742091874715853
765,0.00809147576994092
766,0.00883814757735966
767,0.00953950973782645
768,0.00988751282335307
769,0.0102507996079288
770,0.0103868396336971
771,0.0104890887018839
772,0.0105746203720534
773,0.0106310464952613
774,0.0104903407429975
775,0.0105310500171668
776,0.0105545038685729
777,0.010402775534631
778,0.0104768438173427
779,0.0103193022282528
780,0.010466336783168
