"wavelength","measurement"
380,0.00741366229757647
381,0.00738135753718973
382,0.0071375906124865
383,0.00724778316593829
384,0.00711855611395678
385,0.00785038474865456
386,0.00840758673919392
387,0.00889358575906832
388,0.00946297941864199
389,0.00984650244691191
390,0.0100345159312753
391,0.0101082454342337
392,0.0104723432305139
393,0.0106923048914116
394,0.0115046485107585
395,0.0125602808140873
396,0.0142800175081902
397,0.0162472566303269
398,0.0182144957524636
399,0.0201817348746003
400,0.0215384621073303
401,0.0233318117883964
402,0.0247937190089395
403,0.0254859134711502
404,0.0261811741084563
405,0.0266529991762964
406,0.0274356749112186
407,0.0285022850779618
408,0.0290835171206792
409,0.030010888435672
410,0.0315494832533386
411,0.0320878472716049
412,0.0332160351538812
413,0.0342043181537489
414,0.0343516863996737
415,0.0348271905050709
416,0.0347250664413217
417,0.0346343124579667
418,0.0353041985870476
419,0.0345821244079747
420,0.0354581087373147
421,0.0352513293658378
422,0.0354304025151112
423,0.0356419807882848
424,0.0357886316097599
425,0.0349609674488887
426,0.0344160501492846
427,0.03351604910105
428,0.0325195825198349
429,0.0323921802260095
430,0.0322211488868621
431,0.033392334402775
432,0.0345486105724026
433,0.0354624758930205
434,0.0368647404914913
435,0.0374012128682533
436,0.037816698042064
437,0.0382079040187907
438,0.0385991099955174
439,0.0389903159722441
440,0.0391067337089999
441,0.0396609120751295
442,0.0404847275965679
443,0.0405978310826596
444,0.0410676545867834
445,0.0415374780909073
446,0.0420073015950312
447,0.042521719664531
448,0.0424159674546512
449,0.0437437188218735
450,0.0430714081361861
451,0.0426533869009275
452,0.0423922475869018
453,0.042131108272876
454,0.0418699689588503
455,0.0414987262784096
456,0.0416495737358818
457,0.0418540857200763
458,0.0420018998482155
459,0.0425260937732903
460,0.0422773199623515
461,0.0419368647924258
462,0.0428317888741065
463,0.0417063428098436
464,0.0410018371578616
465,0.0409210606681604
466,0.0402063928872538
467,0.0401654845194071
468,0.0398103310857999
469,0.0396383750069555
470,0.040327124507013
471,0.0402130186291347
472,0.0405316618578118
473,0.0409353293307549
474,0.0411007717479462
475,0.0416407580655891
476,0.0407720930384645
477,0.040815416611744
478,0.0408587401850234
479,0.0409020637583029
480,0.0406816181868742
481,0.0397260279088015
482,0.0388587243380667
483,0.0386027611227154
484,0.037623962160815
485,0.0369699320394354
486,0.0371784499431823
487,0.0372803059261321
488,0.0376159923280816
489,0.0385910992257623
490,0.0387232546640888
491,0.0388475770953055
492,0.0397426043451671
493,0.0392136504781415
494,0.0396359659597177
495,0.0390190652883319
496,0.0391089889746174
497,0.0383253365566796
498,0.0383939017189117
499,0.0375723462548909
500,0.0377542141629908
501,0.0373401330585753
502,0.0379363125202411
503,0.038190881684364
504,0.0376204933584147
505,0.0388129483903835
506,0.0385810846519054
507,0.038675059003271
508,0.0387898381739395
509,0.0386567174957239
510,0.0380932924122714
511,0.0384563225824167
512,0.0381838859560359
513,0.0370173760497559
514,0.0368043310626945
515,0.0361094615931788
516,0.0359588880741552
517,0.0358911899182023
518,0.0358241502684927
519,0.0365423491233597
520,0.0371132080997336
521,0.0375613440136671
522,0.0380094799276005
523,0.038457615841534
524,0.0382201173544839
525,0.0383786428194419
526,0.0385358008069987
527,0.0383118650090093
528,0.0386115936933154
529,0.0391000156848428
530,0.0390526856397678
531,0.0390998471421346
532,0.0390881290324427
533,0.0394998083727792
534,0.0395312082499405
535,0.0390435626533203
536,0.0393965683753952
537,0.0391227410360548
538,0.0389507856965202
539,0.0386867581902202
540,0.0388521387431408
541,0.0386296772359139
542,0.0384578042438081
543,0.0385228334305052
544,0.0388281088944832
545,0.0385782780655961
546,0.0387132733733124
547,0.0387301738508982
548,0.038747074328484
549,0.0387639748060698
550,0.0384286202387112
551,0.0385007243873628
552,0.0388680683498277
553,0.0384795706128376
554,0.0381650312092548
555,0.0385424543162499
556,0.0379626522683286
557,0.0377691993017143
558,0.0374698824665626
559,0.0369398257570373
560,0.037200994721205
561,0.0365677959332861
562,0.0370983300370205
563,0.036427716874247
564,0.0365043543626787
565,0.0359189998315858
566,0.0355770153640852
567,0.0351046207707615
568,0.0352619376702118
569,0.0348215720312211
570,0.0346252025241876
571,0.0346518851934458
572,0.0344559306142218
573,0.034405316340363
574,0.0345241040518297
575,0.0340027994017578
576,0.0340551250882024
577,0.0341074507746471
578,0.0341597764610918
579,0.0342121021475364
580,0.0342644278339811
581,0.0346822961494814
582,0.0344958315062065
583,0.0345785452132953
584,0.0340652223840677
585,0.0339860663282929
586,0.0332161330011894
587,0.0328478738961395
588,0.0325795046828573
589,0.0323111354695751
590,0.0320427662562929
591,0.0322132391139796
592,0.0324772930225086
593,0.0324665450515908
594,0.0329393211362257
595,0.0326815317447698
596,0.0329463826583286
597,0.0329332090171912
598,0.0328638343082304
599,0.0328448864932545
600,0.0331066399440689
601,0.0331080543163782
602,0.03326728051637
603,0.0330630564963027
604,0.0333356786315078
605,0.033108031310815
606,0.0330282257650144
607,0.0328977355965477
608,0.0322857327383489
609,0.0323466469874969
610,0.0320890989691731
611,0.0318895653877118
612,0.0315161457648584
613,0.0313537362973339
614,0.0310619027477157
615,0.0313901113843491
616,0.0310277685791785
617,0.0311929256143666
618,0.0311629314267906
619,0.0312168081434442
620,0.0311078150803913
621,0.0311910558827771
622,0.0306940556375085
623,0.0305925455100988
624,0.0304248093320471
625,0.0302570731539954
626,0.0300893369759437
627,0.0300072225351568
628,0.0298932773264436
629,0.0299181337263882
630,0.0300661603440578
631,0.0297326984799448
632,0.0298378081186918
633,0.030075777036672
634,0.0300181659405054
635,0.0301648778882045
636,0.0298883985852373
637,0.0301869067664486
638,0.0299159513019461
639,0.0300700405017233
640,0.029856751813092
641,0.0298589419891598
642,0.0295668099662128
643,0.0294295015623526
644,0.0292921931584924
645,0.0291548847546323
646,0.0293657403920634
647,0.0292334675184108
648,0.0288101915475491
649,0.029225914066977
650,0.0290048655018578
651,0.0291417185368523
652,0.0286499904135623
653,0.028216300858848
654,0.0277472224591708
655,0.0280434418012032
656,0.0275980516414639
657,0.0278988652523836
658,0.0281588539372214
659,0.0288664501601537
660,0.0289224409889596
661,0.0291053833900779
662,0.0291321468112274
663,0.029083626063276
664,0.0287936770102135
665,0.0289327016464091
666,0.0288876015054592
667,0.0289539956863841
668,0.028910674012866
669,0.0284640183883825
670,0.0285358690195711
671,0.0284696928892218
672,0.0284205361802852
673,0.0284410174878947
674,0.0285163841012443
675,0.0285170056640362
676,0.0286045093142285
677,0.0286742405632035
678,0.0283686358226858
679,0.0283913517550093
680,0.0290431866818336
681,0.0286666881630334
682,0.0279113379858183
683,0.0275837767138306
684,0.026628118621517
685,0.0259991515627543
686,0.0255886578721418
687,0.0252404333796132
688,0.0252985851706129
689,0.0256110502496493
690,0.0263299585268577
691,0.0272445379052602
692,0.0275972769415412
693,0.0283683447577285
694,0.0292173427746916
695,0.0294416523953594
696,0.0302132408281466
697,0.0308626699699447
698,0.0308109420134425
699,0.031455062771321
700,0.0324335052803598
701,0.032550428700769
702,0.033604078442385
703,0.0341460052213518
704,0.0351795044525374
705,0.0357290376765307
706,0.0365336521674831
707,0.0375824500618264
708,0.0379844859436195
709,0.0390851541986218
710,0.0391992235413078
711,0.0398155913340161
712,0.0406670431775517
713,0.0399688153102222
714,0.0400357502544271
715,0.038946387006947
716,0.0385975744834901
717,0.0384620759139635
718,0.0386749182563516
719,0.039551959048128
720,0.0405889366128375
721,0.0409222309925865
722,0.0427255181443956
723,0.0431988859529253
724,0.0439242277366445
725,0.044898284472389
726,0.0453226315517757
727,0.0465769678248529
728,0.0477674295083175
729,0.0492974498046466
730,0.050688622464581
731,0.0524990499170602
732,0.054025745830764
733,0.05615578984674
734,0.0574540850556676
735,0.0581456709076643
736,0.0591373574520964
737,0.0599410539565834
738,0.0607447504610704
739,0.0615484469655574
740,0.0629764959019207
741,0.063507983265042
742,0.0643650745636222
743,0.0652221658622023
744,0.0660792571607825
745,0.0665014235453358
746,0.0665984453507852
747,0.0674987239360901
748,0.0670162941962649
749,0.067604001951313
750,0.0678949500660094
751,0.0678956352629776
752,0.0691140405045116
753,0.0687028932590314
754,0.0678764324032873
755,0.0635515973395013
756,0.0592267622757153
757,0.0549019272119293
758,0.0480330569115029
759,0.0421470716029696
760,0.0386352724951678
761,0.0383310447331147
762,0.0398156934656461
763,0.0431875125847371
764,0.047640890548167
765,0.0517122072853356
766,0.0565348134730928
767,0.0614084741736957
768,0.0638947459980699
769,0.0658042731261899
770,0.0675331672221833
771,0.0680969350700397
772,0.0690090012042237
773,0.0696208173011347
774,0.0694178261568348
775,0.0696934277158852
776,0.0699249092106047
777,0.0692536186353693
778,0.0702909068175619
779,0.0690954555268951
780,0.070246949132263
