"wavelength","measurement"
380,0.013304237522216
381,0.0129334658505459
382,0.0129642166983492
383,0.0131152876662094
384,0.0132432697409077
385,0.0140745960544127
386,0.0147052835776873
387,0.0155067571964018
388,0.0161751154717532
389,0.0164624924208673
390,0.0164999585037634
391,0.0166343951146087
392,0.0168443300639774
393,0.0169637693108979
394,0.0174762720053079
395,0.0190081389823453
396,0.0209183196650733
397,0.0232440574237753
398,0.0255697951824772
399,0.0278955329411792
400,0.0289978940815903
401,0.0304750690138009
402,0.0314748773169033
403,0.031570574537614
404,0.031950087105604
405,0.0321712287394154
406,0.0327840085574754
407,0.0331436308897848
408,0.0334996893706153
409,0.0345421452810157
410,0.0360509136079261
411,0.0362430437479271
412,0.0373752967858439
413,0.0382383931148307
414,0.0384922105185274
415,0.0388513622439519
416,0.0386532654608286
417,0.0386195471257193
418,0.0398610927708342
419,0.039141772005673
420,0.0405893054795386
421,0.0408671083693658
422,0.0415391547024024
423,0.0422647579531538
424,0.0422988680358755
425,0.0418347928326774
426,0.0415506775436346
427,0.0408179180027644
428,0.0401699046247501
429,0.0405236471548834
430,0.041117841984562
431,0.0434032892944456
432,0.0454784272399894
433,0.047635742915902
434,0.0496939232555581
435,0.0512188680746833
436,0.0521086935303503
437,0.0532901083750899
438,0.0544715232198294
439,0.055652938064569
440,0.0566859134070393
441,0.058109276610501
442,0.060107815659179
443,0.0609509418772215
444,0.0626659970182811
445,0.0643810521593406
446,0.0660961073004002
447,0.0675662249116683
448,0.0684026832338322
449,0.0712878225319785
450,0.0712285510165944
451,0.0712184375879697
452,0.0715510802809548
453,0.0718837229739399
454,0.072216365666925
455,0.0729749370743355
456,0.0736269867124939
457,0.0748784670734233
458,0.0759644695582551
459,0.0774578088896135
460,0.0782025348584813
461,0.0775909992739822
462,0.079875825153002
463,0.0782904896642121
464,0.0778480160829274
465,0.0777779089493988
466,0.0773141486313235
467,0.0777653575042871
468,0.0777596656509704
469,0.0778532617560013
470,0.079872822545092
471,0.0802217035074366
472,0.0810927237583996
473,0.0822590213260307
474,0.0825775526902829
475,0.0837226585267603
476,0.0826862034033547
477,0.0831835105433906
478,0.0836808176834265
479,0.0841781248234624
480,0.0842861763057258
481,0.0831688015238662
482,0.082296562505015
483,0.0824958046965543
484,0.0813042848059635
485,0.0804176546806428
486,0.0822485016430011
487,0.083777426281098
488,0.0854403458427063
489,0.0880315788678788
490,0.0889565523737149
491,0.09022447544515
492,0.0923629872823778
493,0.0916190021025843
494,0.0934643091404966
495,0.0923213852406278
496,0.0930495772199754
497,0.0916673767802872
498,0.0925172530403409
499,0.0907564310672323
500,0.0917987807231812
501,0.0912295246765342
502,0.0933946193176123
503,0.0943660123197817
504,0.0937152640210468
505,0.0968975320828405
506,0.0968036943249096
507,0.097540661843352
508,0.0985927518455005
509,0.0987547581424738
510,0.0977674163840977
511,0.0990216779449032
512,0.0983077928354228
513,0.0957502706342273
514,0.0954964551098362
515,0.0941441951703626
516,0.0941340509641381
517,0.0945532577811242
518,0.0947754984138944
519,0.0970160741488527
520,0.0988656079898277
521,0.0998219963829408
522,0.100778384776054
523,0.101734773169167
524,0.101079170447812
525,0.101220478220134
526,0.101256644387818
527,0.100810458383245
528,0.101707940356332
529,0.102798076819888
530,0.102862361334615
531,0.10308315332873
532,0.103100885115641
533,0.104350765656503
534,0.105231380878891
535,0.10432213750947
536,0.105651452021291
537,0.105242049223443
538,0.104587820680358
539,0.104376929140762
540,0.10503747599609
541,0.104650756606727
542,0.104203257410066
543,0.104855041086983
544,0.105465239231482
545,0.104863032514678
546,0.105877469480335
547,0.105977119381273
548,0.10607676928221
549,0.106176419183147
550,0.106086788306491
551,0.107049793914836
552,0.108347410931688
553,0.107424219064406
554,0.107021664179369
555,0.108409075977113
556,0.106783983043266
557,0.106738245449811
558,0.106130417481067
559,0.105373394328933
560,0.106852536793893
561,0.104767291352335
562,0.106379450003134
563,0.104359054047505
564,0.104835173211942
565,0.103116357459788
566,0.102438786347042
567,0.101097614021068
568,0.101697759585561
569,0.100250708616532
570,0.100082066743237
571,0.0999918471191249
572,0.09995067498864
573,0.0997677714416875
574,0.100495904797572
575,0.0992605183040793
576,0.100561013801672
577,0.101861509299264
578,0.103162004796856
579,0.104462500294448
580,0.10576299579204
581,0.108455888199156
582,0.108786207255641
583,0.110022784307951
584,0.108843124814957
585,0.108429473976616
586,0.105790345471872
587,0.104826161479333
588,0.10409537671076
589,0.103364591942186
590,0.102633807173613
591,0.103570618819872
592,0.10455677505862
593,0.104646327876942
594,0.106389768133364
595,0.106178690411822
596,0.106918827561934
597,0.107443175943892
598,0.107436673213958
599,0.107954273130552
600,0.108913065151174
601,0.109858123528251
602,0.110788021210929
603,0.110505132192495
604,0.11188118454197
605,0.111541080721006
606,0.112142293445328
607,0.111807958927807
608,0.110914919965608
609,0.11154425752921
610,0.111168412269085
611,0.111135321854932
612,0.110689635927709
613,0.110735677054361
614,0.110183074923841
615,0.112398817513817
616,0.111550221858776
617,0.112787854573089
618,0.112907743362171
619,0.113306681292631
620,0.113108664095028
621,0.113738968479851
622,0.111451257591982
623,0.111175251983349
624,0.10980367329355
625,0.10843209460375
626,0.107060515913951
627,0.106788375588581
628,0.106800835400496
629,0.107172077353131
630,0.109255685430871
631,0.108812983309281
632,0.111284100176218
633,0.112775427906824
634,0.114189344868999
635,0.115845474577308
636,0.115421538788109
637,0.117456342729951
638,0.11769831859274
639,0.118921771482114
640,0.119177728433656
641,0.119261021640728
642,0.119385435996785
643,0.118913006452669
644,0.118440576908554
645,0.117968147364439
646,0.11911650464327
647,0.119294193869724
648,0.117716118748594
649,0.120229280742171
650,0.119118394646512
651,0.12018694149531
652,0.119045160491165
653,0.117434090096374
654,0.115693535814365
655,0.117579272312666
656,0.117447644212206
657,0.119522936951687
658,0.12141281328088
659,0.124648636870197
660,0.12586864931302
661,0.126394431277354
662,0.127151341156835
663,0.127024935785426
664,0.126615991561102
665,0.127281313134535
666,0.127580858677734
667,0.128536759720687
668,0.129159497104714
669,0.126845080583581
670,0.128318793132992
671,0.128134170173738
672,0.128164003949113
673,0.128770675399284
674,0.129800999431301
675,0.129821990089205
676,0.129780056275596
677,0.131185101542228
678,0.129991810618266
679,0.129859938865626
680,0.132824962926129
681,0.129897086517389
682,0.125000370670931
683,0.120080835333584
684,0.112433783648787
685,0.106063649653897
686,0.100566000821843
687,0.0984778884449569
688,0.0995489217990927
689,0.10263585463445
690,0.107185233665192
691,0.112296538097809
692,0.115701637257164
693,0.118235453428384
694,0.121249754185702
695,0.121803315562983
696,0.124112897677951
697,0.124829403405553
698,0.12342412532007
699,0.123782452985933
700,0.125976798931602
701,0.125690193263534
702,0.127830062194277
703,0.128581495412649
704,0.130601273404753
705,0.130679854176122
706,0.132847319186105
707,0.133996726246741
708,0.133865663520831
709,0.135479731657406
710,0.133918017297666
711,0.133063709072222
712,0.132236875370641
713,0.125790527490774
714,0.1219220273066
715,0.114788516965442
716,0.109612843100206
717,0.106595803815401
718,0.105701296587875
719,0.107305847356472
720,0.108848764931168
721,0.107920448246087
722,0.109580619579628
723,0.109200391399143
724,0.108680539776102
725,0.109032887461639
726,0.109078282584507
727,0.111186487058782
728,0.113352456984416
729,0.116903263811766
730,0.119510529201532
731,0.12337932758674
732,0.126825455279055
733,0.130213450764406
734,0.132114674544693
735,0.132501122530422
736,0.13441615408624
737,0.13537399145301
738,0.136331828819779
739,0.137289666186548
740,0.139358452841843
741,0.140063841693861
742,0.140666450820422
743,0.141269059946983
744,0.141871669073545
745,0.142236151668018
746,0.141585837331887
747,0.142461244065291
748,0.140660301258792
749,0.141508717127113
750,0.141066032418643
751,0.140782944315339
752,0.142346963426491
753,0.14014220594243
754,0.134455050533133
755,0.12014329790331
756,0.105831545273488
757,0.0915197926436655
758,0.0716181742101447
759,0.0558696928595744
760,0.0485824294497107
761,0.0484924425338045
762,0.0533620158462796
763,0.0648340665567983
764,0.0785484303018478
765,0.0919716526483915
766,0.105962615492511
767,0.118461741636469
768,0.125721358237286
769,0.130868872780252
770,0.135157741186506
771,0.137141922373714
772,0.13855038542226
773,0.140984005582108
774,0.139876249258131
775,0.140589683412598
776,0.140965739991684
777,0.139488904702862
778,0.141237677276997
779,0.139815157449904
780,0.14196434892248
