"wavelength","measurement"
380,0.0154642939384069
381,0.0150773413388016
382,0.0147062597237645
383,0.0145139954270572
384,0.014870711236293
385,0.015477789523591
386,0.0159589294410615
387,0.0166157524969328
388,0.0174138541582545
389,0.0176453514648551
390,0.0175688228097851
391,0.0172751821761973
392,0.017251086606591
393,0.017361221966286
394,0.0178531255340439
395,0.0189906789415854
396,0.0209504035026275
397,0.0230421632801322
398,0.0251339230576369
399,0.0272256828351415
400,0.0284272639732686
401,0.0295543474171567
402,0.0303754478271346
403,0.0304244233381568
404,0.0305287253548632
405,0.0302993409828774
406,0.0305836070230807
407,0.0306236945886332
408,0.0304740750753664
409,0.0311007929342939
410,0.0322255211875564
411,0.0320007474275417
412,0.0330067664724021
413,0.0331540416841179
414,0.0330663015674778
415,0.0331922237299172
416,0.0326417449429797
417,0.0322384885062814
418,0.0326224321801568
419,0.0321241086263479
420,0.0323980562562685
421,0.0323576120158286
422,0.032726458711972
423,0.0323846760380718
424,0.0329401823997411
425,0.0320473289931915
426,0.031733709841997
427,0.0307228142779723
428,0.0299135998865879
429,0.029740952425857
430,0.0299084986584689
431,0.0310775799786151
432,0.0323828943899141
433,0.033332388122395
434,0.0345712326266962
435,0.0352143973142009
436,0.0357719848887073
437,0.0362938109258234
438,0.0368156369629395
439,0.0373374630000556
440,0.0375425990376801
441,0.0384557923767277
442,0.0390109871435626
443,0.0394591980243558
444,0.0401304667001745
445,0.0408017353759933
446,0.0414730040518121
447,0.0420986562828301
448,0.0425479481336251
449,0.0438101380627214
450,0.0436625871533471
451,0.0433423167682241
452,0.0432398974128061
453,0.043137478057388
454,0.0430350587019699
455,0.0432842686343037
456,0.043480803929498
457,0.0439302609296738
458,0.0441177211873722
459,0.0447429986165633
460,0.0449300276277888
461,0.0443083136456728
462,0.0454916489936125
463,0.0443189980765101
464,0.0436617671459248
465,0.0434950348296834
466,0.0429277877210585
467,0.0427846138069547
468,0.0425223090112754
469,0.042314738709177
470,0.0430986251884247
471,0.0431992652909141
472,0.0434411179801946
473,0.0440777503222758
474,0.0439498700431845
475,0.0446896150480827
476,0.0435087221589246
477,0.0435391694585078
478,0.043569616758091
479,0.0436000640576742
480,0.0434933608770695
481,0.0423010150533551
482,0.041581613419794
483,0.0414777017384977
484,0.0407155052104778
485,0.0398383915602458
486,0.0404827633774349
487,0.040912925233305
488,0.0415688041397079
489,0.042635613894991
490,0.0430263145236893
491,0.0433156386892716
492,0.044321163458489
493,0.0437697215245601
494,0.0444858200869935
495,0.0438758973180566
496,0.0441138147689304
497,0.0434311123937556
498,0.0435422530121491
499,0.0428232546401188
500,0.0430974346950996
501,0.0427871678025469
502,0.0437439424495273
503,0.0439569980838892
504,0.0435825397637425
505,0.0449686093144114
506,0.0447257144272195
507,0.044871822401922
508,0.0451688087932792
509,0.0452537392200541
510,0.0445354819321848
511,0.0451764007197397
512,0.0447541694882329
513,0.0434901940541716
514,0.0433250309987467
515,0.0426681731710642
516,0.0425624400437521
517,0.0425755902661781
518,0.0425125100472302
519,0.0434981192255569
520,0.0443259799593261
521,0.0448085940026699
522,0.0452912080460136
523,0.0457738220893574
524,0.0456123153558776
525,0.0455728348736368
526,0.0456752293109236
527,0.0455623189713593
528,0.0458935746845472
529,0.0463842706153446
530,0.0465202291497581
531,0.04660513362943
532,0.0464591563474488
533,0.0469365815990384
534,0.0472697221911267
535,0.0468533146258023
536,0.0472787478482033
537,0.0470690207006159
538,0.0467580514864612
539,0.0466393540530554
540,0.0468770687435154
541,0.0466125938657168
542,0.0463809507715453
543,0.0465895289210352
544,0.0468511540532004
545,0.0466295690210679
546,0.0470837115299005
547,0.0470230495752785
548,0.0469623876206566
549,0.0469017256660347
550,0.0469623887067625
551,0.0471392174213014
552,0.0478538153765049
553,0.047443705077157
554,0.0472217993635392
555,0.0477764264170899
556,0.0470801168067688
557,0.0470953130666492
558,0.0467167592140822
559,0.0465907871259303
560,0.0471390111484184
561,0.0462301885537879
562,0.0469546391330336
563,0.046203303641146
564,0.0464633001118661
565,0.0457007303239833
566,0.0455018362777005
567,0.0449428943067667
568,0.0452937431463154
569,0.0446640065663876
570,0.0447797382144893
571,0.0446320098142475
572,0.0447565717665309
573,0.0445424714437931
574,0.0448776325792979
575,0.044250657138105
576,0.0445150818797094
577,0.0447795066213138
578,0.0450439313629182
579,0.0453083561045226
580,0.045572780846127
581,0.0463373470804049
582,0.0462030492808234
583,0.0467639242953052
584,0.046066916127997
585,0.0459948046278911
586,0.0449741348869084
587,0.0446826906113722
588,0.0444171375389032
589,0.0441515844664342
590,0.0438860313939652
591,0.0442139062654315
592,0.0446840383910088
593,0.0446891385130965
594,0.045284658624616
595,0.045206977236911
596,0.0456370083884091
597,0.045582761705336
598,0.0455781653168576
599,0.0456181304071812
600,0.045997376017913
601,0.0463097394609306
602,0.0467073606926348
603,0.0463849046970868
604,0.046908491512363
605,0.0465697843167176
606,0.0467083522806941
607,0.0467841343134779
608,0.0461573248341947
609,0.0463061632794601
610,0.0459904125293956
611,0.0458856601244571
612,0.045493677145314
613,0.045402270573178
614,0.0449902696122639
615,0.0456808570704006
616,0.0451817960948618
617,0.0457292497568696
618,0.0456976088612743
619,0.0458521128414755
620,0.0457194901053916
621,0.0461349506111474
622,0.0451801690080204
623,0.045194889291009
624,0.0448168375613937
625,0.0444387858317784
626,0.0440607341021631
627,0.0440042312332994
628,0.0439327180407859
629,0.0440004694529623
630,0.0445752848643805
631,0.044143624880036
632,0.0445197769318619
633,0.0450221178124728
634,0.0452487451733965
635,0.0455761331104257
636,0.0453291074088626
637,0.045869273038124
638,0.0456915369977662
639,0.04597568861456
640,0.0459332853536667
641,0.0458940939683527
642,0.0457037698355873
643,0.045571389625044
644,0.0454390094145006
645,0.0453066292039573
646,0.0456846438313673
647,0.0458648270154951
648,0.0452226806204368
649,0.0460334312609021
650,0.0455786144747212
651,0.0457777637342993
652,0.0453801240981936
653,0.0447167204176369
654,0.0440031343184842
655,0.0445796627548333
656,0.0443008580135767
657,0.0447551296142532
658,0.0453273522197827
659,0.046506242533837
660,0.0467895726885939
661,0.0469226643842826
662,0.0470951999273067
663,0.0469910857969469
664,0.0467554539682137
665,0.0468721876256583
666,0.0471847084155846
667,0.0472067573412018
668,0.0475248500323098
669,0.0466153391285454
670,0.04700734642028
671,0.0470687152461693
672,0.0470073810747826
673,0.0471609646739502
674,0.0475497001081093
675,0.0474651112454762
676,0.0476237923433706
677,0.0480562635016597
678,0.0476337751706051
679,0.0478158553831
680,0.0489991644315553
681,0.0483182274145302
682,0.0466413554611383
683,0.0456015287179385
684,0.0437177669595741
685,0.0421535214500835
686,0.0410129850965706
687,0.0405251430486684
688,0.0408292917705955
689,0.0416611982884552
690,0.0430577043189737
691,0.0448901226753804
692,0.0458991954553007
693,0.0472564511240704
694,0.0483060123144394
695,0.0488868902602398
696,0.0499016846261311
697,0.0506255328951354
698,0.0504767252557731
699,0.0511933204256171
700,0.0522200296834891
701,0.0523429545518013
702,0.0535270194609038
703,0.0539674572812438
704,0.0551394857695324
705,0.0554185777275549
706,0.0565519771451131
707,0.0573044332710449
708,0.0575511004925052
709,0.0586186957879329
710,0.0582716566030771
711,0.0585518625262384
712,0.058929577988673
713,0.057340932602045
714,0.0567457445947727
715,0.0547380060281494
716,0.0534321655753625
717,0.05260830523751
718,0.0526129145320612
719,0.0532719585964559
720,0.0539548298320761
721,0.053780448492531
722,0.0553839697238747
723,0.0554640948021897
724,0.0554989402140722
725,0.0561235843339072
726,0.0561092527916562
727,0.0572094598087168
728,0.058134910423708
729,0.0593676451936793
730,0.0603637224908953
731,0.0617418993799127
732,0.0630167358327661
733,0.0648226737250583
734,0.0653150614746503
735,0.0658789129662879
736,0.0666036501453956
737,0.0669328162714396
738,0.0672619823974837
739,0.0675911485235277
740,0.0686341049813785
741,0.0689738939608872
742,0.0693157031128404
743,0.0696575122647935
744,0.0699993214167467
745,0.0701674630218065
746,0.0701009914498505
747,0.0703300048635674
748,0.0695355327294646
749,0.0700910671979493
750,0.0698540565912469
751,0.069627861459033
752,0.0707510111212705
753,0.0703471076999102
754,0.0682474199058436
755,0.0625696482678943
756,0.056891876629945
757,0.0512141049919958
758,0.042785903839869
759,0.0357384226332467
760,0.0319524485158639
761,0.0313671251950272
762,0.0329480398304691
763,0.0373345228146941
764,0.0427075827377761
765,0.0480934740411251
766,0.0537744082689509
767,0.059617387170506
768,0.0627077502465711
769,0.0654853818151357
770,0.067293156661247
771,0.0680257936768042
772,0.0692853230524532
773,0.0701970419933685
774,0.0698715182159389
775,0.0701540547816218
776,0.0702976397014356
777,0.0696671785953925
778,0.0704777026915859
779,0.0701383818753408
780,0.0709195712850696
