"wavelength","measurement"
380,0.0427281674960191
381,0.0413694833600288
382,0.0406474169052279
383,0.0402735198661616
384,0.0407485194579767
385,0.0429470697414518
386,0.0449438090168555
387,0.046844432897836
388,0.0489858883310594
389,0.0500877942426761
390,0.0497504135680836
391,0.0493151779738518
392,0.0494782351423121
393,0.0496845685914228
394,0.0505158280146231
395,0.0537114699961124
396,0.0595654885609362
397,0.0658950406622165
398,0.0722245927634969
399,0.0785541448647773
400,0.081552153547923
401,0.0856814864888653
402,0.088357027678491
403,0.0888385418048861
404,0.0888082140063029
405,0.0881493256032425
406,0.0893658388306744
407,0.0894759361934499
408,0.0897088699476875
409,0.0915016116227697
410,0.095365197973601
411,0.0951713431785244
412,0.0978503939327014
413,0.0992767916701576
414,0.0996944530665061
415,0.0999317350183703
416,0.099024156711556
417,0.0978520134836972
418,0.0992625485869855
419,0.0976843723039852
420,0.0996739114665101
421,0.0996418405635891
422,0.100487420573787
423,0.10137699445982
424,0.101837504306096
425,0.10003212331027
426,0.0991778563227497
427,0.0964241204444317
428,0.0937959847170484
429,0.0936343711631948
430,0.0939623772193489
431,0.0981735728017816
432,0.101945368337906
433,0.105892389413062
434,0.110675620238791
435,0.113194361457985
436,0.114323927698512
437,0.116527273105732
438,0.118730618512952
439,0.120933963920173
440,0.122213606673376
441,0.124661067213313
442,0.127617848275525
443,0.129057234643573
444,0.131554012626417
445,0.13405079060926
446,0.136547568592104
447,0.139013533929773
448,0.140032763718522
449,0.14572248202987
450,0.144916849416409
451,0.144710253151458
452,0.144643552228707
453,0.144576851305957
454,0.144510150383206
455,0.145020140836034
456,0.145775252069701
457,0.147624584739155
458,0.149050667562416
459,0.15181969368962
460,0.152589338705441
461,0.151191340927563
462,0.155588427479755
463,0.151855753431757
464,0.150369617425826
465,0.149188046226847
466,0.147983373602769
467,0.147893042440104
468,0.147023440187193
469,0.146348013434693
470,0.149771352594603
471,0.150248112777759
472,0.15134335193252
473,0.153449472893439
474,0.153859711797823
475,0.15624226830411
476,0.153262626322015
477,0.15344857786526
478,0.153634529408504
479,0.153820480951749
480,0.153616842219585
481,0.149932208497507
482,0.147913359488475
483,0.147258272081706
484,0.144377537860122
485,0.141663330731164
486,0.143418524566958
487,0.145206334263483
488,0.147150595616373
489,0.151320155270928
490,0.152942404523196
491,0.15437996291303
492,0.158193599658755
493,0.156514730719651
494,0.159473020723272
495,0.157223630572555
496,0.158415265807447
497,0.155646774408779
498,0.156433959153571
499,0.153439905876598
500,0.154604149955187
501,0.153893475140986
502,0.156534050094593
503,0.157596662089329
504,0.156143422242359
505,0.161283781750672
506,0.160466801195301
507,0.161257902012082
508,0.162371783168381
509,0.162285868374908
510,0.15956257701248
511,0.162133466126874
512,0.160235110046716
513,0.155705946645615
514,0.154834112497319
515,0.152235472339449
516,0.151466719831173
517,0.151207405790755
518,0.150912673745643
519,0.153848872186171
520,0.156683890612508
521,0.158264421694869
522,0.159844952777231
523,0.161425483859593
524,0.160262496471792
525,0.160425467921525
526,0.160519824618713
527,0.159563521710413
528,0.160553808140752
529,0.162339292379275
530,0.162494055815255
531,0.162611223626278
532,0.162049128567761
533,0.163682795192873
534,0.164318662818422
535,0.162759621137667
536,0.16461036522909
537,0.163653700833033
538,0.162438153679417
539,0.161729418765341
540,0.162714352793495
541,0.161655811935432
542,0.160994682286066
543,0.16181517530892
544,0.162607330505371
545,0.161400924366596
546,0.162728530178144
547,0.162592165061163
548,0.162455799944183
549,0.162319434827203
550,0.161638333594806
551,0.162753918981446
552,0.164597175764059
553,0.162936717937387
554,0.16261070354656
555,0.16446334476485
556,0.162279069525208
557,0.162309727019064
558,0.161438399064635
559,0.160219333596008
560,0.162260558284035
561,0.159640519251004
562,0.162541372945363
563,0.160063670171463
564,0.160940130172816
565,0.158899044445974
566,0.158307620486205
567,0.156800474060799
568,0.158133786003192
569,0.156504587963621
570,0.156539665972819
571,0.156791137488682
572,0.157053944649415
573,0.156909247594385
574,0.158222389755277
575,0.1563682293996
576,0.157269779812507
577,0.158171330225415
578,0.159072880638323
579,0.159974431051231
580,0.160875981464139
581,0.163270491403314
582,0.16284793600591
583,0.164450793005681
584,0.162630242154925
585,0.162374958968471
586,0.159096756611873
587,0.157745941623059
588,0.156780090983273
589,0.155814240343486
590,0.1548483897037
591,0.155888800070708
592,0.157041212404714
593,0.157245606782058
594,0.159254344021018
595,0.158965446851881
596,0.159531376738431
597,0.160070303662719
598,0.159481608835862
599,0.159462717240953
600,0.160303656873923
601,0.161286872719833
602,0.162082000522177
603,0.161543852964641
604,0.163395233167419
605,0.162657598578433
606,0.16292086234366
607,0.162321623266074
608,0.160953403323915
609,0.161038202805643
610,0.160300379631806
611,0.159826993182404
612,0.158732248473483
613,0.158249865379618
614,0.157014800492987
615,0.159799740773516
616,0.157610221177979
617,0.159632976350782
618,0.159441765851358
619,0.160276301061975
620,0.15977249975366
621,0.161057217685577
622,0.15821605160136
623,0.158074791811518
624,0.156939709529635
625,0.155804627247752
626,0.154669544965869
627,0.154552283644161
628,0.154195665157065
629,0.154209622959182
630,0.155764065203688
631,0.154286618744442
632,0.156074191621225
633,0.157161377400906
634,0.158237440293112
635,0.159602145495628
636,0.158325780498569
637,0.160402415786774
638,0.159773763188014
639,0.160798448395583
640,0.160425725329634
641,0.160536150290035
642,0.160102243719785
643,0.159889004038679
644,0.159675764357572
645,0.159462524676466
646,0.160630647070038
647,0.161083500874113
648,0.15842961389924
649,0.161280970839699
650,0.15981512152268
651,0.161017766693981
652,0.159553246238875
653,0.156785981182696
654,0.154291214849095
655,0.155936889954087
656,0.154364431495858
657,0.156035594053515
658,0.157822696524176
659,0.161895120885403
660,0.163218221734435
661,0.16371838995979
662,0.164491528748681
663,0.164156752969057
664,0.163136686282537
665,0.163705629096329
666,0.164483356767366
667,0.164662410106504
668,0.165180523761954
669,0.16263877522102
670,0.163591566552643
671,0.163526077316095
672,0.162984938167999
673,0.163924633767591
674,0.164325846804215
675,0.164231900942016
676,0.164078761625862
677,0.165488168305375
678,0.16386698263882
679,0.164068294410699
680,0.167277247438468
681,0.164722955183772
682,0.160406925422788
683,0.156476565336741
684,0.149720506194252
685,0.143658551686147
686,0.138945528689291
687,0.135118933435896
688,0.135002796577866
689,0.137177772577214
690,0.140903719694716
691,0.146148244533201
692,0.148344717627473
693,0.150801865334246
694,0.153380459864332
695,0.153957988885766
696,0.155980406136407
697,0.156729427524283
698,0.154693264015937
699,0.154733760784044
700,0.157121368171118
701,0.155787618401669
702,0.15757911638679
703,0.15725309139555
704,0.15957502567022
705,0.159022106146991
706,0.160770116951283
707,0.161787881355135
708,0.160928829205514
709,0.162541315753745
710,0.160642236252123
711,0.160291631920128
712,0.16041004986492
713,0.155054908780191
714,0.153358418990499
715,0.146976788125193
716,0.141893893163639
717,0.13860244670605
718,0.137099001050822
719,0.138063488141873
720,0.138731657842813
721,0.137090708813634
722,0.140480157797891
723,0.139804490374228
724,0.139129851845473
725,0.139608825314586
726,0.138672125167225
727,0.140356306769369
728,0.141047481275038
729,0.143503532105852
730,0.145076507485634
731,0.147598338143038
732,0.150273782264085
733,0.15309715108574
734,0.154302801733708
735,0.154252929415922
736,0.155823979499209
737,0.155810451073987
738,0.155796922648766
739,0.155783394223545
740,0.15742967609716
741,0.157415206253566
742,0.157921458629709
743,0.158427711005852
744,0.158933963381994
745,0.158915648814653
746,0.158312224146991
747,0.158651225325903
748,0.156786870612226
749,0.157568920274614
750,0.157317385200509
751,0.156351899884443
752,0.158186951813595
753,0.156966257509392
754,0.153945325618993
755,0.141706827312687
756,0.12946832900638
757,0.117229830700073
758,0.0986487736645166
759,0.0815713155794505
760,0.0707129674985564
761,0.0685634550448789
762,0.0718272493521576
763,0.0803460674197223
764,0.0923767028049405
765,0.104245182837518
766,0.117595870619829
767,0.130301582672944
768,0.137645672732297
769,0.14335732301658
770,0.14765898638505
771,0.149323101872682
772,0.151042033203787
773,0.153479080355859
774,0.152684689113207
775,0.152891413741753
776,0.153254942833109
777,0.151669512692651
778,0.153904647657298
779,0.152098584001293
780,0.154448404849207
