"wavelength","measurement"
380,0.0167133042740971
381,0.0163486127946768
382,0.0162412282029348
383,0.0162057321012407
384,0.0163191821858479
385,0.0173067260901425
386,0.0183641633991924
387,0.0190745546477041
388,0.0200175110001124
389,0.0205168914948736
390,0.020418485598499
391,0.0203827025931542
392,0.0206263113521023
393,0.0208972929053515
394,0.0215152681407773
395,0.0234944313525125
396,0.0262702011090367
397,0.0293695108123811
398,0.0324688205157256
399,0.03556813021907
400,0.036910581746409
401,0.0390196936931434
402,0.0405679356803157
403,0.0410431123793132
404,0.0413298813831003
405,0.041483599475273
406,0.0425164758025503
407,0.0428436131894213
408,0.0434263442890571
409,0.0444972300027212
410,0.0466020873994831
411,0.0467523671364645
412,0.0481084510691114
413,0.0488352064235514
414,0.0487016220328063
415,0.0489288350164894
416,0.048351777998554
417,0.0480070512537719
418,0.0484868332637119
419,0.0476956127177616
420,0.0486523907660323
421,0.0484839177343485
422,0.0488769893639898
423,0.0489885362758092
424,0.0490633789613604
425,0.047958100902028
426,0.0472242069517451
427,0.0457397101745472
428,0.0444233411274619
429,0.0444005956830693
430,0.0448758458975385
431,0.046448489126489
432,0.048155040366191
433,0.0499331666749115
434,0.0518494341448628
435,0.0526930130835317
436,0.0532866902328775
437,0.0540414170847508
438,0.0547961439366241
439,0.0555508707884974
440,0.0559182962982582
441,0.0569263013237483
442,0.0580039157128725
443,0.0585060340667463
444,0.0594824634163107
445,0.0604588927658751
446,0.0614353221154395
447,0.062280765876831
448,0.0624105379372437
449,0.0646805944130199
450,0.064004134621231
451,0.0634016323519987
452,0.063207302780649
453,0.0630129732092993
454,0.0628186436379496
455,0.0627551683669552
456,0.0631000862676228
457,0.0637613099289608
458,0.0641065379848051
459,0.065129871126971
460,0.0651098478613927
461,0.0644561289113818
462,0.0661243714861849
463,0.0641146907526159
464,0.0633883324182913
465,0.0628936388659625
466,0.0620513653873407
467,0.0620699493777484
468,0.0616985114783729
469,0.0615522859910797
470,0.0627471862946013
471,0.0627759571260406
472,0.0632496918742266
473,0.0639486976808596
474,0.0640128542234216
475,0.0649302631777156
476,0.0634870330209985
477,0.063503651136622
478,0.0635202692522456
479,0.0635368873678691
480,0.0632799017134224
481,0.0616068282354727
482,0.0605840967580473
483,0.0603127374071193
484,0.0592541387963805
485,0.0579606426319034
486,0.0588238593050832
487,0.059527491912622
488,0.0602253871399482
489,0.0618297945167976
490,0.0621801411943044
491,0.062542838064251
492,0.0639161218097881
493,0.0630291498347346
494,0.0639559873504908
495,0.0628101257161638
496,0.0630543698033937
497,0.0618484836772525
498,0.0620775878419004
499,0.0607035924156248
500,0.061038671232631
501,0.0606383089169638
502,0.0616569939460295
503,0.0620373984009701
504,0.0612771528035108
505,0.0630650284980513
506,0.0625947403874503
507,0.062836654853676
508,0.0630309404561245
509,0.0628127733009481
510,0.0616204749500069
511,0.0622710805463351
512,0.061424754864358
513,0.0595697580052587
514,0.0591056605675764
515,0.0580154599619406
516,0.057698689968899
517,0.0576414100164144
518,0.0573462477613536
519,0.0585776402100897
520,0.0595092419694678
521,0.0599075991727287
522,0.0603059563759896
523,0.0607043135792506
524,0.0600789358830297
525,0.0601342769695936
526,0.0600463520672669
527,0.0596291578235049
528,0.0598770702514551
529,0.0605034624346215
530,0.0603121621359826
531,0.0602470522653375
532,0.0599932888126472
533,0.0605115783589586
534,0.0605838328895246
535,0.0599326263001393
536,0.0605960436746596
537,0.0598883245565229
538,0.0594687279616391
539,0.059031054890088
540,0.0593223272086397
541,0.0588223958362643
542,0.0584343069796035
543,0.0587507390322485
544,0.0589208721891355
545,0.0583945946792312
546,0.0587733900374428
547,0.0586263632041347
548,0.0584793363708266
549,0.0583323095375185
550,0.0581598193665766
551,0.0584358912215397
552,0.0588865062561025
553,0.0582650548925128
554,0.0579733730590316
555,0.0585714166667234
556,0.0575772235530458
557,0.0573941070034784
558,0.0570235255004152
559,0.05647374227446
560,0.0571591719374472
561,0.055992203928758
562,0.0567954336649176
563,0.0558277555519492
564,0.0559872715228706
565,0.0551728986644252
566,0.0547478405416995
567,0.0539752118635776
568,0.0544592117846082
569,0.0536405387829573
570,0.0536413329324054
571,0.0536743976464376
572,0.0537595785722217
573,0.0535792043567501
574,0.0539023115918336
575,0.0531785094564696
576,0.0534941366124188
577,0.053809763768368
578,0.0541253909243172
579,0.0544410180802663
580,0.0547566452362155
581,0.0554825213172125
582,0.0552921370554475
583,0.0556535221401605
584,0.0549090260006216
585,0.0548191314083614
586,0.0534069052815483
587,0.0529518427539387
588,0.0526219302620825
589,0.0522920177702264
590,0.0519621052783702
591,0.0523378582259026
592,0.0527948475152755
593,0.0527386690156122
594,0.0533155461917187
595,0.053097102368923
596,0.0533125217376806
597,0.0534474015518927
598,0.0532623427486761
599,0.0531455013440092
600,0.0535312390943007
601,0.0538012241019987
602,0.0540401017424633
603,0.0537578280656382
604,0.0541920721070838
605,0.0540203450711895
606,0.0539030652134327
607,0.0537201461646016
608,0.0530227476344812
609,0.0530351595618079
610,0.0528449175878738
611,0.0524970569552838
612,0.0520396516344746
613,0.0518469099222529
614,0.0515226611228263
615,0.0523151303348004
616,0.0515574789457507
617,0.0522075722373477
618,0.0521194076536021
619,0.0522542577172664
620,0.0520325138300141
621,0.0523469119866946
622,0.051276073325866
623,0.0512460311671325
624,0.0508114849526017
625,0.050376938738071
626,0.0499423925235403
627,0.0496839453323891
628,0.0496779293763881
629,0.0495953362699093
630,0.0502697363791291
631,0.0495466701971772
632,0.0501580487694491
633,0.0506044483073402
634,0.0506929186671377
635,0.0510184473025994
636,0.0507115827181811
637,0.0513101980664791
638,0.0510367846173911
639,0.0512981963830793
640,0.0512118040105599
641,0.0510998823268795
642,0.0509734536366422
643,0.050812627096515
644,0.0506518005563879
645,0.0504909740162608
646,0.0507930663572436
647,0.0508479406703025
648,0.0500688635245749
649,0.0509247669950992
650,0.0503877494300332
651,0.0506639172977007
652,0.0500816889712018
653,0.0491258260393138
654,0.0484950669200114
655,0.0489175759074786
656,0.0484483552718426
657,0.049181425012472
658,0.0498263979090253
659,0.0509608725896955
660,0.0511495695090725
661,0.0512900351267318
662,0.051379444049945
663,0.0511588235029685
664,0.0507748183830826
665,0.0509253449157673
666,0.0510762643994815
667,0.0511410771753726
668,0.0513350715299647
669,0.050298071341468
670,0.0507010948147367
671,0.0505771008316995
672,0.0504710160099789
673,0.0505848873527732
674,0.0508104575490417
675,0.050759719163036
676,0.0507399900251825
677,0.0510887422447423
678,0.0506387625289595
679,0.0506520941056393
680,0.0516331363515788
681,0.0506380006622031
682,0.0490501399894059
683,0.0477182065797889
684,0.0453175178065446
685,0.0435112025776648
686,0.0420572603225431
687,0.0414720011826401
688,0.0418452335629524
689,0.0427150612012185
690,0.0441333036999215
691,0.0458242489924409
692,0.046703332795439
693,0.0475177869354477
694,0.0484385559972323
695,0.0486806036734661
696,0.0494280899824628
697,0.0498283527138964
698,0.0492180599270735
699,0.0495988582386057
700,0.0505006369319704
701,0.0503435213754706
702,0.0513827657225891
703,0.0514334860069531
704,0.0523804019576678
705,0.0521151967354448
706,0.0531681288662755
707,0.0537179847414328
708,0.0537164465520357
709,0.0543336551859479
710,0.0538606302191053
711,0.0539116939299456
712,0.0540290736984909
713,0.0522762164909507
714,0.0515269681043599
715,0.0496554846247805
716,0.0481546022764974
717,0.0474052704593671
718,0.0473220829210508
719,0.0482498442875078
720,0.048613074121992
721,0.0482565436940313
722,0.0495720937377332
723,0.0493982532360914
724,0.0495019463243215
725,0.0497883699910185
726,0.0497217847163908
727,0.0505397849518106
728,0.0512230167069676
729,0.0523004200996645
730,0.0530585271454274
731,0.0542779989079899
732,0.0553185320355065
733,0.0565685605588664
734,0.0569765327706562
735,0.0570156389067131
736,0.0577878098713036
737,0.0579287482146857
738,0.0580696865580678
739,0.0582106249014499
740,0.0588985932769546
741,0.0590568100112477
742,0.0593003921337614
743,0.0595439742562751
744,0.0597875563787888
745,0.0598812634796912
746,0.0597323880195701
747,0.0599963337611885
748,0.0592900164279087
749,0.0595886533551805
750,0.0594620426238003
751,0.0594993219079782
752,0.0601573836198
753,0.0595582142293001
754,0.0578293995581539
755,0.0525844861456358
756,0.0473395727331176
757,0.0420946593205995
758,0.0348325874327412
759,0.0287271453953419
760,0.0260395339197813
761,0.0263028984491958
762,0.0282596790425448
763,0.0323294326348296
764,0.0370718358423313
765,0.0418594432113756
766,0.0467055120572983
767,0.0510166759014685
768,0.0536140931646283
769,0.0554561457104876
770,0.0566355498358376
771,0.0573562578236791
772,0.0578604432395043
773,0.0586440489428255
774,0.0584538753752888
775,0.0584380391414708
776,0.0588290685220161
777,0.0580561085058048
778,0.0586939961474489
779,0.0582302192770328
780,0.0590904840200944
