"wavelength","measurement"
380,0.117477378460751
381,0.114692372011286
382,0.112705748851778
383,0.111443659295843
384,0.114464945505103
385,0.11865406750775
386,0.125024365460199
387,0.1299008730844
388,0.135074486244577
389,0.139266266460643
390,0.137455884802926
391,0.137037434925247
392,0.138175328646186
393,0.138398385276946
394,0.142074430392979
395,0.152000445086248
396,0.167732878036578
397,0.184558808056837
398,0.201384738077097
399,0.218210668097356
400,0.225376725150464
401,0.237790573036145
402,0.24524466417196
403,0.244736588607147
404,0.24538926766179
405,0.244282669355492
406,0.247262629060299
407,0.248803114496968
408,0.249962824972101
409,0.253755360132057
410,0.265132568255803
411,0.26652137479443
412,0.272361959032503
413,0.276210450852238
414,0.275264857757354
415,0.277379527081469
416,0.276055202752493
417,0.2713913342413
418,0.276060528937546
419,0.274351632426416
420,0.278092148853026
421,0.27819964120519
422,0.280281385800123
423,0.283415880039723
424,0.284799628068834
425,0.279615864604723
426,0.276985384405031
427,0.269430604878618
428,0.263012070184793
429,0.262828678002664
430,0.264462435687406
431,0.277112371584067
432,0.286433342152839
433,0.296968553743582
434,0.310644796626755
435,0.316820859356172
436,0.322990307417018
437,0.328198622314221
438,0.333406937211425
439,0.338615252108628
440,0.343910690808226
441,0.351261444683428
442,0.359221797376281
443,0.363905316259135
444,0.371005397247553
445,0.37810547823597
446,0.385205559224388
447,0.392675831571625
448,0.395870955767898
449,0.410568065112811
450,0.408763843000104
451,0.40844518043111
452,0.408017283771333
453,0.407589387111555
454,0.407161490451778
455,0.410489739371672
456,0.412714100186254
457,0.417475768875735
458,0.421924821076226
459,0.427824482277649
460,0.430683818533436
461,0.427108737925499
462,0.439557134809168
463,0.427715107488907
464,0.424987847647828
465,0.420985703464153
466,0.419823918934424
467,0.417778214297467
468,0.415701674511213
469,0.414083603684269
470,0.42450921382979
471,0.424856776656618
472,0.427922321966881
473,0.434606990474127
474,0.436000499349389
475,0.442945189007725
476,0.435590865553236
477,0.436015593182343
478,0.436440320811449
479,0.436865048440555
480,0.435147868337399
481,0.426575046646018
482,0.418588768425697
483,0.418459635696541
484,0.410157201913137
485,0.403926274243292
486,0.410190178286358
487,0.414932223366899
488,0.421398217445585
489,0.431534380552295
490,0.435920251977248
491,0.440767221712656
492,0.45237367332884
493,0.44738767431396
494,0.455391603859811
495,0.449072227856089
496,0.45222569254752
497,0.444755795025806
498,0.447522901416431
499,0.439020328771683
500,0.44260188440247
501,0.439999183083227
502,0.449115331667128
503,0.452290025679351
504,0.447987852971973
505,0.46242070180816
506,0.460291045279979
507,0.462413429153197
508,0.466318107350929
509,0.465348112141272
510,0.457913688273452
511,0.463655677622432
512,0.458959582656662
513,0.445079937998487
514,0.443375111510515
515,0.43674240682586
516,0.433757892818988
517,0.434933571653467
518,0.433805639743156
519,0.443923531144773
520,0.450998733789956
521,0.455090922453168
522,0.459183111116381
523,0.463275299779593
524,0.461318657576112
525,0.461384352962987
526,0.462314023006349
527,0.459268469922424
528,0.462997953655068
529,0.467318316239739
530,0.466992565442222
531,0.468230399179265
532,0.46660226783062
533,0.471134718572695
534,0.474477673944133
535,0.468681649510847
536,0.473031224374344
537,0.470891179445867
538,0.467450774846958
539,0.465855859081748
540,0.468800302204017
541,0.465136609196635
542,0.462517773165064
543,0.465237223246771
544,0.468486185958507
545,0.464009299081976
546,0.468383612846713
547,0.467890922085483
548,0.467398231324254
549,0.466905540563024
550,0.46633847992463
551,0.469015035831944
552,0.474243924453246
553,0.469062579190119
554,0.468241085258625
555,0.473675618526478
556,0.467349410091887
557,0.46772203362895
558,0.465516553139995
559,0.462470174656011
560,0.467968771808218
561,0.45892710829824
562,0.467640383368835
563,0.460471293473287
564,0.462742198980132
565,0.457054071237597
566,0.45469665590087
567,0.449735069557146
568,0.453684419019791
569,0.450094519224131
570,0.449958032499446
571,0.451014993644688
572,0.451922016024699
573,0.451459851445306
574,0.455159039311479
575,0.449990129904044
576,0.452847239661517
577,0.45570434941899
578,0.458561459176462
579,0.461418568933935
580,0.464275678691408
581,0.470593863806036
582,0.46990920897956
583,0.474073296958251
584,0.466813227488512
585,0.468612831436583
586,0.458037713336859
587,0.453862948858967
588,0.451414380787496
589,0.448965812716025
590,0.446517244644554
591,0.449473058256166
592,0.451901146990231
593,0.452431761793272
594,0.459398767910433
595,0.456910067243639
596,0.460057981908503
597,0.461179305041885
598,0.459707771907925
599,0.460162452326028
600,0.463045015282864
601,0.466475841998366
602,0.468559412943859
603,0.466177122152693
604,0.471544845237282
605,0.468443500695314
606,0.469286471164626
607,0.467931036196746
608,0.464699608156944
609,0.464206688716951
610,0.462757833621734
611,0.460343298082682
612,0.456933262077097
613,0.455264020072992
614,0.45277087535031
615,0.460797351153874
616,0.456017326003918
617,0.461335368150278
618,0.459706587058922
619,0.462433297471432
620,0.460085018512994
621,0.464659636960507
622,0.4552507672642
623,0.454438825262892
624,0.4512347326406
625,0.448030640018308
626,0.444826547396016
627,0.444011257237177
628,0.443413523031851
629,0.443571943614581
630,0.448864821920583
631,0.444659503631923
632,0.449808110367898
633,0.452876876938401
634,0.45703834808934
635,0.459682141369315
636,0.457516363181316
637,0.462868746966502
638,0.460354254263679
639,0.463615564441534
640,0.462850108006416
641,0.463265765708922
642,0.462365365971383
643,0.461310185417579
644,0.460255004863774
645,0.45919982430997
646,0.463655412299016
647,0.464262828090793
648,0.458491730208651
649,0.465069991956522
650,0.460312227059257
651,0.463211090589072
652,0.458510444902203
653,0.450174531630092
654,0.445702727423061
655,0.44899684747943
656,0.445990926439261
657,0.453127049689581
658,0.456787724490601
659,0.467024937131422
660,0.471267446053738
661,0.473572674635895
662,0.474772348313734
663,0.473619978082336
664,0.469938478743982
665,0.471873292146022
666,0.473395758168785
667,0.474524902554136
668,0.477277055945877
669,0.470778670503541
670,0.472757257074392
671,0.4721311406734
672,0.470492057746899
673,0.47324727750635
674,0.474137557957834
675,0.474058427050439
676,0.47399238331034
677,0.478112044939961
678,0.473490922601229
679,0.473992426464474
680,0.48342496420886
681,0.476306071281783
682,0.459986680320288
683,0.447116181897796
684,0.427701356277483
685,0.411039854391925
686,0.397014822784518
687,0.389761350055954
688,0.390148326245217
689,0.396234085347099
690,0.407204769715281
691,0.421401179262307
692,0.429292585200485
693,0.435203871924716
694,0.443083492518156
695,0.444803014754828
696,0.448683468813736
697,0.45056406993696
698,0.445593108197834
699,0.446905503263524
700,0.451946705633542
701,0.448527516124295
702,0.455358038233713
703,0.453850946446588
704,0.459386557593662
705,0.457469234223707
706,0.463968550335258
707,0.467811353616962
708,0.465235251564014
709,0.46849700879853
710,0.46248376770843
711,0.46166250823406
712,0.46171514797051
713,0.443952295723365
714,0.438184064156493
715,0.420387532354699
716,0.40665354795418
717,0.398091325262401
718,0.395148696207846
719,0.396828855866161
720,0.399732095035552
721,0.39359618528561
722,0.403002273802693
723,0.400896108849238
724,0.399691735207887
725,0.400878941752351
726,0.398470716285987
727,0.403799799511365
728,0.406982980488096
729,0.413398486728197
730,0.41812322822002
731,0.426219131288611
732,0.432609275877678
733,0.440382238875224
734,0.4446015464171
735,0.443472332640307
736,0.448456866790894
737,0.448350850225221
738,0.448244833659549
739,0.448138817093877
740,0.453295043844014
741,0.454883726382881
742,0.455899961421845
743,0.456916196460809
744,0.457932431499773
745,0.457905476344511
746,0.456275305290261
747,0.457380522329892
748,0.451896293765499
749,0.454551635831985
750,0.454420430514268
751,0.451106748373161
752,0.458767231064751
753,0.451551074966544
754,0.438993823522379
755,0.401740183899655
756,0.364486544276932
757,0.327232904654208
758,0.273834173908923
759,0.229460274171515
760,0.204124888552628
761,0.202863686214178
762,0.211828452069023
763,0.239856271837337
764,0.272410358010058
765,0.304784629323965
766,0.343726506844567
767,0.377256532532315
768,0.398538313555008
769,0.41434564130782
770,0.42551669879867
771,0.431838527710521
772,0.435928365662367
773,0.444234608965712
774,0.441120473640885
775,0.442257602112769
776,0.441825047850345
777,0.437890132372708
778,0.44463114005086
779,0.43898000482705
780,0.446689471296074
