"wavelength","measurement"
380,0.0102176854606847
381,0.0097952312954538
382,0.00960963879924209
383,0.00937646300282032
384,0.00936842630802948
385,0.00983154524890439
386,0.0102238701146873
387,0.010605732606793
388,0.0109357685230758
389,0.01124144339549
390,0.0110637015547954
391,0.0109278290505455
392,0.0109118018640082
393,0.0108799797463029
394,0.0110772290725088
395,0.0116290275055777
396,0.0127981340375111
397,0.0140429534686188
398,0.0152877728997265
399,0.0165325923308342
400,0.0171583575343061
401,0.0179701941283102
402,0.0185176257935407
403,0.0185253601935696
404,0.018408333895251
405,0.0182157864974328
406,0.0183432327440235
407,0.0183439717503998
408,0.0183360233156425
409,0.018553923431854
410,0.0192576469217281
411,0.0191370666905254
412,0.0195000794956381
413,0.0197395509967203
414,0.0195934386813427
415,0.0196741972530235
416,0.0193163404603357
417,0.0191180525987597
418,0.0192514578113963
419,0.018795825082179
420,0.0191307752134819
421,0.0190189252908685
422,0.0190777052607794
423,0.0191569352062888
424,0.0191106900047336
425,0.0187233835977487
426,0.0184548683913334
427,0.017879947993994
428,0.017297090833998
429,0.0172364553417475
430,0.0172923260373493
431,0.0178617331662591
432,0.0184822886290565
433,0.0190528210275956
434,0.0198644932800232
435,0.0202287627434409
436,0.0203704972269761
437,0.0206571684721188
438,0.0209438397172615
439,0.0212305109624042
440,0.0213457560940393
441,0.021723854961603
442,0.0221288554750202
443,0.0223469575441026
444,0.0226738401536289
445,0.0230007227631552
446,0.0233276053726814
447,0.0236936907162323
448,0.0237432924034335
449,0.0246003440382189
450,0.0244723429373718
451,0.0242371847992193
452,0.0241608427899364
453,0.0240845007806536
454,0.0240081587713707
455,0.0239698204459247
456,0.0240324341513834
457,0.0242905735912497
458,0.0243932776198093
459,0.0247649678011994
460,0.0248130408277785
461,0.0245109168431203
462,0.0251450501631046
463,0.024403994758841
464,0.0241211121054912
465,0.0238564799350245
466,0.0235653067051081
467,0.023471160204475
468,0.0232246716210369
469,0.0230276319407752
470,0.0235158053661778
471,0.0234543891673868
472,0.0236091377827464
473,0.0238738619087394
474,0.0238816028045262
475,0.0241720242813288
476,0.0236181393973879
477,0.02359064164081
478,0.023563143884232
479,0.0235356461276541
480,0.0234509140553598
481,0.0228043929991541
482,0.0223909084072524
483,0.0223479023418652
484,0.0218094487420462
485,0.0213722718592653
486,0.0215902438468359
487,0.0217814839228835
488,0.0220119843781382
489,0.0225782364676816
490,0.0227550683784185
491,0.0229162253940071
492,0.023442444158406
493,0.0231451386442285
494,0.0234896156131232
495,0.023143364116382
496,0.0232442829876259
497,0.0227795153281455
498,0.0228980508021795
499,0.0223360013864858
500,0.0224780153292972
501,0.0222653178144033
502,0.0226312381067096
503,0.0227415655362398
504,0.0224922992633089
505,0.023199922207553
506,0.0230793761971092
507,0.0231535391357962
508,0.0233309111458371
509,0.0232928402271673
510,0.0229093624149512
511,0.0232413105804914
512,0.0230139365375532
513,0.0223698840900409
514,0.0222326760926614
515,0.0218617386618375
516,0.0217290246706948
517,0.0217172783182549
518,0.0216327359179332
519,0.0220392327178823
520,0.0224189542467844
521,0.022647694006765
522,0.0228764337667457
523,0.0231051735267264
524,0.0229359325996416
525,0.0229467146281575
526,0.0229879549977578
527,0.0228618699623584
528,0.0229773887612179
529,0.0232106239496616
530,0.0232040371391753
531,0.0232341252571433
532,0.0231626773494309
533,0.0233871904266658
534,0.0234654545537137
535,0.0231874710615711
536,0.02342161684906
537,0.0232710031292787
538,0.0230871957865202
539,0.0229355154569119
540,0.0230796198770731
541,0.0228710676203191
542,0.0227779366644998
543,0.0228432901817462
544,0.0229667708107749
545,0.022767041158622
546,0.0229892238733415
547,0.0229559323413803
548,0.0229226408094192
549,0.022889349277458
550,0.0228228749527904
551,0.0229629904129724
552,0.0231340095499574
553,0.0228929701001033
554,0.0228289744782536
555,0.0230801779213763
556,0.0227362741506105
557,0.0227150551776783
558,0.0225677856418445
559,0.0223877025327726
560,0.0226285650205107
561,0.0222167746255552
562,0.0225891334192684
563,0.022222166312196
564,0.0222977409990198
565,0.0219677065292835
566,0.0218030592327127
567,0.0214952957667567
568,0.0216535198880039
569,0.0213898409774272
570,0.0213136187917465
571,0.0213487678611324
572,0.0213318480348924
573,0.0213084831278879
574,0.0214214251739568
575,0.021190635409295
576,0.0212976950786257
577,0.0214047547479565
578,0.0215118144172872
579,0.021618874086618
580,0.0217259337559488
581,0.0220153575962699
582,0.0219243261776325
583,0.0220895233531173
584,0.0216918807988551
585,0.0215867591176581
586,0.0210117627924
587,0.0206356902920655
588,0.0203786330643288
589,0.0201215758365921
590,0.0198645186088554
591,0.0199514685375573
592,0.0201141473925418
593,0.0201971652363491
594,0.0204585830286275
595,0.0204739738602218
596,0.0206670950750378
597,0.0208019911764859
598,0.0208295023684035
599,0.020881969992791
600,0.0211153215074044
601,0.021277403601769
602,0.0214146770411867
603,0.0213434843221869
604,0.0215210140488189
605,0.0214342335769383
606,0.0214864370692079
607,0.0214156777350351
608,0.0211860056321474
609,0.0212240627523715
610,0.0211081320782619
611,0.0209721973829209
612,0.020842606174952
613,0.0207435864136176
614,0.0205239194105748
615,0.0208266543500868
616,0.0205695144686991
617,0.0207760991068548
618,0.02073743102263
619,0.0208240290210372
620,0.0207495128234229
621,0.0208750671939539
622,0.0204670975451326
623,0.0204328119377724
624,0.020244933539344
625,0.0200570551409157
626,0.0198691767424873
627,0.0198101672535193
628,0.0197385736706059
629,0.0197187883539581
630,0.0199569351111377
631,0.0197396844320092
632,0.0199140344978824
633,0.0201100252985508
634,0.020201899437871
635,0.0203246402552016
636,0.0201910781026625
637,0.0204571182461058
638,0.0203606335907837
639,0.0204809796916519
640,0.0204070377828341
641,0.0203587746232336
642,0.0202502851485115
643,0.0200882778396156
644,0.0199262705307196
645,0.0197642632218236
646,0.0198358779695198
647,0.0198041658747854
648,0.0194617053707322
649,0.0198031377485748
650,0.0196166173599879
651,0.0197946530156727
652,0.019625557754575
653,0.019336600718084
654,0.0190339604621965
655,0.019247271351184
656,0.0191448221991346
657,0.0193776564936396
658,0.0196326845170425
659,0.0201490389515183
660,0.0203282651247323
661,0.0204200685884806
662,0.0205270428014774
663,0.0204455055945075
664,0.0203222211138272
665,0.0203885270121905
666,0.0204309618046137
667,0.0205044293409321
668,0.0205324675960959
669,0.0201985528108708
670,0.0203329604474828
671,0.0202742606733958
672,0.0202175614972419
673,0.0202827474043779
674,0.0203811467639875
675,0.0203650636350342
676,0.0203392883659931
677,0.0205090468739149
678,0.020280692548739
679,0.0202939688286525
680,0.0207248241826831
681,0.0203848448574124
682,0.0198473410761564
683,0.0193963310017825
684,0.0185772248977009
685,0.0179097032186604
686,0.0173865985495818
687,0.0169869469742858
688,0.0169119278926487
689,0.0170640739130854
690,0.0174259555544796
691,0.0179221360817583
692,0.0181595311861444
693,0.0184488125642825
694,0.018874579363653
695,0.0190015600142894
696,0.0193950145599882
697,0.0195344992276904
698,0.0193430920309546
699,0.0195285228696849
700,0.0199188726416315
701,0.019896530974653
702,0.0203176058133242
703,0.0204628547124024
704,0.0209440324382359
705,0.0210415565775478
706,0.0214478635837202
707,0.0217670571424038
708,0.021860520932687
709,0.0222299599160829
710,0.0220382999504037
711,0.0220855999064416
712,0.0220413780958285
713,0.0211276913925328
714,0.0205938602805687
715,0.0194485571098921
716,0.0184710905831798
717,0.0178887714322412
718,0.0176859488912448
719,0.0178797912083517
720,0.0181027966111637
721,0.018009285193915
722,0.0184594990780846
723,0.0183935171332388
724,0.0183330838170859
725,0.0184316248787308
726,0.0184224784029083
727,0.0187458452619392
728,0.019111819980828
729,0.0196428944817794
730,0.0202352334313537
731,0.0210189015524335
732,0.0217060298501636
733,0.0224478655324107
734,0.0228837885141075
735,0.0231701437228053
736,0.0236021726457992
737,0.0238574214922496
738,0.0241126703386999
739,0.0243679191851503
740,0.0248605183667337
741,0.0250491973945465
742,0.025251178106637
743,0.0254531588187275
744,0.0256551395308181
745,0.0257304692980595
746,0.0257332543327113
747,0.025891769653573
748,0.0255865619017452
749,0.0257807981447087
750,0.0257675134889027
751,0.0257098562965272
752,0.0260857182393566
753,0.0257799173148304
754,0.0252882390603115
755,0.0233308619948414
756,0.0213734849293714
757,0.0194161078639014
758,0.0164648428112274
759,0.0138061677404905
760,0.0122390789763241
761,0.0118567350536492
762,0.0123191749567113
763,0.0135893652790322
764,0.0154639230458858
765,0.0173149050444803
766,0.0194567224326822
767,0.0215328616408242
768,0.0227605852171391
769,0.0237188497309626
770,0.0245081668389575
771,0.0248668093371087
772,0.0252064297721214
773,0.0256012144627954
774,0.025474383667825
775,0.0255920748496361
776,0.0256926864239602
777,0.0254508717022096
778,0.0257556410730222
779,0.0255309294319893
780,0.0258750857568964
