"wavelength","measurement"
380,0.0107270847234373
381,0.0103003777984926
382,0.0101613385197495
383,0.00999456157385273
384,0.0100553447437784
385,0.0105295505654361
386,0.0109848279015902
387,0.0114976055187526
388,0.0119898855655847
389,0.0122859541482721
390,0.0121468118324023
391,0.0121189965724765
392,0.0121865380971963
393,0.0122540106551979
394,0.0125750587960068
395,0.0133343090429142
396,0.0147957164447149
397,0.0163924969819474
398,0.01798927751918
399,0.0195860580564126
400,0.0204175664876056
401,0.0215342203250156
402,0.0222433084480388
403,0.0224354164973018
404,0.0224031144323247
405,0.022242374790365
406,0.0225951683886981
407,0.0226380470412817
408,0.0226936756292945
409,0.0230267872331599
410,0.0239182269401971
411,0.023848579993797
412,0.0244082257436478
413,0.0247207728132313
414,0.0245832583759783
415,0.0246956264759968
416,0.0243217763501868
417,0.0240469640025104
418,0.0243270670161791
419,0.0237720173127135
420,0.0241793506758754
421,0.0240701610335149
422,0.0241878724085252
423,0.0243366927496527
424,0.0243063672493061
425,0.0237885663644175
426,0.0235109574436525
427,0.0228296853494177
428,0.0221044124003554
429,0.0220246724863765
430,0.0220839609982617
431,0.0229320581525895
432,0.0237293062558986
433,0.0244799546385527
434,0.0255783722037238
435,0.0260621482141368
436,0.0262798258623427
437,0.0266834147408854
438,0.027087003619428
439,0.0274905924979707
440,0.027662969096011
441,0.0281297446440535
442,0.0287015736296952
443,0.0290040183912057
444,0.0294722565451523
445,0.0299404946990988
446,0.0304087328530454
447,0.0308845334541117
448,0.0310018250074812
449,0.0321443328761238
450,0.0319394244308992
451,0.0316845508848191
452,0.0315969437366091
453,0.0315093365883991
454,0.0314217294401891
455,0.0314596086530918
456,0.0315304306324539
457,0.0318746388553888
458,0.0320275744311736
459,0.0325677280992224
460,0.0325484733966673
461,0.0322362657777054
462,0.0330177294518593
463,0.0321058582383776
464,0.0317199798208637
465,0.0314354016261134
466,0.0310616706819766
467,0.0309478833246303
468,0.0306555983507586
469,0.030449723375544
470,0.031085721136166
471,0.0310113032556088
472,0.0312407050249586
473,0.0315958694956926
474,0.0316407426549921
475,0.0320124511641435
476,0.0312983377330734
477,0.031276671170475
478,0.0312550046078767
479,0.0312333380452784
480,0.0311128078945771
481,0.0302861776937606
482,0.0297760388178362
483,0.0296137005221606
484,0.0289506492345594
485,0.0284062448014233
486,0.0287454941269306
487,0.0289880942421187
488,0.0293196035241451
489,0.0300303108961477
490,0.0302569263803281
491,0.030466346000954
492,0.031175570190872
493,0.0307810111570747
494,0.0312563235651352
495,0.0307683399362089
496,0.0309111788949233
497,0.0303397196188478
498,0.0304962750839082
499,0.0298045215150236
500,0.0299934072219244
501,0.0297555056844478
502,0.0302374348176019
503,0.0303758146040405
504,0.0300269605598446
505,0.0309455613890167
506,0.0307822570578347
507,0.0308766164529582
508,0.0310840143781932
509,0.0310492353149601
510,0.0305346225160832
511,0.0309000605644191
512,0.0306166197725223
513,0.0297592646991461
514,0.029621856773648
515,0.0291347871676215
516,0.0289672931630144
517,0.0289440591877613
518,0.0288182389130355
519,0.029356066021939
520,0.0298419726498862
521,0.0300924566857915
522,0.0303429407216969
523,0.0305934247576022
524,0.030413582314579
525,0.0304324004166155
526,0.0304759117426257
527,0.0302902548705152
528,0.0304339945662465
529,0.0307169776895722
530,0.0307474096841505
531,0.0307498120047532
532,0.0306558230765133
533,0.0309495372148626
534,0.0309758301374526
535,0.0306977772943343
536,0.0309920170511906
537,0.0307979469323292
538,0.0305802261356474
539,0.0304224081853316
540,0.0305821540818658
541,0.0303617057545708
542,0.0302267717162905
543,0.0303283382925739
544,0.0304324389901875
545,0.0302694314700071
546,0.0305014460515813
547,0.0304801618077266
548,0.0304588775638719
549,0.0304375933200171
550,0.0303151387164802
551,0.0305026633604916
552,0.0307957466521579
553,0.0304380893811746
554,0.0303805392293423
555,0.0307157501628157
556,0.0302649145915842
557,0.0302494278534231
558,0.0300787152855493
559,0.0298405125339609
560,0.0301962256869913
561,0.0296670632977157
562,0.0301468672454875
563,0.0296723702273652
564,0.0298551154754007
565,0.0294119286977234
566,0.029262885469614
567,0.0289112087210138
568,0.0291388885096085
569,0.0288243550890135
570,0.0287898421710169
571,0.0288283135471705
572,0.0288478901200219
573,0.0288088045130806
574,0.02898979505882
575,0.0286572457774184
576,0.0287898196250733
577,0.0289223934727281
578,0.0290549673203829
579,0.0291875411680378
580,0.0293201150156926
581,0.0296925950809583
582,0.0295760601394956
583,0.0297938435115352
584,0.0293054026733917
585,0.0292147413914204
586,0.0284289271476713
587,0.028042447875699
588,0.0277464369167202
589,0.0274504259577414
590,0.0271544149987626
591,0.0272802908557672
592,0.0275426281574935
593,0.027581175891996
594,0.0279523880346528
595,0.0279507279790863
596,0.0281802379350631
597,0.028315024911384
598,0.0282890796089952
599,0.0284024653742638
600,0.0286112609983476
601,0.0288486531658213
602,0.0289763387002066
603,0.0288598728226804
604,0.0291439621006696
605,0.0289640254592326
606,0.0290658522388902
607,0.0289235949570965
608,0.0286693981632097
609,0.0286823285440136
610,0.0285333234947617
611,0.0283391214620183
612,0.0281677944601581
613,0.0281205013615922
614,0.027852905922522
615,0.0282701392702261
616,0.0279407846567717
617,0.0282155275311519
618,0.0281778430292749
619,0.0282844335254145
620,0.0281965827514561
621,0.0283782720189129
622,0.0278588445820546
623,0.027827184502603
624,0.0276044230830827
625,0.0273816616635623
626,0.027158900244042
627,0.027085854058483
628,0.0270432312716835
629,0.0269713273066853
630,0.0272841297704446
631,0.0269762446574111
632,0.0272257880835577
633,0.0274190684629878
634,0.027535339156051
635,0.0277288845921218
636,0.02754850065977
637,0.0278845935124165
638,0.027758210389587
639,0.0279347563028677
640,0.027885013680921
641,0.0278208356743285
642,0.0277121943359203
643,0.0275292218419764
644,0.0273462493480326
645,0.0271632768540888
646,0.0272897110308558
647,0.0272644620777476
648,0.0268396655329249
649,0.027317171225906
650,0.027066953943277
651,0.0272516909660927
652,0.027052150275956
653,0.026647069460187
654,0.0261947231023624
655,0.0265061997681201
656,0.0263161316515102
657,0.0266667564979685
658,0.0269889854849583
659,0.0276886689954246
660,0.0279231128321666
661,0.0280484585743721
662,0.0281958187495424
663,0.0280880294310728
664,0.0279425892205004
665,0.0280480163182588
666,0.0281332480736841
667,0.028209082622387
668,0.0283116894896796
669,0.0277993610650661
670,0.0279820598598319
671,0.0279273800776878
672,0.0278712753841195
673,0.0279653159788912
674,0.0280599077567627
675,0.0280477336589974
676,0.0280325013545505
677,0.0282554671848049
678,0.0279778385540195
679,0.027938937359813
680,0.0285936717293054
681,0.0280802745351476
682,0.0273372170162083
683,0.0267392241912414
684,0.0256696603462415
685,0.0247850255383975
686,0.0240457620541574
687,0.0235659950016246
688,0.0234179101324583
689,0.0235638424137436
690,0.0240306420793282
691,0.0246890809450402
692,0.0249029547735478
693,0.0251841325108856
694,0.025647336491185
695,0.025700727326943
696,0.026137567785624
697,0.0262619689754808
698,0.0259027998338265
699,0.0260189697885967
700,0.0264675194905619
701,0.0263328657523225
702,0.0267506752243367
703,0.0268689905309051
704,0.0273450141305004
705,0.0273090326715537
706,0.0277427116706125
707,0.0280988552482164
708,0.0280731781843365
709,0.0283649763211403
710,0.0280756387651667
711,0.0280428529328564
712,0.0279398332113789
713,0.0267617749821483
714,0.0260388793726026
715,0.0246288380514149
716,0.0234487248938803
717,0.0226928594757498
718,0.0224085813666801
719,0.0225093359406227
720,0.0227486553136646
721,0.0225407290657047
722,0.0230355007346388
723,0.0228753265414548
724,0.0228126779627351
725,0.022846624740231
726,0.0227579547797615
727,0.0231192922543291
728,0.0234148378540508
729,0.0240589183546952
730,0.0246107007076446
731,0.0253848340028698
732,0.026120452404541
733,0.0268797917953431
734,0.0273860215427356
735,0.0275901238186287
736,0.0280560635195053
737,0.0282650990211439
738,0.0284741345227825
739,0.0286831700244212
740,0.02917198280952
741,0.0293763676874485
742,0.0295429386539742
743,0.0297095096204998
744,0.0298760805870254
745,0.0299420713606055
746,0.0299110549805385
747,0.0300135736079907
748,0.0297343559136494
749,0.0298695608223855
750,0.0298075901654135
751,0.0297061699182973
752,0.0301053278202789
753,0.0298194586744742
754,0.0292096971304665
755,0.0269852239978868
756,0.0247607508653071
757,0.0225362777327275
758,0.0191033942655295
759,0.0161731752482153
760,0.0144026634720005
761,0.0139968980878009
762,0.0145962116393948
763,0.0161286892958468
764,0.0182409020902438
765,0.0202950695213768
766,0.0226775854687858
767,0.0249824139799764
768,0.0263705281666931
769,0.0273476774537586
770,0.028139232095874
771,0.0285351195261323
772,0.0288991245731997
773,0.0293871722306278
774,0.0291989755931112
775,0.0293042839401325
776,0.029422166010141
777,0.0290683852108698
778,0.0295121916438025
779,0.0292194671957858
780,0.0295781882011718
