"wavelength","measurement"
380,0.001111498456869
381,0.00112442329845825
382,0.0011103099046131
383,0.001106262238866
384,0.00117637919829828
385,0.00127138124997411
386,0.00132403077098701
387,0.00143568128261745
388,0.00151170611127746
389,0.00155850114324316
390,0.00159970967548282
391,0.00161494460963334
392,0.00161687664712243
393,0.00170143596448505
394,0.00179478185569894
395,0.00189077726511238
396,0.00213004017435917
397,0.00238736096527771
398,0.00264468175619625
399,0.00290200254711478
400,0.00308817573561402
401,0.00334860572510655
402,0.00348606048013069
403,0.00360121473751532
404,0.00365633376066611
405,0.00368608182214094
406,0.00380856473475583
407,0.00390832889131436
408,0.00402170546387165
409,0.00413145699677764
410,0.00438073197225519
411,0.00448441533492879
412,0.00463907923036624
413,0.00478587200542554
414,0.00479329678900641
415,0.00490951279340458
416,0.00490908286155961
417,0.00490656160691183
418,0.00503548094283326
419,0.00493581316150845
420,0.0050589390022466
421,0.00508433300182358
422,0.00515763020759745
423,0.00523529901968146
424,0.00525639734382157
425,0.00519859268898342
426,0.00517141928799773
427,0.00502749219557591
428,0.0049437066963157
429,0.00495413952775462
430,0.00500205643830519
431,0.00519926440646039
432,0.00542117860732746
433,0.00565240724749378
434,0.00591646788800278
435,0.00605227030906838
436,0.00613464041647224
437,0.00624871573388168
438,0.00636279105129112
439,0.00647686636870055
440,0.00651907973690868
441,0.00669343993180834
442,0.00688188827307333
443,0.00696551492982578
444,0.00713583161889431
445,0.00730614830796284
446,0.00747646499703136
447,0.00762933482447862
448,0.00772967276037651
449,0.00800943823405377
450,0.00801898715010468
451,0.00797292672618048
452,0.00796417142364454
453,0.00795541612110861
454,0.00794666081857268
455,0.00798914341365223
456,0.00799426165312116
457,0.00808436019099799
458,0.00811679644409538
459,0.00827110770256626
460,0.0083060586680086
461,0.00823240702120094
462,0.00843198016062351
463,0.0082381616546098
464,0.00815282011136237
465,0.00814395558645349
466,0.0080175237606022
467,0.00805283411582315
468,0.00801381048226644
469,0.00793589298917262
470,0.0081090955335741
471,0.0081271239170185
472,0.0081811046385615
473,0.00829200891487309
474,0.00832948280795779
475,0.00848286411297422
476,0.00829504782770066
477,0.0083184496263167
478,0.00834185142493274
479,0.00836525322354878
480,0.00837260764923748
481,0.00818900414456477
482,0.00808773298308944
483,0.00808437327527113
484,0.00794250237020926
485,0.00779319077857037
486,0.00790203033530147
487,0.00798017048305106
488,0.00807300348737836
489,0.00828544405102245
490,0.0083834409843216
491,0.0084384251461176
492,0.00863298489896101
493,0.00854144962700142
494,0.0086866530602285
495,0.00860675666167752
496,0.0086344245296522
497,0.00849077522547073
498,0.00855004449884514
499,0.00836577941401703
500,0.00842373450770823
501,0.00836853034825197
502,0.00852342975914638
503,0.00859237873458609
504,0.00850041914994239
505,0.00880716090165515
506,0.00880096875500512
507,0.00885556344345089
508,0.00893395035872156
509,0.00895426638966404
510,0.00885590086207657
511,0.00902837418114174
512,0.00896138413540346
513,0.00875028881554228
514,0.00871992673816854
515,0.00860749068909789
516,0.00859716169494937
517,0.00859631148395594
518,0.00862093332395741
519,0.00880555274335537
520,0.00899879447891786
521,0.0091179279199593
522,0.00923706136100074
523,0.00935619480204219
524,0.00932752965538355
525,0.00937030782611665
526,0.00945000735843231
527,0.00939573599737935
528,0.00947877840478586
529,0.00964020286361601
530,0.0096600649332036
531,0.00966595248142895
532,0.00966992527952118
533,0.00976641658313967
534,0.00980581705991545
535,0.00970707376213087
536,0.00982775674539303
537,0.00984741023165451
538,0.009835419744627
539,0.00986921623357564
540,0.0100375985986856
541,0.0101027739277429
542,0.0101862059673347
543,0.0102793494997344
544,0.0103637325266624
545,0.0102267731415708
546,0.0102329626991091
547,0.0101281016855261
548,0.010023240671943
549,0.00991837965835999
550,0.00979937281837692
551,0.00983423831269937
552,0.00986747396934132
553,0.00976553570997882
554,0.00969328960852647
555,0.00975871831350875
556,0.00963042280627162
557,0.00958793806955261
558,0.00952302128868438
559,0.00943385770180229
560,0.00954480546760932
561,0.00938431714361851
562,0.00952186050123913
563,0.00938454145549981
564,0.00941682446100863
565,0.00925954450370027
566,0.00918628328494682
567,0.00906846480275055
568,0.00908500471980229
569,0.00897393789674314
570,0.0089468304768368
571,0.00898261510789546
572,0.00894424667667931
573,0.00893578959620088
574,0.00898977633113637
575,0.00888743912107159
576,0.00892363311328949
577,0.0089598271055074
578,0.0089960210977253
579,0.0090322150899432
580,0.0090684090821611
581,0.00918391239625869
582,0.0091188439159203
583,0.00916216625757883
584,0.00898262782410987
585,0.00888622512025779
586,0.00863137794659878
587,0.00844115919572595
588,0.00831213415724507
589,0.0081831091187642
590,0.00805408408028332
591,0.00807614614614713
592,0.00812882910781049
593,0.00814356769777309
594,0.00825428052798632
595,0.00821896995802344
596,0.00833878193821651
597,0.00837876983942584
598,0.00839472840389374
599,0.00842740797069742
600,0.00849644422421735
601,0.00853274536568474
602,0.00856866630669508
603,0.00854309007718045
604,0.00859946843368006
605,0.00856125029949576
606,0.00859636257390616
607,0.00865280331290786
608,0.00863010169135694
609,0.00872054417752378
610,0.00871097714308175
611,0.00868987199862954
612,0.00856862587660349
613,0.00844571546865311
614,0.00824076984170416
615,0.00823387764083782
616,0.00808233423392683
617,0.00812155039938249
618,0.00806591819655712
619,0.00808460021309424
620,0.00803718878690751
621,0.0080391611208186
622,0.00786453358646739
623,0.00780136021659966
624,0.00771455554504139
625,0.00762775087348311
626,0.00754094620192483
627,0.00750054719200352
628,0.00744015042151276
629,0.00742419965299267
630,0.0074754531579551
631,0.00734390353026206
632,0.00735302517952008
633,0.00737593491348508
634,0.00737860574126209
635,0.00738863398526838
636,0.0073342156965565
637,0.00733995104443459
638,0.00726568259663727
639,0.00730355055999473
640,0.00723155967765878
641,0.00718275076171082
642,0.00711911753308092
643,0.00701908630637052
644,0.00691905507966013
645,0.00681902385294974
646,0.00682204744957933
647,0.00674448945253108
648,0.00659754137612384
649,0.00674301794606797
650,0.00663049383484971
651,0.00666463365957332
652,0.00657929730551753
653,0.00643280299136919
654,0.00631128669506518
655,0.00635505189462951
656,0.00630173617929621
657,0.00636375886650633
658,0.00642440325412533
659,0.00657157699336663
660,0.00659610141103133
661,0.00663269765162947
662,0.00663477008812444
663,0.00658968721295052
664,0.00649392910040445
665,0.00650972057747494
666,0.00649816934409322
667,0.00652406205048538
668,0.00645951063513631
669,0.00634535675444615
670,0.00634596468057701
671,0.0062944357914652
672,0.00628043230965307
673,0.00627033492597708
674,0.00626826058990105
675,0.00622836393561875
676,0.00620254027262263
677,0.00623026026917865
678,0.00615408480426165
679,0.00610610885571976
680,0.00624037793314887
681,0.00613402402062098
682,0.00592760380388758
683,0.00580294606397433
684,0.00558577902709037
685,0.005397735913882
686,0.00525499339970292
687,0.00515634104803821
688,0.00510535505367515
689,0.00512605318878713
690,0.00520570688996169
691,0.00530502506890097
692,0.00534952745364156
693,0.00538110177947881
694,0.00551015889774016
695,0.00555615254246695
696,0.00567169140169512
697,0.00572585765132176
698,0.00565787090984017
699,0.0057167757106027
700,0.00583484087657629
701,0.00585086169945293
702,0.00597421433216207
703,0.00603318619714461
704,0.00622620833846922
705,0.00625136212704484
706,0.00639567138188424
707,0.00650555760737756
708,0.0065561988560395
709,0.00663057632382448
710,0.0065928482874494
711,0.00663901624113045
712,0.00659674343900358
713,0.00632025069652561
714,0.00609068908607897
715,0.00574774798106936
716,0.00542820710475772
717,0.00520643043468313
718,0.00515727330823815
719,0.00519229798281204
720,0.00527573710751
721,0.00521611931791356
722,0.00537646402848045
723,0.00536102602611746
724,0.00533053226222625
725,0.0053404250898242
726,0.00531867641611166
727,0.00543353264817819
728,0.00555331334709344
729,0.0056985540478829
730,0.00588118136945334
731,0.00616140519258942
732,0.00637202583475948
733,0.00656346924685488
734,0.00672163563524042
735,0.00680869966355835
736,0.00696475150533147
737,0.00702536293617944
738,0.00708597436702741
739,0.00714658579787538
740,0.00730311609086553
741,0.00735633435346677
742,0.00740250390129954
743,0.00744867344913231
744,0.00749484299696509
745,0.00751935746927141
746,0.0075024543522296
747,0.00749301527499859
748,0.00740046984133426
749,0.0074380271726941
750,0.00740757690638225
751,0.00734377882500049
752,0.00744510073924369
753,0.00725148476396005
754,0.00717967448206923
755,0.0066597639068233
756,0.00613985333157737
757,0.00561994275633144
758,0.00482530970358562
759,0.0041491842124687
760,0.00370449366020923
761,0.00360089491716586
762,0.00373214914529152
763,0.00405152025514726
764,0.00446972806625094
765,0.00488426810903186
766,0.00544943169192661
767,0.00591536493803603
768,0.00617194951303427
769,0.00638310278748922
770,0.00651790427753961
771,0.00656704976618055
772,0.00663452434291645
773,0.00672131610110172
774,0.00663489197010909
775,0.00662549114780306
776,0.00665189720971903
777,0.00653059210429262
778,0.00655413954140849
779,0.00650186527173864
780,0.00652665861641732
