"wavelength","measurement"
380,0.00042705437036143
381,0.000463512402148561
382,0.00043450373840562
383,0.000425324304666729
384,0.000432322211459467
385,0.000475153772986582
386,0.000482040121027674
387,0.00056373726683049
388,0.000591275740860945
389,0.000640559841242786
390,0.000610285574092698
391,0.000659918108753291
392,0.000677171183687554
393,0.00069074985775277
394,0.000731621120675901
395,0.000788933642292633
396,0.000899676545627859
397,0.00101620290319857
398,0.00113272926076928
399,0.00124925561833999
400,0.0013637026833402
401,0.00147804952016431
402,0.00157812843483675
403,0.00164366163118301
404,0.00170846038943597
405,0.00174584543978792
406,0.00181012215520589
407,0.00190669088752978
408,0.00196519279393817
409,0.00201759563147576
410,0.00217735068586923
411,0.00222503636509883
412,0.0022963148259633
413,0.00245879848875871
414,0.00245181826383011
415,0.00252617419320831
416,0.0025507042193038
417,0.00256772623148656
418,0.00262856289253454
419,0.00262067702027379
420,0.00271110124323638
421,0.0027290458570089
422,0.00276835234754449
423,0.00281947581962458
424,0.00282762031413821
425,0.00282561533422391
426,0.0028174666499948
427,0.00276357564134839
428,0.00271761784430686
429,0.0027310739076691
430,0.00276093986393795
431,0.00289979765700396
432,0.00302810027793049
433,0.00318383660965291
434,0.00335502206271313
435,0.00343326151694598
436,0.0034745208593516
437,0.00352290443470538
438,0.00357128801005916
439,0.00361967158541294
440,0.00364440745615169
441,0.00371902253321288
442,0.00383337957697729
443,0.00389373827639545
444,0.00397923245655228
445,0.00406472663670911
446,0.00415022081686594
447,0.00422723757385701
448,0.00429089727830872
449,0.00443024994118498
450,0.0044285494990873
451,0.00440544808182205
452,0.004420661576889
453,0.00443587507195594
454,0.00445108856702289
455,0.00447888793109154
456,0.00449389190236948
457,0.00456159875715881
458,0.00458238397917222
459,0.0046743326597193
460,0.0046846580579333
461,0.00464407412852708
462,0.0047825482813262
463,0.00465945116836237
464,0.0046292154494734
465,0.00460101799259148
466,0.00454506232975043
467,0.00455075579350558
468,0.00451946908178909
469,0.00449783778000311
470,0.00461060999949983
471,0.00463132143045034
472,0.00466555488450114
473,0.0047096857335038
474,0.00473923692282037
475,0.00483821104459434
476,0.00470822575898162
477,0.00473203474372619
478,0.00475584372847077
479,0.00477965271321534
480,0.00477917922028354
481,0.00470096901348003
482,0.00463896762242486
483,0.00467481917380609
484,0.00458149558337992
485,0.00453594650270993
486,0.00460678140954595
487,0.0046711110746237
488,0.00471083730751309
489,0.00482462619853138
490,0.00486909802525892
491,0.00490458015715927
492,0.00501111400428773
493,0.00493749427154247
494,0.00501684198906426
495,0.00494429736091242
496,0.00495898389244998
497,0.00488518490031203
498,0.00490732160676234
499,0.00478521670445272
500,0.00482929281484808
501,0.00477597588190291
502,0.00486368881659602
503,0.00492857771959797
504,0.00485610963346775
505,0.00503930985958492
506,0.00500861640221529
507,0.00506527275766619
508,0.00511158382273516
509,0.00512835605085804
510,0.0050600471170284
511,0.00516425730926776
512,0.00515760967817138
513,0.00500773864083804
514,0.00501251476447441
515,0.00494375252731258
516,0.00497066981495279
517,0.00497355296321938
518,0.00498609573764125
519,0.00508190036182202
520,0.00523041304578953
521,0.00530326595644277
522,0.00537611886709601
523,0.00544897177774925
524,0.00543005415151427
525,0.00548180965905474
526,0.00552219483325872
527,0.00549563510743582
528,0.00554888473115008
529,0.00564944125632115
530,0.00566246381413513
531,0.00568016651505596
532,0.00567787954325163
533,0.00575558653541136
534,0.00579334252617578
535,0.00573946034669364
536,0.00582410322220067
537,0.00587323791707499
538,0.0059314125410764
539,0.00602614059494486
540,0.00620981248583545
541,0.00634831542258028
542,0.00649740623475177
543,0.006600504856861
544,0.00666234126685379
545,0.00655352167777218
546,0.00648251474774142
547,0.00633529348200547
548,0.00618807221626952
549,0.00604085095053357
550,0.00593594503693938
551,0.00593056398161604
552,0.00591385413747251
553,0.00583848023639241
554,0.00577550708481
555,0.0057842716270865
556,0.00571156189778292
557,0.00568831362017625
558,0.00564415033189595
559,0.00558987498091803
560,0.00564346311180129
561,0.00553850926098815
562,0.00563085643952815
563,0.00555271612436436
564,0.0055565249666955
565,0.00545573692680176
566,0.00543654504515112
567,0.00533035408797254
568,0.00536362807931234
569,0.00530189840865838
570,0.0052871424879876
571,0.00530585307407556
572,0.00529744395775441
573,0.0052777059907375
574,0.00534456075151942
575,0.00525851655785087
576,0.00528236328630823
577,0.00530621001476559
578,0.00533005674322294
579,0.0053539034716803
580,0.00537775020013766
581,0.00543352223103981
582,0.00537089671398801
583,0.00542274222314546
584,0.00530818715327679
585,0.00529358040263869
586,0.00511048946596361
587,0.00501581594147231
588,0.00494449628916763
589,0.00487317663686295
590,0.00480185698455828
591,0.00480766453217007
592,0.00483860087861725
593,0.00482810416947677
594,0.00489177081922394
595,0.0048718670617241
596,0.00491439637277197
597,0.00491734813238748
598,0.00495564243845592
599,0.00494529186739457
600,0.00499604683881568
601,0.00501086895132215
602,0.00503262416578306
603,0.00500184686421805
604,0.00505303618588199
605,0.00503434902839476
606,0.00507501373272668
607,0.00516913712607228
608,0.00522148277354594
609,0.00534499873839514
610,0.00540224020778354
611,0.00538988686504658
612,0.00529755397605069
613,0.00516944570802366
614,0.00499683712942551
615,0.00493301410365828
616,0.00483845774256642
617,0.00485161182355882
618,0.00482594406979892
619,0.00480896568705146
620,0.00476910739198358
621,0.00477875724966487
622,0.00465491622683089
623,0.00463492318129171
624,0.00457846614033895
625,0.00452200909938618
626,0.00446555205843341
627,0.00446307893079722
628,0.00441700834831026
629,0.0044207735461925
630,0.00444654338910516
631,0.00437054928623645
632,0.00435628362970209
633,0.00434952586583828
634,0.00431897127308578
635,0.00432811658734918
636,0.00429620865565319
637,0.00430501885950062
638,0.0042523371821643
639,0.00426212702430477
640,0.00422319594044558
641,0.00418597155373005
642,0.00415223614304218
643,0.00409987342030063
644,0.00404751069755907
645,0.00399514797481752
646,0.00399390668617292
647,0.00397331525865891
648,0.0038675545488806
649,0.00395802585680243
650,0.00388788341594776
651,0.00391006801903012
652,0.00384071185664937
653,0.00376900312200475
654,0.00368073838281404
655,0.00370228343335353
656,0.0036637996437437
657,0.00369897631099701
658,0.00374319907815462
659,0.00382456652446777
660,0.00384573288649828
661,0.00383747602781687
662,0.00384270076330612
663,0.00379360279384058
664,0.0037610868284887
665,0.00375711619304192
666,0.0037493741481479
667,0.0037442246393627
668,0.00373422636234896
669,0.00365078930152152
670,0.00363896802621343
671,0.0036243629892715
672,0.00361211177794178
673,0.00361365680485334
674,0.00362100114615876
675,0.00358329858907493
676,0.00357247578942178
677,0.00359613879590018
678,0.0035458302201706
679,0.0035268724492045
680,0.00361626509203999
681,0.00352137583873041
682,0.00342333718256252
683,0.00337344739796524
684,0.0032605610494268
685,0.0031886142048297
686,0.00311131115519305
687,0.00306494001254462
688,0.00304490201698538
689,0.00308588518140908
690,0.00315682346026955
691,0.00322148843814597
692,0.00326812975409918
693,0.00329806028466449
694,0.00339998340982548
695,0.00342185697224317
696,0.00352057514319592
697,0.00355415056773177
698,0.00352592293854055
699,0.00359837977866387
700,0.00367896504423009
701,0.00371310778315388
702,0.0037922261565059
703,0.0038801695300666
704,0.00399522754069323
705,0.00404070324150898
706,0.00412170469863541
707,0.00421964461101682
708,0.0042708692321148
709,0.00432603193713767
710,0.0043233577205724
711,0.00435328877406669
712,0.00434961507867782
713,0.00419278659251044
714,0.00407022651647912
715,0.00384044715929493
716,0.00365677556204686
717,0.00355082437998836
718,0.00352423372731618
719,0.00354813740941242
720,0.00361398089130326
721,0.00360608317608767
722,0.00370976681384568
723,0.0036991974453628
724,0.00369832471844064
725,0.00371209111858478
726,0.00371191982949621
727,0.00378013402925808
728,0.00385520794793045
729,0.00395753865962166
730,0.0040997919306927
731,0.00426142185406285
732,0.00440954228647163
733,0.00454032442672157
734,0.00463638675934994
735,0.00470643402244852
736,0.0047574399814686
737,0.00481501333405818
738,0.00487258668664776
739,0.00493016003923734
740,0.0050157484184789
741,0.00505941844563046
742,0.00509309396371491
743,0.00512676948179936
744,0.00516044499988381
745,0.00515885219607753
746,0.00514025191189962
747,0.00512888249343018
748,0.00507579887029651
749,0.00509943170178543
750,0.0050710583478754
751,0.00506046369048872
752,0.00510288878753961
753,0.00497006514408872
754,0.00493578297128219
755,0.00458799798588507
756,0.00424021300048795
757,0.00389242801509084
758,0.00336636563923487
759,0.00289304163706141
760,0.00263036972763114
761,0.0025764324127024
762,0.00265582119704916
763,0.00287308984843154
764,0.00317485543533223
765,0.0034509324268942
766,0.00380350066007339
767,0.00409524434392902
768,0.0043072852401773
769,0.0044015904049751
770,0.00451297331052372
771,0.00456371514436996
772,0.00458249608643118
773,0.00462463513535924
774,0.00460406504010671
775,0.00457573417012472
776,0.00457358380463987
777,0.0045302812327957
778,0.00454057606756361
779,0.00447934971950061
780,0.00449760009628834
