"wavelength","measurement"
380,0.0175386344212735
381,0.0171185275510299
382,0.0171554092921673
383,0.0163453279714612
384,0.0170703224591268
385,0.0179447905396427
386,0.0185299043723013
387,0.0200829776453932
388,0.0208494074958571
389,0.0215842270716065
390,0.0222604867687097
391,0.0217938953922031
392,0.0232551892162914
393,0.0235467278746973
394,0.0243201347575996
395,0.026800435723595
396,0.0300992920301793
397,0.0343035395092972
398,0.0385077869884152
399,0.0427120344675332
400,0.045201572380398
401,0.0490872014832396
402,0.0511652940674816
403,0.0529964059405484
404,0.05428025968665
405,0.0551624925071003
406,0.0570189962589593
407,0.0585742650330155
408,0.0597043390590208
409,0.0612804725517567
410,0.0644828749669361
411,0.0659936220051422
412,0.0684142754113051
413,0.0698272104897364
414,0.0700484451078818
415,0.0713510964408699
416,0.0715982817673787
417,0.0701317611475365
418,0.0719601523722935
419,0.0706908715218701
420,0.0719610855271956
421,0.0722303726963304
422,0.0723524825640565
423,0.0731318764371051
424,0.0726013020466516
425,0.0718791060364441
426,0.0705194952791618
427,0.0685474668755193
428,0.0668648218951342
429,0.066377162028685
430,0.0662567979960865
431,0.069069217864071
432,0.0713546212613094
433,0.073540541547582
434,0.0767814034708974
435,0.0779200346267414
436,0.0784075798693555
437,0.0796597056089607
438,0.080911831348566
439,0.0821639570881712
440,0.0827494422511355
441,0.0839796954978791
442,0.0857647665041941
443,0.0865099717284709
444,0.0877204290716261
445,0.0889308864147814
446,0.0901413437579366
447,0.0915564563944559
448,0.0921627201324368
449,0.0952250351261114
450,0.0940080314209175
451,0.0936901615006507
452,0.0932606592259442
453,0.0928311569512377
454,0.0924016546765312
455,0.0919599899030086
456,0.0927020303703095
457,0.0934688267183788
458,0.0940098751237503
459,0.0951161179585511
460,0.0959256273049579
461,0.0945872755027774
462,0.096820816386089
463,0.0944955729363817
464,0.0933620184750019
465,0.0929932081365955
466,0.0917026038447841
467,0.0919301307364485
468,0.0909747644154961
469,0.0904062846593003
470,0.0925393248239346
471,0.092831215988331
472,0.0939065176260983
473,0.0949539905867383
474,0.0954496699216693
475,0.0971823493374406
476,0.0958347172794531
477,0.0959538150293043
478,0.0960729127791555
479,0.0961920105290068
480,0.0959817117094003
481,0.0939900259737537
482,0.0921017326744783
483,0.0919312812919983
484,0.0896521685354078
485,0.0876520302260299
486,0.0889001041280915
487,0.0893537287767817
488,0.0903779811009068
489,0.0926491855575135
490,0.0932078024769655
491,0.0938505903859353
492,0.0958412491582145
493,0.0946176319792217
494,0.0962087384551782
495,0.0951145829331554
496,0.0953043561714435
497,0.093331575584081
498,0.0937979975565079
499,0.0916538025762174
500,0.0923084573187013
501,0.0911374241577778
502,0.0926317504631524
503,0.0927918197337118
504,0.0921365553952423
505,0.0948142202366073
506,0.0942916960570307
507,0.0947749325065537
508,0.0953168978881583
509,0.0951628541910335
510,0.0936870761352729
511,0.0951899095052811
512,0.0938296160270064
513,0.0915251558536015
514,0.0907584766455246
515,0.0893783079280657
516,0.0886796890273836
517,0.0885223069067287
518,0.0881064209712898
519,0.0902311843808759
520,0.0915798418455854
521,0.0925536566249178
522,0.0935274714042502
523,0.0945012861835826
524,0.0939978182883336
525,0.0941115346829193
526,0.0945427920004454
527,0.0941486337674626
528,0.0945572013242385
529,0.0960233474565352
530,0.0957625020736187
531,0.0961107647893009
532,0.0956422959159475
533,0.0965450664238226
534,0.0965626869467695
535,0.0954773504227539
536,0.0962127392381807
537,0.0955811226020863
538,0.094708428419759
539,0.0943356986691404
540,0.0949450885963662
541,0.0939471622772378
542,0.0934988219058887
543,0.0940214882997594
544,0.0946043323632677
545,0.0935012019145852
546,0.0944858836965137
547,0.0944109979975264
548,0.0943361122985392
549,0.0942612265995519
550,0.0938316358586922
551,0.0942894210063741
552,0.0950981626688211
553,0.0942779978868809
554,0.0936736056343402
555,0.0946216014932768
556,0.0929965674861736
557,0.0926829147519576
558,0.0922363463083713
559,0.0911072994319049
560,0.0925593096970583
561,0.090147237636426
562,0.0919112707493105
563,0.0900457768582167
564,0.0905370139340096
565,0.0890372583061855
566,0.0882990039654533
567,0.0870901387513722
568,0.0871975692054759
569,0.0862718406985346
570,0.0862736114105975
571,0.0862848454706173
572,0.0863561996706426
573,0.0861605679393619
574,0.0867297745528088
575,0.0853542367964037
576,0.0857563296138597
577,0.0861584224313157
578,0.0865605152487717
579,0.0869626080662277
580,0.0873647008836838
581,0.0884820453095065
582,0.0880441613122358
583,0.0885297360619723
584,0.0869700462789432
585,0.0859751079820922
586,0.0837416424596404
587,0.0822647704072591
588,0.0812916606699898
589,0.0803185509327205
590,0.0793454411954512
591,0.0796958305169796
592,0.0806096717767697
593,0.0808309936119264
594,0.0823080675112289
595,0.0822145633947514
596,0.0832317611605825
597,0.0839057517750289
598,0.084307829990635
599,0.0845522699219998
600,0.0854646254384152
601,0.0860426484443541
602,0.0868071920722027
603,0.0863433428563957
604,0.0874073617390992
605,0.0869747418257593
606,0.0870903067863125
607,0.0867182571673196
608,0.0856196195844062
609,0.0854862691395475
610,0.0849485147610242
611,0.0845272210031318
612,0.0835820451812165
613,0.0832973931351401
614,0.0824565363176805
615,0.0836491430608964
616,0.0825545302365332
617,0.0832461397071613
618,0.0832430944763769
619,0.0834149210456289
620,0.0832014015775705
621,0.0833822244742317
622,0.0818659820095378
623,0.0818611381670483
624,0.0812277051509312
625,0.0805942721348141
626,0.0799608391186969
627,0.0799330606664697
628,0.079766571121746
629,0.0796408855819565
630,0.0802605485452855
631,0.0794165477056512
632,0.0796208723109371
633,0.0802074140170564
634,0.0806394614547941
635,0.080948843332435
636,0.0806285824802138
637,0.0811608276116215
638,0.0807943159303804
639,0.0811584907921911
640,0.0806682004371388
641,0.080246096426255
642,0.0797026258163339
643,0.078986671784475
644,0.0782707177526162
645,0.0775547637207574
646,0.0775059585640211
647,0.0777172790436824
648,0.0760540545850231
649,0.0774404826395627
650,0.0766453342998179
651,0.0773247408179433
652,0.0765018805587773
653,0.0754716520677639
654,0.0743578151311558
655,0.0750859746479047
656,0.0744636590203336
657,0.0756798948160292
658,0.076609259900138
659,0.0787645372095522
660,0.0792244733174464
661,0.0797919065798881
662,0.0801237725515235
663,0.0798237251530235
664,0.0798445272047757
665,0.0797468033327615
666,0.0801005841582789
667,0.0799829760732444
668,0.0800671802361819
669,0.0787219861630498
670,0.0788733136342782
671,0.0795083455173126
672,0.0789078648745686
673,0.0791167077312832
674,0.0791355135979163
675,0.0792102529334272
676,0.0793066708780644
677,0.0797417206218752
678,0.0788482347910456
679,0.0786689094983594
680,0.080472671982543
681,0.0797284813381714
682,0.0774412499045261
683,0.075452197629655
684,0.0729189838050896
685,0.0708846488023683
686,0.0691775960995808
687,0.0679345688069019
688,0.0676246104414134
689,0.0678549308484875
690,0.06914099253336
691,0.0701204806982184
692,0.0706475913400666
693,0.0719177581182357
694,0.0731864899046995
695,0.0733703417061529
696,0.0753560800394217
697,0.0761641594345821
698,0.0754258462422478
699,0.0762182284003089
700,0.0781669666577236
701,0.078458286637663
702,0.08027384164972
703,0.0813319381444023
704,0.0835548137230462
705,0.084110494382804
706,0.0865824805038048
707,0.0882159489864785
708,0.089226123295068
709,0.0905313441426932
710,0.0910564382791276
711,0.0915247657529898
712,0.0917471407291165
713,0.0880156689258854
714,0.0860246462740156
715,0.0816353060346598
716,0.077414009207862
717,0.0753671032232334
718,0.0750217996441206
719,0.0760386388021629
720,0.0781128293233873
721,0.0780692608220635
722,0.0806082981341346
723,0.0803288209123611
724,0.0807345699554469
725,0.0814457889537432
726,0.081882684840497
727,0.0840073574978698
728,0.0865104844338907
729,0.0897966472638741
730,0.092977561846103
731,0.0974723866272428
732,0.101280637690904
733,0.105809060944652
734,0.108759764314638
735,0.110833575453877
736,0.113108445430523
737,0.11492945560229
738,0.116750465774058
739,0.118571475945825
740,0.122243115773555
741,0.123680538458342
742,0.125167616002916
743,0.126654693547491
744,0.128141771092066
745,0.129159890756206
746,0.129336377284053
747,0.130876347144586
748,0.130110705571009
749,0.130823804939337
750,0.132322485233848
751,0.130814612993022
752,0.133222353734075
753,0.132145473937114
754,0.130939090831529
755,0.121850015242913
756,0.112760939654297
757,0.10367186406568
758,0.089855661560315
759,0.077560281170146
760,0.0698386628789314
761,0.0690789160771108
762,0.0715407099600304
763,0.0780215227768182
764,0.0866833736896625
765,0.0955240426781484
766,0.1059728351369
767,0.115760465241981
768,0.12122315513434
769,0.125482303607791
770,0.1289884450481
771,0.129637801757035
772,0.131675942464138
773,0.133360568015
774,0.132987162007327
775,0.133507724880961
776,0.133567417009399
777,0.132537959148899
778,0.133939320893476
779,0.132976957973076
780,0.134123861766364
