"wavelength","measurement"
380,0.00909828942176264
381,0.00884534990261916
382,0.00865103685782774
383,0.00839536499250472
384,0.00846748695387329
385,0.00880310725138475
386,0.0091893291367284
387,0.00950286442178954
388,0.00988810132854045
389,0.0100104272492239
390,0.00994057282282592
391,0.00987306783459895
392,0.00988001606365185
393,0.00994546633698598
394,0.00988723456940094
395,0.0105332567981116
396,0.0116046972536939
397,0.0127520613262617
398,0.0138994253988295
399,0.0150467894713973
400,0.0156233669331647
401,0.0163033065283268
402,0.0168203432676197
403,0.0168158375966118
404,0.016846010718951
405,0.0169253828801978
406,0.0171370462445989
407,0.0171122059024712
408,0.0172031903861677
409,0.0174870938349542
410,0.0182391247364345
411,0.0182990583459175
412,0.0187726394063013
413,0.0192210164457228
414,0.0192296824067025
415,0.0195557593921645
416,0.0195330899863541
417,0.0193883007615101
418,0.0199017553213045
419,0.0195137215468954
420,0.0200585744402902
421,0.020170684535669
422,0.0203213448389076
423,0.0206794867493863
424,0.0207029889858222
425,0.0203713796341777
426,0.0201158806212693
427,0.0198590396776747
428,0.0191606308700764
429,0.0192719710126799
430,0.0192307466513117
431,0.0200446544750021
432,0.020676969159923
433,0.0214241963293142
434,0.0223334411950259
435,0.0227908939030006
436,0.023098454019243
437,0.0233895738167338
438,0.0236806936142247
439,0.0239718134117155
440,0.0240425276951489
441,0.0243952113622411
442,0.0248740641585345
443,0.025076486301712
444,0.025394480059651
445,0.02571247381759
446,0.026030467575529
447,0.0263964974453731
448,0.0263325709811328
449,0.0270883224525914
450,0.0269441354821992
451,0.0266720002757279
452,0.0265300371040159
453,0.0263880739323039
454,0.0262461107605919
455,0.0262361081097478
456,0.0262668407293953
457,0.0264746053822069
458,0.0266255732910466
459,0.0269047076883115
460,0.0269070533890883
461,0.0266240542359171
462,0.0273791639885382
463,0.0266206984422752
464,0.0263493596022072
465,0.0262004179261926
466,0.0257477874216291
467,0.0257346192898743
468,0.025571117009476
469,0.0254014087572587
470,0.0258539890710025
471,0.0257677211900672
472,0.025916137201591
473,0.0260732043084855
474,0.0262449429410544
475,0.0266201148863368
476,0.0258879426548931
477,0.0258820425792999
478,0.0258761425037068
479,0.0258702424281136
480,0.0257846600043061
481,0.0251575624369352
482,0.0246981838809997
483,0.0246335936539204
484,0.02403988295171
485,0.0233785702382886
486,0.0236621077066767
487,0.023901834816186
488,0.0240484451256446
489,0.0246728579010443
490,0.0248239779967096
491,0.0250253743001798
492,0.0255149136301672
493,0.025288887743265
494,0.0256360394383915
495,0.0252804759866101
496,0.0253981893339361
497,0.0249159828682238
498,0.0251622787560849
499,0.0245728411270661
500,0.0246452888806187
501,0.0244204425278728
502,0.0249220014659007
503,0.0250675107207936
504,0.0247305548124203
505,0.0256663369561588
506,0.0255117360400782
507,0.0256732628707986
508,0.0257470358349958
509,0.025867286527318
510,0.0254880137575877
511,0.025909230640963
512,0.0257928661742734
513,0.0250451919118687
514,0.0249810359409692
515,0.0246334992722198
516,0.0245925434153872
517,0.0245475256681332
518,0.0246391436581196
519,0.0250852173753847
520,0.0257097799609992
521,0.0260628802297324
522,0.0264159804984656
523,0.0267690807671988
524,0.0266754183066852
525,0.0268343704873933
526,0.0269656905111608
527,0.0268770360779818
528,0.0271892434869438
529,0.0275653863430578
530,0.0276241108389241
531,0.0277391997438899
532,0.0277075868851991
533,0.0280203230605138
534,0.0280791150579828
535,0.027850944194362
536,0.0280975389452311
537,0.027992814959542
538,0.0277357004711452
539,0.0276019457464482
540,0.0277660531428433
541,0.0276169285387871
542,0.0274078914734275
543,0.0275689011821965
544,0.0278127046513373
545,0.027616907823734
546,0.0278742208832871
547,0.0278796320115427
548,0.0278850431397984
549,0.0278904542680541
550,0.0277528612245018
551,0.0280206164054489
552,0.028223406865884
553,0.0280134984923809
554,0.0278156491882748
555,0.028204945948723
556,0.0277436940518855
557,0.0277355137544387
558,0.0275503957842711
559,0.0273357084212181
560,0.0275765998537281
561,0.0271324755348648
562,0.0275669708622869
563,0.0271404326599499
564,0.0272277765260343
565,0.0268335836297188
566,0.0266328692735409
567,0.0262256282023548
568,0.0262723770433682
569,0.0259487778366601
570,0.02589183825408
571,0.025945038069008
572,0.0258694957601784
573,0.0257853146480181
574,0.025923785965605
575,0.0256231156444782
576,0.0256793329490528
577,0.0257355502536274
578,0.025791767558202
579,0.0258479848627766
580,0.0259042021673512
581,0.026263952437992
582,0.0260870198843264
583,0.0261663675670178
584,0.0257325883851133
585,0.0253789308089099
586,0.024637596535481
587,0.0240780538884477
588,0.0237243022014879
589,0.0233705505145281
590,0.0230167988275683
591,0.0231193192411384
592,0.0233818608375976
593,0.0235038080962708
594,0.0239085059653964
595,0.0239765295928899
596,0.0241153828039255
597,0.0243116554710581
598,0.0243942888097446
599,0.0245350345878912
600,0.0248080574403512
601,0.0249351592020082
602,0.025156498421603
603,0.0251245533962479
604,0.0252909318818249
605,0.0251674375532926
606,0.0252199733901656
607,0.0251099231565614
608,0.0246572740243853
609,0.0247210034039554
610,0.0244497808829588
611,0.02438175272782
612,0.0241214993748924
613,0.024053711810274
614,0.023714195742182
615,0.0240724326226227
616,0.0237666954057686
617,0.023904389131254
618,0.023881014647148
619,0.0239606433382496
620,0.0238843367364293
621,0.0240570393326664
622,0.0235842896729812
623,0.023463741317343
624,0.0232796744977222
625,0.0230956076781013
626,0.0229115408584804
627,0.0228727210739651
628,0.0227638965918393
629,0.0227440127277334
630,0.0229371569030075
631,0.0226562111626523
632,0.022871834217344
633,0.0229355427052379
634,0.0230655077665754
635,0.0232508392385915
636,0.0230857174933995
637,0.0232011593649714
638,0.0231172928465068
639,0.0232610465442093
640,0.0230947483936632
641,0.0230092228433349
642,0.0228244841509048
643,0.0225772564446648
644,0.0223300287384247
645,0.0220828010321847
646,0.022002183800901
647,0.0219489994384581
648,0.0214945298544595
649,0.0219968488444275
650,0.0217072959247983
651,0.0219414534091497
652,0.0217226815024788
653,0.0214521405653797
654,0.0210133477646712
655,0.0212681433090723
656,0.0210734463794651
657,0.0214045062911273
658,0.0216749152018219
659,0.0223096351883608
660,0.0225127578732813
661,0.0225946747711777
662,0.0226991949785576
663,0.0225639695355693
664,0.0223758293700678
665,0.0225407766250345
666,0.022601631722208
667,0.0226257448748262
668,0.0226119305471169
669,0.0222364391435165
670,0.0223591053752215
671,0.0223794907210079
672,0.0221576297972723
673,0.0222780038052728
674,0.0223822325211867
675,0.0223398001985716
676,0.0223746227657475
677,0.0224604054161062
678,0.0223199881002322
679,0.0221867948696755
680,0.0228049335615065
681,0.0224556058048869
682,0.0219220384440283
683,0.0215067062373744
684,0.0207744334346451
685,0.0201743662463751
686,0.0197745840025829
687,0.0194606825176464
688,0.0192280546473206
689,0.0193888988589208
690,0.0197530903366915
691,0.0201943437800935
692,0.0203750286562455
693,0.0207500771092853
694,0.0211410262063042
695,0.0213779136751184
696,0.0219353735439267
697,0.0222291543061161
698,0.0221926481537612
699,0.0224668856694449
700,0.0231725774791888
701,0.0232980985995443
702,0.0240156818840919
703,0.0243736833586197
704,0.0251229380229969
705,0.025581946010547
706,0.0263466004988364
707,0.0269381144102291
708,0.0273842017240764
709,0.027906165594306
710,0.0280514837856721
711,0.0283499913957773
712,0.0285303025300572
713,0.0275176607300722
714,0.0269131257158697
715,0.0254541428321162
716,0.0243243810203561
717,0.023540800744129
718,0.0236378489262978
719,0.0240085504120464
720,0.0247642297415051
721,0.0249476424852734
722,0.025981182423618
723,0.0260416820402781
724,0.026149480751164
725,0.0266414100268668
726,0.0268248297560582
727,0.0277503188153017
728,0.0285933991767199
729,0.0298539588168016
730,0.0311216643404113
731,0.0329259947211712
732,0.0344835570137123
733,0.036117678469522
734,0.03755157740335
735,0.0382381962508485
736,0.0393105889506022
737,0.0401742372005239
738,0.0410378854504456
739,0.0419015337003673
740,0.0432815845449762
741,0.043978635266806
742,0.0446458564432339
743,0.0453130776196619
744,0.0459802987960898
745,0.0464148368462157
746,0.0467408677292772
747,0.0471908316497063
748,0.0469333450753063
749,0.0473960970951252
750,0.0476597374948444
751,0.0475075538983445
752,0.0483514111720044
753,0.0478588759396007
754,0.04752881533577
755,0.0442655199948141
756,0.0410022246538582
757,0.0377389293129024
758,0.0325542418364984
759,0.0280250365245965
760,0.0250660599004995
761,0.0247521287550236
762,0.0256776921667117
763,0.0280260572364126
764,0.0312732766395593
765,0.0344069843643803
766,0.0382440112792237
767,0.0418200793901378
768,0.0440117060338302
769,0.0456099582157078
770,0.0468269811008894
771,0.047496282483075
772,0.0479668151309991
773,0.0488385713028276
774,0.048502187300392
775,0.0486637082748676
776,0.049005057836908
777,0.0487042715279238
778,0.0490827788550781
779,0.0485111169224068
780,0.0492129869929012
