"wavelength","measurement"
380,0.00114866506141907
381,0.00115468502962524
382,0.00113152061536847
383,0.00111001494908791
384,0.00115391509320278
385,0.00126978245545734
386,0.00135521310045594
387,0.00145573755856889
388,0.00150614756449952
389,0.00161007876065002
390,0.00162693286214881
391,0.00163091224669237
392,0.00166493526886864
393,0.00172439200489191
394,0.0018320516472594
395,0.001932723893682
396,0.0021447997330262
397,0.00242068209022951
398,0.00269656444743282
399,0.00297244680463613
400,0.00317866373619975
401,0.00347199541036123
402,0.00359619680890982
403,0.00372950344034845
404,0.00379030832769077
405,0.00381420424289855
406,0.00397020907400008
407,0.00408427136728174
408,0.00415532639513155
409,0.00432336296767245
410,0.00455092256699141
411,0.00463020869308926
412,0.00479537090641968
413,0.0050045250486978
414,0.00501337144143064
415,0.00511263451216255
416,0.00513353313554985
417,0.00515937187485344
418,0.00522668380273944
419,0.00516798936275483
420,0.00532431455911574
421,0.00536737555580656
422,0.00543180283233739
423,0.00549785708756503
424,0.0055436586330629
425,0.00551660322592993
426,0.00548774481438834
427,0.00536185536153865
428,0.00519293823086823
429,0.00526199036951481
430,0.00527290615118654
431,0.00553741356649008
432,0.00575005516377703
433,0.00601694400755993
434,0.00631622996560891
435,0.00649869506463685
436,0.00654436919743539
437,0.0066701863344575
438,0.00679600347147962
439,0.00692182060850173
440,0.00697840429627254
441,0.0071469277037019
442,0.00736112163466314
443,0.00746993138844093
444,0.00764402762474702
445,0.00781812386105312
446,0.00799222009735921
447,0.00817870098283346
448,0.00828677831775979
449,0.0086114019323829
450,0.00859653346623216
451,0.00859676838246034
452,0.00860020203940385
453,0.00860363569634737
454,0.00860706935329089
455,0.0086993965437863
456,0.00869533647275095
457,0.00883020860258875
458,0.00887447856569776
459,0.00905405771731108
460,0.00908649616781954
461,0.00900415320679422
462,0.00927778864730492
463,0.00908836303587172
464,0.00900328983217809
465,0.00896352784169941
466,0.00886523553516037
467,0.00890378858576651
468,0.00884663216151626
469,0.00876816066746651
470,0.0090299978187595
471,0.00901760508319397
472,0.00911722717774448
473,0.00924142280389198
474,0.00929671449289214
475,0.00948245893521184
476,0.0092581063353072
477,0.00930434611796468
478,0.00935058590062216
479,0.00939682568327964
480,0.0094237225453576
481,0.00919853500922772
482,0.00907565547174553
483,0.00907875432403696
484,0.00891851508491781
485,0.00875893483349682
486,0.00886922461687577
487,0.00897604679378321
488,0.00906661261049863
489,0.00934064524399434
490,0.00940857593687645
491,0.00950955690749682
492,0.0097552592446063
493,0.00965917496143837
494,0.00983626916821444
495,0.0097160273475436
496,0.00978315202748752
497,0.00962597851332955
498,0.00969124198080548
499,0.00954012311747725
500,0.00957043248195687
501,0.00950014387391804
502,0.00968270804747504
503,0.00975969443480596
504,0.00970439600497045
505,0.0100317685193738
506,0.0100445560608747
507,0.0101246289692075
508,0.0102227323867927
509,0.0102620397414935
510,0.0101162390261138
511,0.0103344338720978
512,0.0102890256750058
513,0.0100390913012603
514,0.0100309577617743
515,0.0099005646617251
516,0.00989367908399086
517,0.00988966222967391
518,0.00993440977636058
519,0.0101364777767861
520,0.0104003767159488
521,0.0105596193977838
522,0.0107188620796188
523,0.0108781047614537
524,0.01085160755057
525,0.0109300625092792
526,0.011013098475367
527,0.0109595422754431
528,0.0111041526477714
529,0.0112835664474005
530,0.0113116286932379
531,0.0113571455761679
532,0.0113498900727975
533,0.0115011678596816
534,0.0115498993469746
535,0.0114501018700795
536,0.011586802516515
537,0.0116061107303922
538,0.0115960571482229
539,0.0116725125250774
540,0.0118696708462468
541,0.0119268600965055
542,0.0120537218903394
543,0.0121839027406746
544,0.012307375428209
545,0.0121768053390534
546,0.0121806865530199
547,0.0120481438674994
548,0.0119156011819788
549,0.0117830584964583
550,0.0116389201061883
551,0.0116997527649264
552,0.0117426962575229
553,0.0116033156581493
554,0.011532224648676
555,0.0116264061651047
556,0.0114867051419964
557,0.011410235183021
558,0.0113499890064124
559,0.011231519227288
560,0.0113694591448169
561,0.0111661649091967
562,0.0113616074812849
563,0.0111897054569157
564,0.0112185143774726
565,0.011052034206768
566,0.011003365353886
567,0.0108604292835973
568,0.0109089357052902
569,0.0107594153501623
570,0.010737485205809
571,0.0107406401227109
572,0.0107469242881072
573,0.0107251297446264
574,0.010810020197018
575,0.0106762916552427
576,0.0107055834418319
577,0.0107348752284211
578,0.0107641670150103
579,0.0107934588015995
580,0.0108227505881887
581,0.0109430829720651
582,0.0108490605788075
583,0.0109188992509431
584,0.010713474545917
585,0.0106476172670346
586,0.0103236191336277
587,0.0101234287821756
588,0.00997269946318387
589,0.00982197014419214
590,0.00967124082520041
591,0.00968276375516222
592,0.00975018520700757
593,0.0097547765318496
594,0.00988973283974666
595,0.0098486634723446
596,0.009951690276723
597,0.00998628158001635
598,0.0100038167453651
599,0.0100338498453479
600,0.0101042282815042
601,0.0101431169008812
602,0.010183315004561
603,0.0101452299539523
604,0.0102238140484874
605,0.0101713374956604
606,0.0101930934543682
607,0.0102465927052611
608,0.0102417801835127
609,0.0103525970030162
610,0.0103566404467458
611,0.0103478672616377
612,0.0102029087847198
613,0.0100814835794468
614,0.00979881519408396
615,0.00977958763886508
616,0.00962340976601666
617,0.00965769361667943
618,0.00960001015730683
619,0.00959682796982907
620,0.0095168282579405
621,0.00956290995021313
622,0.00935724049695283
623,0.00931923682327194
624,0.0092137930794817
625,0.00910834933569145
626,0.00900290559190121
627,0.00897955180593131
628,0.00894158960506827
629,0.00891033163506647
630,0.0089672780238878
631,0.00880899750380173
632,0.00880894286523866
633,0.00884790041223764
634,0.00880161933419742
635,0.00881859262309755
636,0.00871683617972446
637,0.00878913837384359
638,0.00866251415433277
639,0.00869256020003668
640,0.00860559120172047
641,0.0085673741373172
642,0.00845529028536247
643,0.00835702463719613
644,0.00825875898902979
645,0.00816049334086345
646,0.00814345256948294
647,0.00810285922058657
648,0.00788651019500097
649,0.00802779962604044
650,0.00791380048527984
651,0.0079825946678895
652,0.00785320793089046
653,0.00768396485639863
654,0.00752866304079705
655,0.00755992249531495
656,0.00745908100432076
657,0.00752778919466648
658,0.0076006626275906
659,0.00776793372029949
660,0.00784237818665685
661,0.00781734995495635
662,0.00783332553996338
663,0.00776533557539356
664,0.00767920577859537
665,0.00768018415494565
666,0.00766261654297533
667,0.00764723171350548
668,0.00762940552338498
669,0.00746596719567376
670,0.00747161620890948
671,0.0074033459264257
672,0.00737033211095844
673,0.00737198217162603
674,0.00737127811807345
675,0.00732244156668094
676,0.00728382764684976
677,0.00730606132139087
678,0.0072282441706042
679,0.00718838188078928
680,0.00735856041450831
681,0.00717685922071527
682,0.00703488053390203
683,0.00688377918864348
684,0.00667733683950899
685,0.00646799386501194
686,0.00632722552593081
687,0.00622782285220803
688,0.00613765971320432
689,0.006206393711449
690,0.00632838407689539
691,0.00645828591747883
692,0.00650059053596801
693,0.00656858807610768
694,0.00673302448166941
695,0.00676217706909876
696,0.0069487486040629
697,0.00701433446871217
698,0.00698792786788114
699,0.00706467544268212
700,0.00723187943523469
701,0.00722572056006684
702,0.00740223220381698
703,0.00749784339626637
704,0.00772972465667641
705,0.00776528709497488
706,0.00798228036812831
707,0.0081225968245021
708,0.00815824380708513
709,0.00828680981560006
710,0.00825235495757523
711,0.00830992343149079
712,0.00833199409137207
713,0.0079951416901572
714,0.00779410597365235
715,0.00734833509933851
716,0.0069619875264742
717,0.00669722724730848
718,0.00663782602365446
719,0.00664984058872443
720,0.00678621392731884
721,0.00674514122586417
722,0.00694992431098945
723,0.00691303083548023
724,0.00691999466713267
725,0.00690406000050818
726,0.00689506053567497
727,0.00702442858682474
728,0.00712453858293078
729,0.00729991308020884
730,0.00752697331950559
731,0.00780213330018794
732,0.00805948992150186
733,0.00833454066177091
734,0.00851785863969672
735,0.00859334897206903
736,0.00874468600099812
737,0.00881628645369331
738,0.00888788690638849
739,0.00895948735908367
740,0.00911933819458927
741,0.00919517526146457
742,0.00923761037521111
743,0.00928004548895766
744,0.00932248060270421
745,0.00935168021717874
746,0.00930083305339278
747,0.00931100785258986
748,0.00917599692957598
749,0.00923974855161815
750,0.0091855161103342
751,0.00907145794856249
752,0.00920624067721199
753,0.00899244407541924
754,0.00897783908628328
755,0.00837479407472395
756,0.00777174906316462
757,0.00716870405160529
758,0.00622940949797082
759,0.00539518490641756
760,0.00482379779166087
761,0.00463597047152862
762,0.00481870174874624
763,0.0051541231246616
764,0.00566988131056108
765,0.00616960238104544
766,0.00678035324282178
767,0.00735953287840776
768,0.00769091773728195
769,0.00789899465487125
770,0.00806688982831684
771,0.00812071664603976
772,0.00818331444133877
773,0.00828280187185018
774,0.00819673656572068
775,0.00816457577569804
776,0.00819442696807179
777,0.0080523976794174
778,0.00809175766292658
779,0.00800304108941214
780,0.00805471916186777
