"wavelength","measurement"
380,0.00123970571269107
381,0.00127853079507679
382,0.00126087331328309
383,0.0012897402041845
384,0.00131450841096499
385,0.00141888566264304
386,0.0015028361142639
387,0.00164118870964596
388,0.00173665045928532
389,0.00183093412285838
390,0.00187913942078107
391,0.00192070498790699
392,0.00195239604862277
393,0.00203563331745521
394,0.00219500557373127
395,0.00234286007888708
396,0.00265170465511893
397,0.00302048082482999
398,0.00338925699454106
399,0.00375803316425212
400,0.00405539365994093
401,0.00444780906277797
402,0.00470159471316084
403,0.00485154257192322
404,0.00510936864260297
405,0.00523536505634754
406,0.00545209941900492
407,0.0057160696103988
408,0.00590919789402666
409,0.00617050635608205
410,0.00660676665275751
411,0.006747596854696
412,0.00709129097195309
413,0.00739336501989145
414,0.00750602803772884
415,0.00767069113184312
416,0.00770237370846325
417,0.00772599653697058
418,0.00795169572518079
419,0.00787588928630998
420,0.00816856744423735
421,0.00819894169472897
422,0.00835938611587392
423,0.00846822857944899
424,0.00858531369804224
425,0.00843245718124719
426,0.00847852370609564
427,0.00828163314308803
428,0.00806665101503203
429,0.00812877897984906
430,0.00814118590307441
431,0.00856821898918137
432,0.00892703625142615
433,0.00930891816565139
434,0.00973534529008906
435,0.0100512358084556
436,0.0101608801328678
437,0.0103737644631991
438,0.0105866487935305
439,0.0107995331238619
440,0.0108790291540953
441,0.0111239445534814
442,0.0114908611585713
443,0.0116565138414707
444,0.0119218740718366
445,0.0121872343022025
446,0.0124525945325683
447,0.0127586486578605
448,0.0128873069211978
449,0.01345422899529
450,0.0134168620277245
451,0.0134312638835296
452,0.0134640539792534
453,0.0134968440749771
454,0.0135296341707008
455,0.013628834626008
456,0.0137285085213494
457,0.0139210206075123
458,0.0140327247650804
459,0.0143407041233076
460,0.0144020052498645
461,0.0143177146083518
462,0.0147613358067043
463,0.0144233478279734
464,0.0143056282586504
465,0.0142728106961266
466,0.0141132918108472
467,0.0141897868597515
468,0.0140986166427055
469,0.0140216428591149
470,0.0143724317497238
471,0.0144394220477629
472,0.0145699387998035
473,0.0148067747333987
474,0.0149232754840578
475,0.0152089023244829
476,0.01490197858216
477,0.0149681075509829
478,0.0150342365198058
479,0.0151003654886288
480,0.0150984358036387
481,0.0147856343952844
482,0.0145872299613744
483,0.0145903288136658
484,0.0142955518205396
485,0.0140310157863147
486,0.0142455343936197
487,0.014389992019901
488,0.0145603109185655
489,0.0150056255739262
490,0.0151639225104466
491,0.0153003295885501
492,0.0156895121497179
493,0.0155563223088884
494,0.0158472775447218
495,0.015672351775211
496,0.0157728114610466
497,0.0155287094304737
498,0.0156451490512406
499,0.0153989573234671
500,0.0155042693563854
501,0.0154048980139631
502,0.0157074098549529
503,0.0158401142463347
504,0.0157271627223631
505,0.0163155485080692
506,0.016311655956222
507,0.0164500996116194
508,0.0165783236506606
509,0.0166737798201328
510,0.0164396317047453
511,0.0168046963300373
512,0.0167503653696106
513,0.016323138425447
514,0.0163254866695398
515,0.0160988131212468
516,0.0160812333653218
517,0.0161078976790655
518,0.0161525072787362
519,0.0165361245003584
520,0.0169056820952159
521,0.0171772136480531
522,0.0174487452008903
523,0.0177202767537276
524,0.0176873157398097
525,0.017820634197443
526,0.0179656280804194
527,0.0179010689637453
528,0.0180946395785682
529,0.0183803492177279
530,0.0184434105921894
531,0.0185513583532055
532,0.0185275492079183
533,0.0187393660280981
534,0.0188429610143153
535,0.0187147858655629
536,0.0189402368048782
537,0.0189044275221509
538,0.0188710915491746
539,0.01892901604355
540,0.0191664548933836
541,0.0192193962514044
542,0.0192926448279986
543,0.0194991454123297
544,0.0196641467205776
545,0.0194985703864837
546,0.0195833372711931
547,0.0194517996282175
548,0.0193202619852419
549,0.0191887243422663
550,0.0189943425832896
551,0.0190890488981723
552,0.0192161137948904
553,0.0190319294279916
554,0.0189321667881387
555,0.0191155332400293
556,0.0188502730619457
557,0.0187847102231817
558,0.0186806576578696
559,0.0185369632815387
560,0.018747029781705
561,0.0184351055554587
562,0.0187532246278154
563,0.018454389452399
564,0.0185724216270333
565,0.0182869216468012
566,0.018190203439657
567,0.0179359288000316
568,0.0180356288920968
569,0.017819280871453
570,0.0178025795758956
571,0.017836476970643
572,0.0178119135557054
573,0.0177767315827697
574,0.0179062829289914
575,0.0176699688844883
576,0.0177110071879329
577,0.0177520454913775
578,0.0177930837948221
579,0.0178341220982667
580,0.0178751604017113
581,0.0180623313992795
582,0.0179204173054923
583,0.0180186380287555
584,0.0176835913006884
585,0.0176025116780752
586,0.0170680458117262
587,0.0167674628771732
588,0.0165434548625032
589,0.0163194468478332
590,0.0160954388331632
591,0.0161117712967851
592,0.0162540038239914
593,0.0162400292321916
594,0.0164684807723909
595,0.0163915561290117
596,0.0165728448737856
597,0.016626507899446
598,0.0166619148670864
599,0.0166686152146532
600,0.0168073409231363
601,0.0168762319236698
602,0.0169377220397834
603,0.0168655312317016
604,0.0169878817540983
605,0.0168865106478318
606,0.0169260902368575
607,0.0169611637077596
608,0.0168442309169175
609,0.0169553323889936
610,0.0169017314971277
611,0.0168467701476556
612,0.0166296237783153
613,0.0164469500979502
614,0.0161294774614938
615,0.0161354547967648
616,0.0159049738439158
617,0.0159839766137409
618,0.0159075608254532
619,0.0159284427285396
620,0.0158313529141166
621,0.015904506708274
622,0.015577105034914
623,0.0154751662037823
624,0.0153449153532254
625,0.0152146645026685
626,0.0150844136521115
627,0.0150304416500923
628,0.0149723046981432
629,0.0149066585077309
630,0.0149999112373753
631,0.0147679013217043
632,0.0147934960695715
633,0.0148421055284183
634,0.0147778782004905
635,0.0148488478927859
636,0.0146809929324099
637,0.0147542301007484
638,0.0146047636071005
639,0.0146252343781877
640,0.0144771964548637
641,0.0144077705203228
642,0.0142444174555823
643,0.014090179258276
644,0.0139359410609697
645,0.0137817028636635
646,0.0137854855227894
647,0.0136726123167934
648,0.0133681392339878
649,0.0135700071117561
650,0.0133943303274092
651,0.0134819509932465
652,0.0132837878154265
653,0.0130214140828889
654,0.0127527428113266
655,0.01284007663302
656,0.012678996088749
657,0.012782114395857
658,0.01286685346179
659,0.0131657019217504
660,0.0132459116975214
661,0.0132645426015588
662,0.01328013062114
663,0.0131233947429608
664,0.0129939145489842
665,0.0130217356629347
666,0.012984338714827
667,0.0129907188589885
668,0.0129211406415263
669,0.0126456477337765
670,0.0126638192705733
671,0.012563913139093
672,0.0124838134088402
673,0.0124929936248718
674,0.0124952050705536
675,0.0124253118925086
676,0.0123827719568102
677,0.0124231883618377
678,0.0122582127829428
679,0.012192190921702
680,0.0124708001892463
681,0.0122356609490274
682,0.0119389319859143
683,0.0117258333103341
684,0.0113503905391861
685,0.0110462363616471
686,0.0108065840981001
687,0.0106249562443165
688,0.0105267133515201
689,0.0106038993415371
690,0.0108251809035918
691,0.0110377918336095
692,0.0111606596990622
693,0.0112731944186447
694,0.0115641895476388
695,0.0115942267476785
696,0.0118923601947671
697,0.0120447848007891
698,0.0119359450045557
699,0.0120830017647996
700,0.0123821050009744
701,0.0123786853594094
702,0.0126548002227802
703,0.0128087334429114
704,0.0131717431953623
705,0.0132652674663565
706,0.0135548361973581
707,0.0137939927854943
708,0.0138956485100381
709,0.0141140070777758
710,0.0140307583895295
711,0.0141054213452499
712,0.0141871267190999
713,0.0136199663006298
714,0.0132969635256528
715,0.0125877861087908
716,0.011939536272743
717,0.0115028655464173
718,0.0114076134260564
719,0.0114764534031667
720,0.0116566632379482
721,0.01159756983901
722,0.0119293123508045
723,0.0118745120388409
724,0.0118399434179183
725,0.0118683264198104
726,0.0118205353782314
727,0.0120666274064287
728,0.012232506379444
729,0.0125279210562409
730,0.0129074565408915
731,0.0133327948396301
732,0.0137418493858112
733,0.0142093734371609
734,0.0144666813772573
735,0.0146388003098662
736,0.0148433892662313
737,0.0149488911104499
738,0.0150543929546685
739,0.0151598947988871
740,0.015429231772372
741,0.0155162972884205
742,0.0155837343864642
743,0.0156511714845079
744,0.0157186085825516
745,0.0157530589421738
746,0.0157066326518045
747,0.0157220100241754
748,0.0154503790041039
749,0.0155555607132767
750,0.0154906800761407
751,0.0153809354956621
752,0.0155474241416337
753,0.0152280696073642
754,0.0151139325617507
755,0.0141038606469336
756,0.0130937887321166
757,0.0120837168172995
758,0.0105464810695706
759,0.00915511694575864
760,0.00819289965912762
761,0.00795515522592959
762,0.00821442520066063
763,0.00878281390575032
764,0.00965023954361638
765,0.0104664023102027
766,0.011498815596741
767,0.0124107256244897
768,0.0129624644191173
769,0.0133495111676681
770,0.0135771505368412
771,0.0137172227048047
772,0.0138187741098523
773,0.0139653518344196
774,0.0137979678571915
775,0.0137477973178612
776,0.0137727327792689
777,0.0135602892026833
778,0.0136279392726429
779,0.0134334895958377
780,0.013616885172196
