"wavelength","measurement"
380,0.00134593703076025
381,0.00137331400945954
382,0.00137044383365725
383,0.00136160258836365
384,0.00142344496572146
385,0.00152689118932945
386,0.00158387064230802
387,0.00174331396363381
388,0.00183870885270981
389,0.00197006192913243
390,0.00196695187731751
391,0.00201082362760945
392,0.0020488762449972
393,0.00218674920602835
394,0.00223586003368415
395,0.00247078860183356
396,0.00275693895250527
397,0.00315365629372962
398,0.00355037363495397
399,0.00394709097617833
400,0.00424257249829873
401,0.00470262048822649
402,0.00500151984636264
403,0.00510181728710191
404,0.00543780067861602
405,0.00552402706072073
406,0.00577741740864121
407,0.00598548038228717
408,0.00624690663509836
409,0.00650171733299271
410,0.00697209197314171
411,0.00717055225349967
412,0.0074647929181168
413,0.00780764250330926
414,0.00790300594469444
415,0.00810958655022774
416,0.00815215467169638
417,0.00821673897102833
418,0.00843741311650338
419,0.00834732605971806
420,0.00865544658498314
421,0.00867346561708042
422,0.00884336719765525
423,0.0090147212106434
424,0.00901905735883055
425,0.00898501716290874
426,0.00896593430606829
427,0.00878226946360361
428,0.00851549806295429
429,0.00859723473429164
430,0.00864487009781208
431,0.00906058944980582
432,0.00940836056654996
433,0.00985393955468936
434,0.0103459803972689
435,0.0106142302771665
436,0.0107293385691443
437,0.010941419652557
438,0.0111535007359696
439,0.0113655818193823
440,0.0115215754898753
441,0.0117262755566293
442,0.0121401377936415
443,0.0123071481959634
444,0.0125958576436831
445,0.0128845670914028
446,0.0131732765391225
447,0.0134914677410479
448,0.0136576331965816
449,0.0141607996400228
450,0.0141545451945695
451,0.0142000890342353
452,0.0142297293478833
453,0.0142593696615313
454,0.0142890099751792
455,0.0144119985517219
456,0.0144423067011262
457,0.0147010032448927
458,0.0148255900501442
459,0.0151118667975808
460,0.0151955963551944
461,0.0151043834188189
462,0.0156143824980932
463,0.015250491278877
464,0.0151471164450092
465,0.0151010520651432
466,0.0149370986218107
467,0.0149538505049184
468,0.014887736460056
469,0.0148043179900452
470,0.0152156696600511
471,0.0152687602108785
472,0.0153881503365209
473,0.0156332124279591
474,0.0157702870198661
475,0.0160213884395815
476,0.0157004676328787
477,0.0157743739966677
478,0.0158482803604567
479,0.0159221867242457
480,0.0159483865602723
481,0.0156403782896238
482,0.0153940261609084
483,0.0154289448101042
484,0.0151390123156897
485,0.0148357441388185
486,0.0150447355860812
487,0.0151932378455567
488,0.0154118379537685
489,0.0158394855699364
490,0.0160203951931049
491,0.0161446511758319
492,0.0165982518867979
493,0.0164717979873078
494,0.0167314581547959
495,0.0165697987817932
496,0.0166960278529191
497,0.0164206132794053
498,0.016561227613827
499,0.0162681209347889
500,0.0163896827584754
501,0.0162833580617717
502,0.0166051927066187
503,0.016791294573295
504,0.0166360045090335
505,0.0172760641147914
506,0.0172083735494222
507,0.0174070492506662
508,0.0175726488636858
509,0.0176555723414947
510,0.0174236891363115
511,0.0177897143417778
512,0.0177622838489292
513,0.0173150200214748
514,0.0172919980795445
515,0.0170645751317354
516,0.0170596579579267
517,0.0171052745081386
518,0.0171128013141627
519,0.0175246163390538
520,0.0179473698900987
521,0.0182279711619089
522,0.0185085724337192
523,0.0187891737055294
524,0.0187948986925864
525,0.0188983113113549
526,0.0190516592059022
527,0.0190193627114681
528,0.019177117967841
529,0.0195223137224273
530,0.0195817525517409
531,0.0196779811560657
532,0.0196897674375615
533,0.0199046021535487
534,0.0200651077928429
535,0.019813613005641
536,0.0201225903201847
537,0.020062851170159
538,0.0200523147669453
539,0.0200851561639905
540,0.0203510777301133
541,0.020376655051696
542,0.0204556528657756
543,0.0206668702244213
544,0.0208708238839577
545,0.0206711036930425
546,0.0207378846221785
547,0.0206053144859305
548,0.0204727443496825
549,0.0203401742134345
550,0.0201766246168849
551,0.0202874323968935
552,0.0204022562668166
553,0.0202046795840572
554,0.0201145519459197
555,0.0202990963259774
556,0.0200404919055262
557,0.0199594315210354
558,0.0198784384164909
559,0.0196982628925681
560,0.019885568319582
561,0.0195389756096844
562,0.0199363920058663
563,0.0196153843451006
564,0.0196986461648968
565,0.0194076158734292
566,0.0192861180582826
567,0.019066840233621
568,0.0191904423418882
569,0.0189113048188202
570,0.0188962432991221
571,0.0189205224750101
572,0.0188830486136332
573,0.0188500590659727
574,0.0190271986081051
575,0.0187658228016275
576,0.0188094854526431
577,0.0188531481036588
578,0.0188968107546744
579,0.01894047340569
580,0.0189841360567056
581,0.0191893056189198
582,0.0190751678398456
583,0.019122108844847
584,0.0187538424325215
585,0.0187055772212134
586,0.0181104567635602
587,0.0177870712697079
588,0.017548727627038
589,0.017310383984368
590,0.017072040341698
591,0.0171058544881367
592,0.0172542324165472
593,0.0172506710461701
594,0.017488056742123
595,0.0174650820026911
596,0.0176003386266245
597,0.0176236251685053
598,0.0176632901936596
599,0.0176727579716552
600,0.0178291083037293
601,0.0178948239122699
602,0.0179924558960165
603,0.0178944894058717
604,0.0180363037543013
605,0.0179500253194327
606,0.0179721600216286
607,0.0179819271974637
608,0.017852574081608
609,0.0179737893508151
610,0.0179132130068524
611,0.0178115913823217
612,0.017638010005975
613,0.0174370850106091
614,0.0170439992987231
615,0.0171470979983013
616,0.0168628254633707
617,0.0168982075166772
618,0.0168466998413836
619,0.0168703215141599
620,0.0168098337467307
621,0.0168125389491171
622,0.0164879630680455
623,0.0164039398359537
624,0.0162539158762477
625,0.0161038919165418
626,0.0159538679568359
627,0.0159544265595932
628,0.0158642636325877
629,0.0157901634814967
630,0.0159000290756034
631,0.0156123867811736
632,0.0156489636724494
633,0.0157322499712267
634,0.0156459684285844
635,0.0156995367945311
636,0.0155543387142703
637,0.0156397199904799
638,0.0154733864408008
639,0.0155026267103911
640,0.0153690320785342
641,0.0152550251461183
642,0.0151304575654484
643,0.0149547594053885
644,0.0147790612453285
645,0.0146033630852685
646,0.0145606514603026
647,0.0145107815677325
648,0.0141345032292893
649,0.0143806709815235
650,0.0141789916015364
651,0.0142614200904736
652,0.014051219880363
653,0.0137820535828322
654,0.0135084384644023
655,0.0135801245125509
656,0.0134359385067
657,0.0135592830282029
658,0.0136243604273177
659,0.01396090574174
660,0.0140035819231855
661,0.0140659780395432
662,0.0140401889831137
663,0.0138842716600487
664,0.0137513049753231
665,0.013803941860907
666,0.013721521661612
667,0.0137095085228236
668,0.013693033902798
669,0.0134265754038984
670,0.0133981840865629
671,0.0133543881007168
672,0.013241686712799
673,0.0132012581723624
674,0.0132439510847212
675,0.0131781365615601
676,0.0131131490335712
677,0.0131860485483464
678,0.0129819864920727
679,0.0129227136241578
680,0.0131780448576285
681,0.0129429247927979
682,0.012654738349677
683,0.0124350674406853
684,0.012022415210377
685,0.0117219299670981
686,0.0114364382051843
687,0.0112665968590317
688,0.0111821676162467
689,0.0112786150255154
690,0.0114589512569072
691,0.0117253609693211
692,0.0118211036252933
693,0.0119575615637561
694,0.0122265463365804
695,0.0123200853506295
696,0.0126394542624364
697,0.0127477899310349
698,0.012703295741765
699,0.0128164732587524
700,0.0130979321191292
701,0.0130906191084785
702,0.0134902770738524
703,0.0135809690283994
704,0.0139675257572181
705,0.0140694497458004
706,0.0143527426405164
707,0.0146117296267355
708,0.0147448157979417
709,0.0149596302401109
710,0.0148733976781778
711,0.0149856161183866
712,0.0150254610613108
713,0.0144570801617979
714,0.0140882928873749
715,0.01336855598005
716,0.0127070509181555
717,0.0121941119545232
718,0.0121230809996608
719,0.0121628609080543
720,0.0123803668770539
721,0.0122991849060397
722,0.0126605991552063
723,0.0126362903370671
724,0.0125732328084166
725,0.0125837360428728
726,0.0125801832267874
727,0.0128145467787771
728,0.012968367413568
729,0.0133148668705492
730,0.0136321287535427
731,0.0141666484798095
732,0.0145961200108168
733,0.01501451850416
734,0.0153617615783095
735,0.0154655443485187
736,0.015723848501095
737,0.0158162868672382
738,0.0159087252333814
739,0.0160011635995246
740,0.0163049233263341
741,0.0164556700313036
742,0.016520110551331
743,0.0165845510713585
744,0.0166489915913859
745,0.0166749527164491
746,0.0165838135352627
747,0.0166403039182685
748,0.0163487145941024
749,0.0164817982253115
750,0.0163781475150005
751,0.0162055501267619
752,0.0163704965229029
753,0.01611526750289
754,0.0159222956659262
755,0.0148803305766035
756,0.0138383654872809
757,0.0127964003979582
758,0.011175477223468
759,0.0097345475084721
760,0.0087453836733174
761,0.0084804907575301
762,0.00877972052479275
763,0.00932177748192492
764,0.0102877160981586
765,0.0111408884545657
766,0.0121693718809541
767,0.0132064268497184
768,0.0137354418773693
769,0.0141135464117868
770,0.0143819447091953
771,0.0145499919287874
772,0.0146161175059694
773,0.0147775710043852
774,0.0146525194421652
775,0.0146002969752805
776,0.0145859342405627
777,0.0143873738378539
778,0.0144653805987516
779,0.0142837393160776
780,0.0143533400264644
