"wavelength","measurement"
380,0.0248069074839738
381,0.0235101904055717
382,0.0239197774787344
383,0.0231514395012739
384,0.0240282132175543
385,0.0246204811576569
386,0.0255531678016924
387,0.0272710083228907
388,0.02857690059161
389,0.02919302199755
390,0.0296419210603536
391,0.0292485427495914
392,0.029589903768882
393,0.0296961495663629
394,0.0312343896636964
395,0.0337590726713188
396,0.0376604173558568
397,0.0422364040861719
398,0.0468123908164871
399,0.0513883775468023
400,0.0544067365696961
401,0.057931545297566
402,0.0605743734071009
403,0.0612842547548547
404,0.0625564290163177
405,0.0632170111727361
406,0.0654660753805062
407,0.0661075326249622
408,0.0675799453229323
409,0.0693077823439195
410,0.0728632512539911
411,0.0740933446020648
412,0.0759003924911919
413,0.0780062562531633
414,0.0769616618375663
415,0.0787291566591737
416,0.0786557185036756
417,0.0770806219340443
418,0.0791159995810089
419,0.0776401648818829
420,0.0791258870074674
421,0.0789020403807469
422,0.0792100162692923
423,0.079354013734984
424,0.0793734565563112
425,0.0778485338926225
426,0.07700602150338
427,0.0746491324522178
428,0.072190666890371
429,0.0724431835485604
430,0.0723171528030445
431,0.0746572024034203
432,0.0774270881264112
433,0.0801177135498014
434,0.083100491305615
435,0.0843885657931459
436,0.0855521801669374
437,0.0867413664615453
438,0.0879305527561532
439,0.0891197390507611
440,0.0893358496976896
441,0.0906779664528615
442,0.091953379355425
443,0.0928255449034592
444,0.094393221447156
445,0.0959608979908527
446,0.0975285745345494
447,0.0982376082529725
448,0.099095705471306
449,0.101753867039132
450,0.100869512359388
451,0.100630370817056
452,0.10019557672647
453,0.0997607826358837
454,0.0993259885452977
455,0.0993375310331063
456,0.0990958993497275
457,0.100171423408413
458,0.101321492051665
459,0.10233624559013
460,0.102578878172393
461,0.101102178548933
462,0.103670185266415
463,0.100738300733105
464,0.0996662365954805
465,0.0992186329931134
466,0.0977611418430205
467,0.0977823636157479
468,0.0970555366918965
469,0.0965380140946058
470,0.0985225950322774
471,0.0989481514097608
472,0.0994504878113
473,0.100787071274098
474,0.100940368679713
475,0.102820944976891
476,0.101144124481495
477,0.101194334900653
478,0.101244545319811
479,0.10129475573897
480,0.100951635224611
481,0.0991059863042984
482,0.0969673194602502
483,0.0964681122138667
484,0.0942700637321386
485,0.0922308207778965
486,0.0932021557800472
487,0.0939283233656484
488,0.0947894089636361
489,0.0974420999944225
490,0.0976460066396628
491,0.098761986705901
492,0.100769645616932
493,0.099444179006155
494,0.100889529839556
495,0.0989726195107641
496,0.0999372184114521
497,0.0981590959014009
498,0.0984369158255884
499,0.0962465436236246
500,0.096547850698438
501,0.0950314075936633
502,0.0968277134629735
503,0.0973615262419705
504,0.0962200492837279
505,0.0989316278878957
506,0.0983458830905434
507,0.0988690244459152
508,0.0992807852024737
509,0.0989568266325315
510,0.0976872996240198
511,0.0987582083491495
512,0.0979661001698712
513,0.0948615520413664
514,0.0942697623014161
515,0.0928162291174861
516,0.0923000697212705
517,0.0916651156366076
518,0.0916519231914376
519,0.0937047496271195
520,0.0949618312807917
521,0.0959190929139943
522,0.0968763545471968
523,0.0978336161803993
524,0.0971839816977648
525,0.0973444160309051
526,0.0972991503751732
527,0.0970782378309975
528,0.0976170100128193
529,0.0989081801622885
530,0.0986963886148544
531,0.0991100564445132
532,0.0985855260448942
533,0.0993855170879489
534,0.0991788915058331
535,0.0983271446745911
536,0.0990381796016787
537,0.098326774782562
538,0.0978624083604081
539,0.0968513731456105
540,0.097483905755361
541,0.0965732295122185
542,0.0960802042977889
543,0.0962375623665721
544,0.0969901482734958
545,0.0964556248829772
546,0.0970490114864971
547,0.0969478974139818
548,0.0968467833414664
549,0.0967456692689511
550,0.0958870088683468
551,0.0964881921329814
552,0.0976562293487945
553,0.0964409194842501
554,0.0958723767609475
555,0.0969367348927656
556,0.0954613713184396
557,0.0949961015706733
558,0.0943166788092723
559,0.093500944922576
560,0.0946434488448044
561,0.092698037081513
562,0.0939104524606479
563,0.0926059198910148
564,0.0929794104587096
565,0.0915039654618741
566,0.0905339382370899
567,0.0892391639248888
568,0.0897908473687673
569,0.0884501943556995
570,0.0884226365841141
571,0.0885994597819
572,0.0885678398590276
573,0.0883768150355766
574,0.0891462382958758
575,0.0879330670046236
576,0.0882636121643301
577,0.0885941573240366
578,0.0889247024837431
579,0.0892552476434496
580,0.0895857928031561
581,0.0906544294523005
582,0.0900625492872013
583,0.0908773124743464
584,0.088964037108219
585,0.0885913125411559
586,0.0855169241247194
587,0.0840482709689357
588,0.0829296362949801
589,0.0818110016210245
590,0.080692366947069
591,0.0811837968599471
592,0.0821680178290228
593,0.0823591892908715
594,0.0837898480530729
595,0.0839911427803457
596,0.0850371499416189
597,0.0856414097070373
598,0.0861996469579976
599,0.0864056743621062
600,0.0875869175693143
601,0.0883370183155964
602,0.088575768847952
603,0.0886386211319988
604,0.0893279881019038
605,0.0885925667349687
606,0.0890887963800417
607,0.0887048509896576
608,0.0874848765385535
609,0.0873513098069422
610,0.0867522165053906
611,0.0862718980927223
612,0.0855218778076492
613,0.0855541291114356
614,0.0843375822047652
615,0.0855209751323217
616,0.0842732312871403
617,0.0850697614614392
618,0.084977541202571
619,0.0852474105567621
620,0.0848851939463131
621,0.085238775886588
622,0.0837625572854569
623,0.08338314804487
624,0.0827984516436649
625,0.0822137552424598
626,0.0816290588412547
627,0.0816036595433056
628,0.0812876725952069
629,0.0810897905374102
630,0.081670521885277
631,0.0807344694037496
632,0.0813129268336278
633,0.0820784674561725
634,0.0823239026837945
635,0.0827137432333906
636,0.082349230111594
637,0.0826906670698861
638,0.0823916801127968
639,0.0828041301777807
640,0.082625336003777
641,0.0819667873149857
642,0.0814156168966732
643,0.0806672198519291
644,0.0799188228071851
645,0.079170425762441
646,0.0794681119833188
647,0.0789738618187525
648,0.0776755996263767
649,0.0789237771886747
650,0.0782664467676663
651,0.078827890490941
652,0.0780130760989706
653,0.0771035356158901
654,0.0760388822868161
655,0.0767646626492867
656,0.0759703125387229
657,0.0774164611523984
658,0.078289288879386
659,0.0803677411342879
660,0.0811171554318193
661,0.0813277588098741
662,0.0819509630372188
663,0.081669300012687
664,0.0812881115061162
665,0.081655879982979
666,0.0814852952055704
667,0.0818000010815689
668,0.0821262301206302
669,0.0809066986507401
670,0.0809250530264896
671,0.0811154426035945
672,0.0806296804544127
673,0.0808209608268188
674,0.0810931249954101
675,0.081169291823488
676,0.0809450430287678
677,0.0814116706384535
678,0.0807634107276855
679,0.0806276023296161
680,0.0826452724120895
681,0.0808955646550289
682,0.0787490061252538
683,0.0769244182970355
684,0.0741747879478505
685,0.072144562393428
686,0.0700591809030484
687,0.0689066047302934
688,0.0683811815018967
689,0.0687545107097687
690,0.069445697310378
691,0.0709965285608202
692,0.0714158418851885
693,0.0721111184750316
694,0.0734998461518201
695,0.0737342225386734
696,0.0754736967754683
697,0.0760710696162768
698,0.0757688770318208
699,0.0760189201578174
700,0.0777768286134412
701,0.0781909562114888
702,0.0799534128257904
703,0.0809557722243359
704,0.0828617877104675
705,0.0838397033685888
706,0.0855637698992091
707,0.0870467028020954
708,0.0884308801632256
709,0.0895336566104471
710,0.0897622864951364
711,0.0901185125451426
712,0.0906103375576185
713,0.0867878522889068
714,0.0846825004596296
715,0.0799499564012988
716,0.0758726200370102
717,0.0729799463351394
718,0.0729118791154684
719,0.0740823251251845
720,0.0757146418109122
721,0.075685348235258
722,0.0780170098089668
723,0.0778787245792697
724,0.0780341757779461
725,0.0786896901231184
726,0.0791089370108627
727,0.0812936076133979
728,0.0835496918206356
729,0.0869188222489041
730,0.0900856349348655
731,0.0940862012290368
732,0.0986187533696981
733,0.102369106659758
734,0.105862819550741
735,0.107448255202681
736,0.110337812130126
737,0.112202050814173
738,0.11406628949822
739,0.115930528182267
740,0.119376970243224
741,0.120660483274883
742,0.122342017029133
743,0.124023550783383
744,0.125705084537633
745,0.126594600098696
746,0.127148420495075
747,0.128058217273324
748,0.127229246938596
749,0.128123810892328
750,0.128905154543272
751,0.127715656402226
752,0.130972971507367
753,0.129487050203949
754,0.127713995806636
755,0.119022671555992
756,0.110331347305349
757,0.101640023054705
758,0.0871532883590281
759,0.0754182853160879
760,0.0678275421388523
761,0.0669089543459455
762,0.0692709967785809
763,0.0758793647076956
764,0.0842153688134585
765,0.0922210844223306
766,0.102960479761833
767,0.111858652225653
768,0.118011296858704
769,0.122347010842564
770,0.125762830935001
771,0.126984828450035
772,0.128649355420752
773,0.130288084922719
774,0.130088746493512
775,0.130440562442793
776,0.130303995971951
777,0.129537023714367
778,0.131539835660485
779,0.130127682809445
780,0.131718363761652
