"wavelength","measurement"
380,0.0285021233942492
381,0.0281582792329611
382,0.0267758440463961
383,0.0264649525506171
384,0.027309175110636
385,0.0279969336519974
386,0.0298006070486247
387,0.0311317268562313
388,0.0325786380876249
389,0.0331737364212153
390,0.0336020449851744
391,0.0335078777679148
392,0.0343155530257423
393,0.0342620494277763
394,0.0358438929344277
395,0.0381674292621617
396,0.0427677262162987
397,0.0479631149486184
398,0.0531585036809381
399,0.0583538924132577
400,0.0614317302931078
401,0.0652476609899344
402,0.0681333358652527
403,0.0689861394991035
404,0.0698794226274177
405,0.0703510134194421
406,0.0732188740263095
407,0.0736978999195869
408,0.0751165869882191
409,0.0771319988754208
410,0.0803854882215568
411,0.0820821120949199
412,0.0837167794422503
413,0.0857958236469032
414,0.0853322619634051
415,0.0873944258567114
416,0.0862577652829391
417,0.0855495460176006
418,0.0868222965750101
419,0.0852980136433089
420,0.0869731164494419
421,0.0871171303314893
422,0.0870507354800146
423,0.0873998809305172
424,0.0876505342903396
425,0.086032132492191
426,0.0842687576252146
427,0.0819354870874328
428,0.0796513702768312
429,0.0792294832118379
430,0.0790845490041476
431,0.0823450717661026
432,0.085397298215896
433,0.0880593305305967
434,0.091332094749916
435,0.0927973621594882
436,0.0937174376498881
437,0.0950122439753334
438,0.0963070503007788
439,0.0976018566262241
440,0.0976181183137797
441,0.0999497037046
442,0.101192716851629
443,0.102255647315428
444,0.103648535324816
445,0.105041423334204
446,0.106434311343592
447,0.108375400919344
448,0.108400318309435
449,0.111965629774882
450,0.111145079687145
451,0.110314134332436
452,0.109787115570555
453,0.109260096808674
454,0.108733078046793
455,0.108518471106117
456,0.109014593535748
457,0.109874695988875
458,0.110680133320586
459,0.111801905544221
460,0.111909867179998
461,0.110991500993954
462,0.113511232508264
463,0.110461687981556
464,0.109113371589214
465,0.108572256409374
466,0.107304578513335
467,0.106900039813632
468,0.106512891234689
469,0.105243555885472
470,0.108167946020402
471,0.108137050835266
472,0.108885889248707
473,0.110205494201428
474,0.110430252750092
475,0.112099646662062
476,0.110226005221829
477,0.110298853654423
478,0.110371702087016
479,0.11044455051961
480,0.11040613478227
481,0.108102823093523
482,0.105909478958425
483,0.1052130181937
484,0.103196304525325
485,0.100842926691653
486,0.101936247422252
487,0.102681102183275
488,0.103852948587353
489,0.106788283146395
490,0.106814402081024
491,0.10734571579772
492,0.110094546152452
493,0.108375740453454
494,0.110260802254826
495,0.108425907862608
496,0.109093934368175
497,0.106634076014029
498,0.107380286529578
499,0.104570231152831
500,0.105322863794229
501,0.104087723239844
502,0.10578322866812
503,0.106313202357259
504,0.104795386449548
505,0.107956322410851
506,0.107440038104086
507,0.107888225285355
508,0.108329357782913
509,0.10840708696984
510,0.106038131140674
511,0.10765451505578
512,0.106579720090896
513,0.103551477928697
514,0.102700706431221
515,0.10084444731401
516,0.100213050336026
517,0.0999463568906229
518,0.0995578096007086
519,0.101555958745341
520,0.103033133798427
521,0.104178593744597
522,0.105324053690768
523,0.106469513636938
524,0.105714677277854
525,0.105987234663526
526,0.106035404884904
527,0.105495036807185
528,0.106061709980088
529,0.1074575629178
530,0.107236427782655
531,0.107453880270384
532,0.106873288344499
533,0.107589187098156
534,0.107728274261345
535,0.106736373614439
536,0.107373698016251
537,0.106798402450525
538,0.105662876606477
539,0.105111796799691
540,0.10541401628092
541,0.104629651501277
542,0.104012088374719
543,0.104347450440865
544,0.104986875118845
545,0.10436036497246
546,0.105116291070534
547,0.105015854696511
548,0.104915418322487
549,0.104814981948463
550,0.104156300279283
551,0.104948681033188
552,0.105524222319016
553,0.104507063562836
554,0.104055629301712
555,0.105112049709711
556,0.10298901545482
557,0.102745439628436
558,0.102212486255874
559,0.101479763224813
560,0.102364237051228
561,0.10030371747822
562,0.101850598691526
563,0.100043415708924
564,0.100448051568989
565,0.0987172151747212
566,0.0979554288353095
567,0.0968541879093063
568,0.0972406282742228
569,0.0959754160804507
570,0.0957293221740705
571,0.096251339028955
572,0.0959041783627611
573,0.0956606607444619
574,0.0965135058052265
575,0.0953051577085565
576,0.0956698415692884
577,0.0960345254300202
578,0.0963992092907521
579,0.0967638931514839
580,0.0971285770122158
581,0.0983628893138273
582,0.0977710091487282
583,0.0981886698581583
584,0.0964302558068696
585,0.095785875078581
586,0.0926647687235897
587,0.0909569889341668
588,0.0898591249980162
589,0.0887612610618656
590,0.0876633971257149
591,0.0883062061367154
592,0.08921031449264
593,0.0893696485445107
594,0.0908641551560702
595,0.0911934916408632
596,0.0919321985840877
597,0.092907606416913
598,0.0933251707640029
599,0.093713657672578
600,0.0946803444212386
601,0.0954591247909112
602,0.095946432059318
603,0.0957161725362846
604,0.0969144622349823
605,0.0961106942542356
606,0.0964927244939527
607,0.0958898969099697
608,0.0945081399679446
609,0.0946877564540519
610,0.0938708191353138
611,0.0933581550387989
612,0.0925417671637003
613,0.0925163996766025
614,0.0910900546199411
615,0.0925127039531885
616,0.0911957916045357
617,0.0921055154507912
618,0.0920412935120429
619,0.092408773077668
620,0.0919318163449816
621,0.0922289474428363
622,0.0907134079100882
623,0.0906495177841477
624,0.0899556830875967
625,0.0892618483910457
626,0.0885680136944947
627,0.0883463449829278
628,0.0878980878712961
629,0.0881344663553056
630,0.0886222809142691
631,0.0874554504677516
632,0.0879349350796547
633,0.0886843839678083
634,0.0890106239261897
635,0.0894099810928988
636,0.0890264347368763
637,0.089867018262745
638,0.0893461643548712
639,0.0894382072246008
640,0.0893666480225204
641,0.0890121119931388
642,0.0883204633290333
643,0.087532377665193
644,0.0867442920013527
645,0.0859562063375124
646,0.0856270935494479
647,0.0859008343859004
648,0.083956134347449
649,0.0854722479388284
650,0.0847838587401511
651,0.0854700134049567
652,0.084333623869268
653,0.0835334163396108
654,0.0822137825579341
655,0.0831903690386827
656,0.0824433424695809
657,0.0837465255398088
658,0.0847091122691121
659,0.0868934585180714
660,0.0878152101000491
661,0.0883813023846248
662,0.0886601781018811
663,0.0886618507232135
664,0.0881731244432659
665,0.0882839875154283
666,0.0885019402603329
667,0.0885991914352995
668,0.0888328497442617
669,0.08740178983036
670,0.0875081729144048
671,0.0876630482067379
672,0.0873368191662503
673,0.0874561625647522
674,0.0876292025146416
675,0.0876641234590047
676,0.087450862031315
677,0.0882381996377087
678,0.0873506400638994
679,0.0868709357292467
680,0.0892251479987161
681,0.0875295119297975
682,0.085324555976829
683,0.0833081650564333
684,0.0804776867191384
685,0.0779580042436542
686,0.0760375630307831
687,0.0743979090912448
688,0.0742593363484913
689,0.0743397267786851
690,0.0754194509016076
691,0.0764196593373621
692,0.0773057627311228
693,0.0780408360834385
694,0.0794479481341953
695,0.0796426142732771
696,0.0814476666534506
697,0.082287583458589
698,0.0812705631568954
699,0.0821839577530183
700,0.083844147853832
701,0.0839652934168508
702,0.0858620424758219
703,0.0869398210649879
704,0.0890876451404906
705,0.0898648034348782
706,0.0916760335267835
707,0.0937182839718108
708,0.0942820424230998
709,0.0959498463827301
710,0.0958010126268377
711,0.0967448465262208
712,0.0966162746176304
713,0.0925791031183196
714,0.090248250720815
715,0.0847873393945357
716,0.0808600627791789
717,0.0780088728764506
718,0.0775897290000112
719,0.079081793410796
720,0.0806563615335881
721,0.0807421325103001
722,0.0834627641798273
723,0.0831626964592093
724,0.0832533914041668
725,0.0840082678834689
726,0.0846724378898213
727,0.0865706799459305
728,0.0891979771066008
729,0.0924613000555131
730,0.095960069649316
731,0.100412026396097
732,0.104794129471672
733,0.109731291430423
734,0.112283075513972
735,0.114691265972681
736,0.117699780614038
737,0.119627045257784
738,0.12155430990153
739,0.123481574545275
740,0.12700445234459
741,0.128163124662666
742,0.130043815258681
743,0.131924505854696
744,0.133805196450711
745,0.134687834093042
746,0.135028828324893
747,0.135925474868587
748,0.135486902122243
749,0.136649402105057
750,0.137363048002448
751,0.136323869154436
752,0.138759294599818
753,0.137805784766522
754,0.136074689999207
755,0.126725378189901
756,0.117376066380594
757,0.108026754571288
758,0.0930075651481392
759,0.0800732088048584
760,0.0729282326246656
761,0.0711941140025257
762,0.0737173765805252
763,0.080610367061682
764,0.0894155944628037
765,0.0987320943069394
766,0.109426848060712
767,0.119759823583718
768,0.125505632835188
769,0.129793331159978
770,0.133668630829571
771,0.135482821473137
772,0.136747304466304
773,0.13836665467524
774,0.138373999866788
775,0.138386245614536
776,0.13906629140669
777,0.138063134015303
778,0.139495900596352
779,0.138170435475741
780,0.139894003008726
