"wavelength","measurement"
380,0.0149326884036511
381,0.0145542538442418
382,0.0147534183605442
383,0.014812626728756
384,0.015089632330728
385,0.0158644371473035
386,0.0167794679953187
387,0.0172298379252837
388,0.0187839996519902
389,0.0191639676435332
390,0.0198110588559234
391,0.0194659756500288
392,0.0203702008355002
393,0.0211364318768504
394,0.0216372989193404
395,0.0243846044935004
396,0.0268989660308054
397,0.0307459374926974
398,0.0345929089545895
399,0.0384398804164816
400,0.0406030683770664
401,0.0442932652328129
402,0.0465852293410155
403,0.0479277949143513
404,0.0491220622079888
405,0.0509080834108044
406,0.0521609330293966
407,0.0534608131626939
408,0.0544564759040091
409,0.0561778864623245
410,0.0603302722243105
411,0.0611135197169948
412,0.0630220144438522
413,0.06493000213724
414,0.0649629681632405
415,0.0663773974190375
416,0.0663244502455729
417,0.0653596486445229
418,0.0665698351164285
419,0.0652652911608572
420,0.0673351575370609
421,0.0668630661259097
422,0.0674886372436692
423,0.0682006325377113
424,0.0679801299008658
425,0.0665682921534953
426,0.0659860190698288
427,0.0640748028757039
428,0.06190201066887
429,0.0625549368954806
430,0.0621189673406016
431,0.064734541701131
432,0.0666841254015772
433,0.0692093346728631
434,0.0714583298565028
435,0.0732797275499758
436,0.0735852423904144
437,0.0747253655401781
438,0.0758654886899418
439,0.0770056118397055
440,0.0773638083351051
441,0.0783289209875568
442,0.0807970802319611
443,0.0811488526810846
444,0.0823382228140549
445,0.0835275929470251
446,0.0847169630799953
447,0.0858324462956852
448,0.0861140841770758
449,0.0889494697023747
450,0.0880485596853343
451,0.0877579250665255
452,0.087425972101793
453,0.0870940191370604
454,0.0867620661723278
455,0.0866330195519844
456,0.0866386829365623
457,0.0876505910494361
458,0.0880144498641906
459,0.0891751324291679
460,0.0893734186537453
461,0.0885815739064685
462,0.0904460638702871
463,0.0883946773036455
464,0.0875440299603973
465,0.087048665280904
466,0.0858295661705967
467,0.0857894500672406
468,0.0850177143351782
469,0.0851082273937809
470,0.0867849718515161
471,0.0870285242872046
472,0.087960621993771
473,0.0890785120670129
474,0.0894888095522434
475,0.0909735522684797
476,0.0895487066074886
477,0.0896786127624106
478,0.0898085189173326
479,0.0899384250722546
480,0.090122707782106
481,0.0879973697830055
482,0.0863164965452127
483,0.0862128759066973
484,0.0844553728718452
485,0.0821380577770285
486,0.0834665587976432
487,0.0839500751718913
488,0.0849765254735038
489,0.0871986278197258
490,0.0874283961074983
491,0.0879111842120679
492,0.0901381778250803
493,0.0889057653851803
494,0.0903425123190814
495,0.0889008480389849
496,0.0893640199870698
497,0.0875399941554571
498,0.0878153931099025
499,0.0861882769993369
500,0.0864987668045538
501,0.0855662429418717
502,0.0870981364045572
503,0.0874493093942271
504,0.0863695364384378
505,0.0889766784628171
506,0.0885565345957758
507,0.0885001854213702
508,0.0892850447112656
509,0.0894268960388133
510,0.0878476199537245
511,0.0892283035544647
512,0.0882825395923343
513,0.0859625887982036
514,0.0852611997043291
515,0.083713557700102
516,0.0831398762089943
517,0.0831220157351226
518,0.083095544930597
519,0.0849968720058522
520,0.0863615729708578
521,0.087096057572451
522,0.0878305421740441
523,0.0885650267756373
524,0.088550224075046
525,0.0886193417675636
526,0.0890311945147706
527,0.0885700152830385
528,0.0888855989459999
529,0.0901379538545512
530,0.0902232578301828
531,0.0904310641511667
532,0.0900931627795124
533,0.0906976027730606
534,0.0911450648248397
535,0.090152158313226
536,0.090506524490058
537,0.0900914546110418
538,0.0892374077253854
539,0.0887804746157781
540,0.0891128543134567
541,0.0886105892761246
542,0.0881969849852107
543,0.0884589383671622
544,0.0888721029241411
545,0.0887408342067979
546,0.0890102822900816
547,0.0889956110990967
548,0.0889809399081118
549,0.0889662687171269
550,0.0882401694032961
551,0.0888415743102521
552,0.0895862388661369
553,0.0885673162893237
554,0.0882627854260777
555,0.0889786263767613
556,0.0876117421862221
557,0.0874144984801328
558,0.086657481142753
559,0.085945336412207
560,0.0867819577584874
561,0.0848504858984139
562,0.0864146510432439
563,0.0848050189240016
564,0.0849727190278275
565,0.0838608083553092
566,0.0828691462579548
567,0.081999327751921
568,0.0822477846183995
569,0.0808877837477392
570,0.0813124211395339
571,0.0810521663000005
572,0.0810891039386129
573,0.0807874260447799
574,0.0814738463389136
575,0.0804883824091542
576,0.0808050056474403
577,0.0811216288857264
578,0.0814382521240125
579,0.0817548753622986
580,0.0820714986005847
581,0.0832039356937706
582,0.082552513024886
583,0.0830283074783411
584,0.0814705953562234
585,0.0808844863029086
586,0.078556783275172
587,0.0772539291423209
588,0.076329098835982
589,0.0754042685296432
590,0.0744794382233043
591,0.0749765737697247
592,0.0757571991795729
593,0.0758659330665745
594,0.0771941025185408
595,0.077508919433256
596,0.078248621951674
597,0.0786254306437066
598,0.0791625557781265
599,0.0794254588267604
600,0.0803132625819851
601,0.0809763745408019
602,0.0812453753236815
603,0.0814010202336356
604,0.0818866560933813
605,0.0815992914365021
606,0.0816571661784983
607,0.081294267840748
608,0.0802527940572057
609,0.0802050992334965
610,0.0793858782536753
611,0.0791147418092502
612,0.0784939600155678
613,0.0783056007346268
614,0.0772473332158615
615,0.078695148922918
616,0.077486561366188
617,0.0781809407032259
618,0.0779056418835104
619,0.0782119113257678
620,0.0779655314591744
621,0.0783709933897748
622,0.0769111253672148
623,0.0768056689077977
624,0.0762782490000888
625,0.0757508290923799
626,0.075223409184671
627,0.0751743829893685
628,0.0749072242111553
629,0.0746714992224503
630,0.0750349399953747
631,0.0742260051530634
632,0.075027483909751
633,0.0756171298315852
634,0.0756898526900649
635,0.0763306404480385
636,0.0754373125419409
637,0.076385100101385
638,0.0756670268819148
639,0.076149775937007
640,0.0758002460115093
641,0.0755320295785296
642,0.0749001697241549
643,0.0742772987107141
644,0.0736544276972732
645,0.0730315566838324
646,0.0732566352824587
647,0.0724622158995266
648,0.0713750837116227
649,0.072673532922157
650,0.0718724891608973
651,0.0726496286684761
652,0.0717716789601124
653,0.0709217869248809
654,0.0696002188821002
655,0.0703722567172357
656,0.0701683077938728
657,0.071255575132171
658,0.0718709300874607
659,0.0738879556098809
660,0.0746583108313504
661,0.0749818556323828
662,0.0755005390117062
663,0.0750446936912302
664,0.0746447800287395
665,0.0749829446586079
666,0.0751452792612999
667,0.0758230817907006
668,0.0757151444412708
669,0.0739408908162296
670,0.0746284914761696
671,0.0742333181231055
672,0.0740314653643385
673,0.0743902947034039
674,0.0743486257504793
675,0.0742162881015115
676,0.0746093559908235
677,0.0746723830703757
678,0.0740312159035906
679,0.0740172324796811
680,0.0757566190202316
681,0.074202620254325
682,0.0723719964919311
683,0.0711485851057543
684,0.0687801930174323
685,0.066657007255711
686,0.0652146675065347
687,0.0638585783049575
688,0.0636005854346342
689,0.0638913475244805
690,0.065241711781681
691,0.0665543102184473
692,0.0669351154040084
693,0.067854884545456
694,0.0691749667590605
695,0.0697488810667745
696,0.0715673270715755
697,0.07176407003193
698,0.0717721488387857
699,0.0721090792960607
700,0.0741997029899238
701,0.0745427190707357
702,0.0764940710593897
703,0.0774900278957134
704,0.0794255191366386
705,0.0805231088650264
706,0.0826450920722371
707,0.0840901711994559
708,0.0849932992599071
709,0.086819460429234
710,0.0866746035533343
711,0.0875032755055172
712,0.0880027218405709
713,0.0845006748409846
714,0.082846836069138
715,0.0779867662820694
716,0.0744883797937199
717,0.0724394459587076
718,0.0722562390647504
719,0.0734311119299231
720,0.0747716828275412
721,0.0753254031960796
722,0.0774754553136908
723,0.0776429921811407
724,0.077885849728438
725,0.078646909468803
726,0.0794230282232555
727,0.0817107044060977
728,0.0833244578134355
729,0.0868294376524477
730,0.0900265430121073
731,0.0946275436132731
732,0.0982469568889194
733,0.102289805292692
734,0.105158201608075
735,0.107292095304332
736,0.110259455345916
737,0.112005384571233
738,0.113751313796549
739,0.115497243021866
740,0.118762891937772
741,0.119980257694071
742,0.121580753743207
743,0.123181249792344
744,0.124781745841481
745,0.126083642865314
746,0.125711951494777
747,0.127405199003883
748,0.126805181952825
749,0.127888884539962
750,0.127624891414122
751,0.127890679096838
752,0.129677255601266
753,0.128929985982532
754,0.127312625698287
755,0.118497969521755
756,0.109683313345223
757,0.100868657168691
758,0.0874062978313619
759,0.0758287669931848
760,0.0683954952387806
761,0.06751243096635
762,0.0702001392469989
763,0.0766343731850297
764,0.0850266342776745
765,0.0935890757427749
766,0.103823830705674
767,0.113029967632295
768,0.118401096184225
769,0.122053885643938
770,0.125562328211059
771,0.12728247515879
772,0.128871166075848
773,0.130778684098753
774,0.129867552277008
775,0.130195022233009
776,0.130860925566829
777,0.129806632120315
778,0.131410981186041
779,0.12977170277354
780,0.131633323696256
