"wavelength","measurement"
380,0.0511121971043564
381,0.0484302909120204
382,0.0479276750074441
383,0.0469259421014089
384,0.0469155961133274
385,0.0483855705376875
386,0.0509915729661758
387,0.0531841244873031
388,0.0551011984875406
389,0.0571375845884158
390,0.0565030694125013
391,0.0557614374984247
392,0.0556060992423439
393,0.0553459436288701
394,0.0561776866135793
395,0.0588046674502388
396,0.0648912860585029
397,0.0714434488708892
398,0.0779956116832756
399,0.0845477744956619
400,0.0881563531563759
401,0.0918424766653451
402,0.0950586199716028
403,0.095296923940649
404,0.0957478508154888
405,0.0953429407731018
406,0.0964067282813142
407,0.0959921563509397
408,0.0966286420170128
409,0.0979122590938346
410,0.10178001722337
411,0.101126824687644
412,0.103329243658867
413,0.105420476010941
414,0.105185593438502
415,0.106643634179932
416,0.105768004848642
417,0.10449937038022
418,0.106249022345338
419,0.103934861486623
420,0.106567259349844
421,0.105930773366272
422,0.106811699596459
423,0.108231936743803
424,0.108163098036301
425,0.105647980536519
426,0.104704260546377
427,0.102739437533137
428,0.0991181527188643
429,0.0988895347032644
430,0.0987085752598071
431,0.102088478174976
432,0.105433232573541
433,0.109114054331276
434,0.114426621477892
435,0.116712256239417
436,0.117814126117645
437,0.119697779894859
438,0.121581433672074
439,0.123465087449288
440,0.124239705194257
441,0.12623349631253
442,0.129017192406071
443,0.130875857232464
444,0.132852173884873
445,0.134828490537282
446,0.136804807189691
447,0.138456723495141
448,0.140072039258449
449,0.145603242073349
450,0.1445961133731
451,0.144126546206436
452,0.143879937977712
453,0.143633329748989
454,0.143386721520265
455,0.143909247308936
456,0.143436829108527
457,0.14516370248076
458,0.146349062684415
459,0.148512219267448
460,0.149323352110137
461,0.147644343423151
462,0.151666819448989
463,0.147875344450676
464,0.146778180021235
465,0.145784656073546
466,0.143747990535487
467,0.143906149944074
468,0.142588208749868
469,0.141465223798609
470,0.144382623963325
471,0.144717331667001
472,0.145319547432067
473,0.147344569557211
474,0.147453601093112
475,0.150112644784134
476,0.147345669070203
477,0.147463163461602
478,0.147580657853001
479,0.1476981522444
480,0.147516016651936
481,0.144036243289591
482,0.141889020879858
483,0.140699643438556
484,0.138248275033426
485,0.134524325704993
486,0.135778729503001
487,0.136482055868026
488,0.138429783525526
489,0.141694701675906
490,0.143707172589667
491,0.144110013942845
492,0.14827964348413
493,0.146673870734852
494,0.149513112960491
495,0.147208415090009
496,0.148293488677064
497,0.145801728532856
498,0.146810283775285
499,0.143431436079455
500,0.144645118717906
501,0.143468437404437
502,0.145951994303554
503,0.146262784768698
504,0.145078339752905
505,0.150163515716665
506,0.14982471044569
507,0.15046242362864
508,0.151799524345737
509,0.151947095002897
510,0.149780137495582
511,0.151830996533324
512,0.151189962247239
513,0.147385170935997
514,0.146429715932766
515,0.14379418572655
516,0.143146917525772
517,0.142809483942319
518,0.142521869132332
519,0.145346575595082
520,0.148086782350035
521,0.15019265122182
522,0.152298520093605
523,0.15440438896539
524,0.153723968069408
525,0.154203079181732
526,0.154965488658807
527,0.154279197674588
528,0.155366259423234
529,0.157767653220395
530,0.157988097467706
531,0.158439185029467
532,0.157809587435461
533,0.159577112559525
534,0.160332001637937
535,0.15856781380729
536,0.160492382387306
537,0.159481085885268
538,0.158360987762722
539,0.15791131416363
540,0.158214755705923
541,0.157812493151876
542,0.156521608235517
543,0.157452351140335
544,0.159092823981273
545,0.157639980286257
546,0.159527252969247
547,0.159376694451883
548,0.159226135934519
549,0.159075577417155
550,0.158433716430588
551,0.159705336673781
552,0.161054216934226
553,0.159874693257275
554,0.15932549816065
555,0.161094909802637
556,0.159199557594588
557,0.1592238258201
558,0.15837345417565
559,0.157042094974913
560,0.159088275041233
561,0.156381910882448
562,0.159235273078914
563,0.157018741175764
564,0.157985896020526
565,0.156347905148305
566,0.155258409423343
567,0.153765766711608
568,0.154305642082862
569,0.153082152333552
570,0.152902270334952
571,0.153133069329625
572,0.153272257750259
573,0.153438582580846
574,0.154681856595888
575,0.152743010377263
576,0.153250071634494
577,0.153757132891725
578,0.154264194148956
579,0.154771255406187
580,0.155278316663418
581,0.157051231528314
582,0.15641881870695
583,0.15754929026853
584,0.155145430909866
585,0.154508815418613
586,0.150381205065527
587,0.147872204564921
588,0.146029636670753
589,0.144187068776585
590,0.142344500882418
591,0.143164160466439
592,0.144357635522836
593,0.14494594192382
594,0.146879971062683
595,0.147207694869672
596,0.148371139695334
597,0.14915502721223
598,0.14990623006525
599,0.150106862452109
600,0.151556807615204
601,0.152279603821227
602,0.152907881233199
603,0.152720581155435
604,0.154571530207495
605,0.153974528704616
606,0.15439288686055
607,0.153859887881073
608,0.152209522937741
609,0.151858435065689
610,0.150616246620121
611,0.150237680162405
612,0.148978631076698
613,0.148443633698158
614,0.146821195426314
615,0.149224437739
616,0.147013733003982
617,0.148547242113566
618,0.148191475503701
619,0.148708393646558
620,0.148320400118452
621,0.149119433472489
622,0.146575932064644
623,0.146127964108309
624,0.145401367678799
625,0.144674771249288
626,0.143948174819777
627,0.143680970429756
628,0.143363256372932
629,0.142935202285602
630,0.144110972635573
631,0.142544639355386
632,0.14365143810487
633,0.144281073712007
634,0.144529374277469
635,0.145409507982123
636,0.144659508202516
637,0.145801911583338
638,0.144928917941885
639,0.145970025692223
640,0.145017038167944
641,0.144849751065935
642,0.143717226534671
643,0.142606803892954
644,0.141496381251236
645,0.140385958609519
646,0.141278172050858
647,0.140563174735052
648,0.137832738011388
649,0.140686030230572
650,0.139087455003473
651,0.140814646444706
652,0.139524449884359
653,0.137231633738708
654,0.134576780509897
655,0.136057500410055
656,0.133982862870041
657,0.135972695217587
658,0.137490046318959
659,0.140921167752315
660,0.142426104450325
661,0.143716601458734
662,0.144235588132033
663,0.1440014290994
664,0.143275668705385
665,0.143598188133583
666,0.144069101320686
667,0.143903670910156
668,0.144398219545399
669,0.141753271208699
670,0.142286215160207
671,0.142726914366146
672,0.141378862012787
673,0.142636857161857
674,0.142563067838927
675,0.14257308478393
676,0.142460580868868
677,0.143784682841167
678,0.142089064191695
679,0.142604468901853
680,0.145134329505258
681,0.143308405318272
682,0.140376809417751
683,0.137760638767536
684,0.133816868631571
685,0.129721092402013
686,0.126907050141822
687,0.12415032647183
688,0.122794973072667
689,0.123701534392275
690,0.125652598935043
691,0.12855974513373
692,0.129517740186557
693,0.131316489313883
694,0.133483910291968
695,0.134095726013982
696,0.137115547703816
697,0.138428305800192
698,0.137448106331351
699,0.138126836922645
700,0.141163760624295
701,0.140780224853995
702,0.143343585917396
703,0.144543499778233
704,0.147703134490344
705,0.148460595625572
706,0.151305889894505
707,0.154002108232178
708,0.154894084082983
709,0.157392729693214
710,0.156835787700928
711,0.15730151926857
712,0.157785576282575
713,0.15232131010996
714,0.149238075343839
715,0.140931126965461
716,0.134871613862179
717,0.129639790715854
718,0.128247535198886
719,0.129769873173809
720,0.13104185566358
721,0.130623969523706
722,0.134936287394486
723,0.134817958696451
724,0.134843749307139
725,0.135635545115963
726,0.134849569942869
727,0.138289579251357
728,0.140127494121873
729,0.144528425894147
730,0.148511910110629
731,0.153685860511089
732,0.15918024008105
733,0.164592280988688
734,0.168834392677107
735,0.170815392795963
736,0.174223455549821
737,0.175993628325925
738,0.177763801102029
739,0.179533973878134
740,0.183652285425132
741,0.18477226308761
742,0.186368586687986
743,0.187964910288363
744,0.18956123388874
745,0.190848546706658
746,0.190439165691023
747,0.192108537281317
748,0.189811329759044
749,0.191721837303913
750,0.192570146142573
751,0.191625723041041
752,0.193534812177608
753,0.192530860219341
754,0.1908387981711
755,0.178724471127304
756,0.166610144083507
757,0.154495817039711
758,0.134644647884496
759,0.1165251053646
760,0.103842317772588
761,0.10049471591938
762,0.104025305490118
763,0.111520957572849
764,0.123838474507097
765,0.136063207179631
766,0.150462494595342
767,0.164970053518887
768,0.172879933225974
769,0.179706900484
770,0.18399856976453
771,0.186530369534471
772,0.188665492238844
773,0.191651874960144
774,0.190436953095332
775,0.191665222865199
776,0.191720887287124
777,0.190469987607473
778,0.192214985130531
779,0.1902770495611
780,0.192816814808369
