"wavelength","measurement"
380,0.00621569620663013
381,0.00643353090097725
382,0.0065147958067506
383,0.00644701452090463
384,0.00669073198468318
385,0.00695545158623375
386,0.00778265789302097
387,0.00816275778085964
388,0.00862143101204748
389,0.00900890991054549
390,0.00927280778037254
391,0.00942333791913687
392,0.00981655747612171
393,0.0104956381666078
394,0.0109174726191502
395,0.0120275095043032
396,0.0136837244620819
397,0.0157598206242526
398,0.0178359167864234
399,0.0199120129485941
400,0.0215141259153659
401,0.0236541046583374
402,0.0249354818577707
403,0.0260241223779327
404,0.0268411759125565
405,0.0276140116741094
406,0.0285710617321901
407,0.0296436881997023
408,0.0302714276647617
409,0.0315787624277426
410,0.0335652058615585
411,0.03412025799451
412,0.0352751062716207
413,0.0363233270822781
414,0.0368129498130424
415,0.0374125448389631
416,0.0372052263563186
417,0.0370676838186862
418,0.0376824238731489
419,0.0371282066558188
420,0.0380052156492981
421,0.0379892122448076
422,0.0380324030039454
423,0.0385170075488485
424,0.0385682587026763
425,0.0375592895866493
426,0.0372101580657484
427,0.0361067038156027
428,0.0348669221172557
429,0.0346748958529588
430,0.0348093301523732
431,0.0359458923923576
432,0.0369077036415952
433,0.0380711208574819
434,0.0397913758740491
435,0.0404723466945934
436,0.0407561087457975
437,0.0413468716341687
438,0.0419376345225398
439,0.042528397410911
440,0.0426662249324488
441,0.0434980058250332
442,0.0441458641528696
443,0.0445845865467057
444,0.0451423977289917
445,0.0457002089112777
446,0.0462580200935637
447,0.0466553105705891
448,0.047011160192515
449,0.0485931863509938
450,0.0480671516258588
451,0.0475787592000151
452,0.0473409107805245
453,0.047103062361034
454,0.0468652139415434
455,0.0468128990248692
456,0.046542719731491
457,0.0469212599396816
458,0.0471610846154935
459,0.0475902003826199
460,0.0477653491104315
461,0.0471223488853813
462,0.0483116934516368
463,0.0470909980481611
464,0.0466049805660085
465,0.0461810613973139
466,0.0456764166099523
467,0.0456096375484395
468,0.0452003613337666
469,0.0450332148932361
470,0.0456299283986204
471,0.0457152770016651
472,0.0461757799979636
473,0.0467582165204415
474,0.0469721771802667
475,0.0476321059846999
476,0.0469319349311772
477,0.0469547890437625
478,0.0469776431563477
479,0.0470004972689329
480,0.0470765476551553
481,0.0459982467425143
482,0.0451396519942893
483,0.0450029837481351
484,0.0438170375624576
485,0.0427123761200717
486,0.0430358915034972
487,0.0434187583211494
488,0.0436957965930308
489,0.0447968202885813
490,0.0448856803011358
491,0.0451019135890226
492,0.0461373460336867
493,0.0456050200272335
494,0.0463462224171919
495,0.0455926399010449
496,0.0457950368064305
497,0.0449017221134617
498,0.045008996105064
499,0.0438309384303386
500,0.0439802368666662
501,0.0434419222265279
502,0.0441403674783593
503,0.044171849341443
504,0.0435090856959189
505,0.0448058700805644
506,0.0447136153247883
507,0.0447232112440391
508,0.0449423159663464
509,0.0447986862200527
510,0.0440794964360391
511,0.0446221422798787
512,0.0441737719056987
513,0.0429436395603811
514,0.0425163592791201
515,0.0416971359547593
516,0.0411987147503134
517,0.0410058595325293
518,0.0408780617631718
519,0.0415174821183177
520,0.0421419876686012
521,0.0425463350221782
522,0.0429506823757553
523,0.0433550297293323
524,0.043016590107676
525,0.0430098907093413
526,0.0431116597660596
527,0.0427610615117337
528,0.0428951558288175
529,0.0433660119154519
530,0.0431875530694977
531,0.0431923400727337
532,0.0429892321950472
533,0.0433695593905787
534,0.0433581398570937
535,0.0427810275489413
536,0.0430652279306932
537,0.0427600799953803
538,0.0424356344314943
539,0.0420078958088507
540,0.0421234951984809
541,0.0418068037939613
542,0.0414467413416461
543,0.0417028487336563
544,0.0418220897428756
545,0.041503487280607
546,0.0417322249997805
547,0.0416786497748095
548,0.0416250745498385
549,0.0415714993248675
550,0.041302438085502
551,0.0413443921184423
552,0.0415364109278939
553,0.0411779461165426
554,0.0408530548479903
555,0.0411367491760301
556,0.0405437986688228
557,0.0403051645879287
558,0.0399423886784447
559,0.0394548845993119
560,0.0398319808670891
561,0.0390236379802619
562,0.0395625420218582
563,0.0390188331503441
564,0.0388656710673202
565,0.0383291016312316
566,0.0379985282472733
567,0.0373780609775879
568,0.0376254268437704
569,0.0369635648566622
570,0.0369576353463758
571,0.036853901440385
572,0.0369092138433329
573,0.0367107684119873
574,0.0369484256980214
575,0.0365650072691982
576,0.0366775476217798
577,0.0367900879743613
578,0.0369026283269429
579,0.0370151686795244
580,0.037127709032106
581,0.0375631041153004
582,0.0373848896158522
583,0.0375709728814494
584,0.0370329883516424
585,0.0367385443772392
586,0.0358774366424125
587,0.0351661777533945
588,0.0347386637817509
589,0.0343111498101072
590,0.0338836358384635
591,0.0340565938699205
592,0.0343745861553658
593,0.034432244892931
594,0.0350197181117055
595,0.0350817098641378
596,0.0353802288716992
597,0.0355380095607471
598,0.0355930062352164
599,0.0357786632703217
600,0.0360662768651468
601,0.0362238076944808
602,0.0365000920694563
603,0.036456896403824
604,0.0368068242150885
605,0.0365040383697195
606,0.0365230400751066
607,0.0364403294601885
608,0.0360045927164952
609,0.0359775377308436
610,0.0356633030226444
611,0.0354186594054898
612,0.0350210518295411
613,0.0349380970810174
614,0.0346460810256043
615,0.0350720096223001
616,0.0345988862785411
617,0.0347558933680959
618,0.0348954159715848
619,0.034927874933126
620,0.0349117302177273
621,0.0348601052219898
622,0.0343296466935759
623,0.0341764438640837
624,0.0339216063307665
625,0.0336667687974493
626,0.0334119312641322
627,0.0334701780515727
628,0.0333563037478631
629,0.0331623916972045
630,0.0334427024918758
631,0.0330190754062891
632,0.033343496534098
633,0.0334956079021517
634,0.0335396551566321
635,0.0337765358853689
636,0.0335214974605377
637,0.0338427540431836
638,0.0336558720790298
639,0.0337292477755586
640,0.0335602962766266
641,0.033545669814365
642,0.0332112485291003
643,0.0329802449997389
644,0.0327492414703775
645,0.0325182379410161
646,0.0324101149190761
647,0.0322683966628309
648,0.031665123235117
649,0.0322590614403769
650,0.0318876989177188
651,0.0322882909327799
652,0.0318532034188543
653,0.0314316058461615
654,0.0309541995895058
655,0.0313447807248709
656,0.030882904372814
657,0.0313147924954904
658,0.0316896458471117
659,0.0324490088880535
660,0.032876226760371
661,0.0329930840246069
662,0.0331840988798098
663,0.0329767037596754
664,0.0329080592286805
665,0.0328232275633188
666,0.0329730344350453
667,0.0331119331529146
668,0.0331911216218012
669,0.0326646935571569
670,0.0326823847192394
671,0.0327057349427097
672,0.0325094574231961
673,0.0326050530914671
674,0.0327081514082889
675,0.0327342990775897
676,0.0327379971373535
677,0.0329111823716461
678,0.0325375935393224
679,0.0324896853179346
680,0.0333329873156787
681,0.0329007327603689
682,0.0320501650101938
683,0.0314488328385243
684,0.0304464113004433
685,0.0295213972591822
686,0.0288831430144969
687,0.0282071998770899
688,0.0281218981516247
689,0.0280874219822058
690,0.0286872094039737
691,0.0293928181549385
692,0.0296683912616119
693,0.0301537614836263
694,0.0308589528971097
695,0.0311692248854698
696,0.0318655163551609
697,0.0323766727239025
698,0.0322372499182434
699,0.0325290243226556
700,0.0333829065038287
701,0.0336318866566651
702,0.0343618057430721
703,0.0349188357027968
704,0.0358830431702257
705,0.0361903518656614
706,0.0372561742043671
707,0.0380595201548353
708,0.0385657142967027
709,0.0393868355120587
710,0.039654281708369
711,0.0400431651830617
712,0.0405380344287068
713,0.0391983997384952
714,0.0384805805048682
715,0.0366414283720742
716,0.0351333625889711
717,0.0340435618142531
718,0.0340629295677965
719,0.034424627601123
720,0.0355109428289114
721,0.0356490596405253
722,0.0369482471831191
723,0.0371132974369789
724,0.0374686220074249
725,0.0378434088260889
726,0.0381636780708629
727,0.0392136325845602
728,0.0402298775482429
729,0.0417920592300205
730,0.0432143919699589
731,0.0453010310877267
732,0.0474087184236755
733,0.0495346296045083
734,0.0512196400339255
735,0.0517779327328285
736,0.0534302276466933
737,0.0544044546147205
738,0.0553786815827476
739,0.0563529085507747
740,0.0577500279805478
741,0.0587208499051798
742,0.059611160109681
743,0.0605014703141822
744,0.0613917805186834
745,0.0620283568383205
746,0.0622921968483023
747,0.0631900291216945
748,0.0625902841027021
749,0.0633205539179345
750,0.0638306778746363
751,0.0638532562464734
752,0.0649884183723908
753,0.0644412841672232
754,0.0642779952279556
755,0.0601862399407156
756,0.0560944846534757
757,0.0520027293662357
758,0.0449584759682995
759,0.0388679742299773
760,0.0341969225479853
761,0.0332938398298663
762,0.0344589723729731
763,0.0374916503349886
764,0.0418352075332289
765,0.0461165657654542
766,0.0514319876751952
767,0.0566443879049842
768,0.0594349792806052
769,0.0614759889457511
770,0.0638247764146886
771,0.0646664773449009
772,0.0653271221701484
773,0.0664248122984034
774,0.0663399486317717
775,0.066483764662284
776,0.0666865883461667
777,0.0661162510930794
778,0.0671368380644901
779,0.0663023122285109
780,0.0672975006142274
