"wavelength","measurement"
380,0.118992743401602
381,0.116435956239371
382,0.112955429350493
383,0.111696314991698
384,0.11221394069954
385,0.116845795473423
386,0.122669459488676
387,0.127319859152691
388,0.133176070125565
389,0.135482588157877
390,0.134406647066664
391,0.132120169438866
392,0.133625954084593
393,0.133907743050466
394,0.13437334177201
395,0.142331714654881
396,0.157010194508279
397,0.171888990368686
398,0.186767786229092
399,0.201646582089499
400,0.212124019954686
401,0.222369342985334
402,0.230259076089085
403,0.230729826710946
404,0.22831952105195
405,0.228969547510305
406,0.232019410794765
407,0.231204913812873
408,0.233004245123159
409,0.234310111420814
410,0.245367831712028
411,0.244135259673742
412,0.248193702305696
413,0.253437382593923
414,0.252660799263174
415,0.255556004999861
416,0.253439555193698
417,0.251903907844119
418,0.254650953751771
419,0.249059885111945
420,0.255453217408887
421,0.253340641330603
422,0.257133081735956
423,0.258199835372199
424,0.258810052619021
425,0.252530224360386
426,0.250612960538771
427,0.244073764629833
428,0.237911126868581
429,0.236022154369661
430,0.235898704897152
431,0.245684377571822
432,0.254194937123395
433,0.263619506607661
434,0.274825577442834
435,0.279884414572528
436,0.282743625927123
437,0.287528651832508
438,0.292313677737893
439,0.297098703643277
440,0.300045867950931
441,0.304531523382741
442,0.312776634980633
443,0.313996830437944
444,0.319866229602194
445,0.325735628766444
446,0.331605027930693
447,0.337004751217419
448,0.338328077660457
449,0.352392983676351
450,0.349550730142406
451,0.348665714200722
452,0.348705748297614
453,0.348745782394505
454,0.348785816491397
455,0.348229557015212
456,0.350107428157328
457,0.352971737497282
458,0.355769558875605
459,0.361241115409772
460,0.363490167280549
461,0.359878376080469
462,0.371395852866129
463,0.360895889734491
464,0.3580336943581
465,0.355460630937285
466,0.35238114135095
467,0.351895089250237
468,0.349246177043956
469,0.346206270924806
470,0.35493592163174
471,0.353994582697876
472,0.357475965200629
473,0.3618305193713
474,0.36392480821406
475,0.369466094035222
476,0.363161715867811
477,0.363578938461223
478,0.363996161054635
479,0.364413383648048
480,0.363642913955347
481,0.355544221891006
482,0.349894667473206
483,0.347245277210674
484,0.33956803941526
485,0.332624205410951
486,0.336402010066821
487,0.338623552981897
488,0.343089501856504
489,0.352084750201424
490,0.355045911979555
491,0.358157033611729
492,0.365774990418218
493,0.363674737500501
494,0.371383701200413
495,0.365432190308513
496,0.367743318197104
497,0.361641787749195
498,0.362975518080477
499,0.355404893188507
500,0.358197022382047
501,0.355526039926938
502,0.361833989052472
503,0.364026338091669
504,0.36113080208544
505,0.373001729264979
506,0.369976729931535
507,0.372715840656791
508,0.374724461753047
509,0.375666960688322
510,0.370362612836178
511,0.374150368724562
512,0.37217883270237
513,0.36095711047226
514,0.359739886185681
515,0.353857617422548
516,0.35111939056425
517,0.350936142841717
518,0.349911407967831
519,0.356750669524505
520,0.363044130387723
521,0.367393086667691
522,0.37174204294766
523,0.376090999227628
524,0.374189507579874
525,0.375276939605025
526,0.377346753584437
527,0.373807872709147
528,0.375609074673936
529,0.382093181454348
530,0.382375380379728
531,0.38367244064631
532,0.38284422039163
533,0.3854701431225
534,0.387429049771168
535,0.383284284306257
536,0.385879640328408
537,0.384444448905844
538,0.381956581842309
539,0.380037909185432
540,0.381415401506325
541,0.380610742236359
542,0.37635431703965
543,0.379253746346522
544,0.382071797318096
545,0.379600889626516
546,0.382559515236626
547,0.382941242727506
548,0.383322970218386
549,0.383704697709266
550,0.381022497593628
551,0.383719996602926
552,0.387692833983421
553,0.385065502532042
554,0.382898567152366
555,0.387570549224413
556,0.382992608193159
557,0.382308793574679
558,0.380054174183543
559,0.377467535835537
560,0.382973347506084
561,0.376900217953419
562,0.382390850532715
563,0.378052343261252
564,0.3813492270934
565,0.376347544680754
566,0.375795961650974
567,0.372232959817961
568,0.375524485990852
569,0.37075071680876
570,0.372188431703043
571,0.372340816290011
572,0.373452348453346
573,0.372844001567777
574,0.377188077387291
575,0.371952079080527
576,0.373611202234734
577,0.375270325388941
578,0.376929448543148
579,0.378588571697355
580,0.380247694851563
581,0.384513113339114
582,0.38221240283878
583,0.385045181572364
584,0.38009582253069
585,0.377564430788391
586,0.368889811618218
587,0.362029107887851
588,0.358579515209151
589,0.355129922530451
590,0.351680329851751
591,0.352772208606132
592,0.356689641765576
593,0.356852337735382
594,0.363131602462408
595,0.364265560913396
596,0.365315964100057
597,0.369048362379491
598,0.368846015711587
599,0.369863073611412
600,0.372918283040827
601,0.376030432466555
602,0.37749422421415
603,0.376824972295268
604,0.382075311265386
605,0.379851616977288
606,0.38027402915291
607,0.379021997727301
608,0.375531087855244
609,0.376732383410469
610,0.373637752774435
611,0.371520703919858
612,0.368054824421777
613,0.368325801942448
614,0.364244681448516
615,0.370552992482092
616,0.366072405157995
617,0.369251447933213
618,0.369360637409509
619,0.37047456019919
620,0.370633165038097
621,0.371913040186629
622,0.365633206280238
623,0.366466564035449
624,0.364222636929953
625,0.361978709824457
626,0.35973478271896
627,0.35985271350827
628,0.359098026549591
629,0.358718772861888
630,0.361974028225099
631,0.355836973253718
632,0.359688421119524
633,0.362378194613584
634,0.363049736679462
635,0.366178023908016
636,0.362845586231776
637,0.367774889499185
638,0.365070195894399
639,0.367117521570562
640,0.365739603702498
641,0.365473039851682
642,0.363027734341485
643,0.360738737752109
644,0.358449741162733
645,0.356160744573356
646,0.358111980656812
647,0.356339583141255
648,0.350597633060419
649,0.358631405538762
650,0.355375426377325
651,0.358176510292579
652,0.353644643339803
653,0.349165902621933
654,0.343240545708278
655,0.346121965484589
656,0.344077127522114
657,0.348351653645883
658,0.352876636202613
659,0.361882864783144
660,0.365925869570856
661,0.368423195449112
662,0.36995277353103
663,0.368583468757781
664,0.367319404567344
665,0.368644598058438
666,0.370090823361044
667,0.370634930740727
668,0.371744257924113
669,0.364953599324944
670,0.367486608022842
671,0.367735233145367
672,0.366330047603326
673,0.368616375603622
674,0.368668212325759
675,0.369441751649285
676,0.368756214984563
677,0.372415860059259
678,0.367387123438453
679,0.367179827398746
680,0.377802513502617
681,0.371217644529379
682,0.363538851932917
683,0.356125878312709
684,0.345249276971609
685,0.334731995396906
686,0.326568008310931
687,0.318618064896443
688,0.317854968774193
689,0.318760862474402
690,0.322756838846673
691,0.330513447427995
692,0.331992776308436
693,0.334928111344586
694,0.340651331924246
695,0.34026214855744
696,0.34707557175471
697,0.349259337497058
698,0.343962759189091
699,0.346257809038317
700,0.353085253341783
701,0.349337246537789
702,0.356199598418273
703,0.357396173946687
704,0.364433582816734
705,0.365419332874097
706,0.370448541755998
707,0.375070498984473
708,0.375644266499571
709,0.380913160774864
710,0.377829874483956
711,0.376711667658377
712,0.377633051270932
713,0.36376734722151
714,0.356502298936812
715,0.33558451200701
716,0.319402158206116
717,0.308709870264353
718,0.304412015137677
719,0.306264836299422
720,0.311969676358705
721,0.309272199185499
722,0.318198705591269
723,0.316970402177609
724,0.316232750882657
725,0.315460851106275
726,0.315661365197177
727,0.321476587291413
728,0.325764730157497
729,0.336244766690816
730,0.343368318128439
731,0.354646208456468
732,0.366687058941037
733,0.376818790504373
734,0.385847564256179
735,0.390191786923567
736,0.395364772385839
737,0.399220166453879
738,0.403075560521918
739,0.406930954589957
740,0.415352942946504
741,0.417983150212274
742,0.42157211162459
743,0.425161073036906
744,0.428750034449222
745,0.429572845268689
746,0.430013684539384
747,0.432611861479926
748,0.427484595747133
749,0.43128513871072
750,0.433405321365984
751,0.431009911348818
752,0.435299350565866
753,0.434112586667311
754,0.429684270768782
755,0.401392117708279
756,0.373099964647776
757,0.344807811587273
758,0.299849579631763
759,0.258334967483095
760,0.232763352271726
761,0.227486221982405
762,0.236231918116965
763,0.255816245932083
764,0.281835501309036
765,0.31036673104836
766,0.341708609265253
767,0.373497479192571
768,0.391733006894939
769,0.40588074401125
770,0.416919048374846
771,0.420286064924976
772,0.42758316540424
773,0.433337382209264
774,0.429898089662067
775,0.431617125392335
776,0.431942521977736
777,0.430027600301709
778,0.435427012513886
779,0.430611194307274
780,0.435175676156454
