"wavelength","measurement"
380,0.00786105846861556
381,0.00764677099815093
382,0.00768270667823335
383,0.00744432669226505
384,0.00761558358211243
385,0.00790338915581956
386,0.00845583273252566
387,0.00887866745372028
388,0.00926869449063347
389,0.00968754029060163
390,0.00973817624534538
391,0.00973020803512871
392,0.00992584074047964
393,0.0100751992120188
394,0.0105236909163826
395,0.0112254871322086
396,0.0124960216001585
397,0.0140256280722928
398,0.0155552345444271
399,0.0170848410165614
400,0.017996727332367
401,0.0190939563109547
402,0.0199121526481602
403,0.0202175556486585
404,0.0204442854022665
405,0.0205070479716289
406,0.0211243208574883
407,0.0211784874719956
408,0.0212718859968716
409,0.0217819738795953
410,0.0225956238252606
411,0.0226646737909719
412,0.0232184982057698
413,0.0236961027866381
414,0.0237914815330092
415,0.0240666261253781
416,0.0238168107677476
417,0.0234297477067807
418,0.0238328302101309
419,0.0234905127451918
420,0.0242116484578878
421,0.0239917811224946
422,0.0240929735378154
423,0.0244651684616879
424,0.02458348228329
425,0.0241254858316101
426,0.0238044337483728
427,0.0233476962016773
428,0.0226394975525357
429,0.0226171351885618
430,0.02265589849912
431,0.0234398654741026
432,0.0243805140951068
433,0.0252757354910638
434,0.0265086110189558
435,0.0270110618121548
436,0.0273467612000133
437,0.0278581336129817
438,0.02836950602595
439,0.0288808784389184
440,0.0290709038933501
441,0.0298286587134026
442,0.0305280575527599
443,0.0307569954002695
444,0.0313660174136432
445,0.0319750394270169
446,0.0325840614403906
447,0.0331091171711945
448,0.033362099368544
449,0.0346898796910495
450,0.0346417405972897
451,0.0345153554969828
452,0.0345622386562827
453,0.0346091218155826
454,0.0346560049748825
455,0.0345107949209678
456,0.0346237619860937
457,0.0351474213400113
458,0.0354610220143885
459,0.0359354390066535
460,0.0360999845837717
461,0.0357623927438953
462,0.0367743719320926
463,0.0359030944877023
464,0.0356961302639954
465,0.0354239985666452
466,0.0350084203668158
467,0.0349969462939829
468,0.0347453214718601
469,0.0345215308024999
470,0.0352261437588294
471,0.0353921640451129
472,0.0355501983582051
473,0.036063536491739
474,0.0362967718793272
475,0.0369309430410313
476,0.0362702584332215
477,0.0363488797156148
478,0.0364275009980081
479,0.0365061222804014
480,0.0364832869319391
481,0.035637871043371
482,0.034989334776705
483,0.0349978304429351
484,0.0342239615272757
485,0.0336262041304409
486,0.033929558255551
487,0.0341911529825568
488,0.0346191127033319
489,0.035633421977917
490,0.0361230625860464
491,0.0364055935519162
492,0.0373871622096006
493,0.0370764504153017
494,0.0377886477780554
495,0.0374464546901119
496,0.0376987022982143
497,0.0370516721589522
498,0.0376032581035281
499,0.0368264700074021
500,0.0372042197554914
501,0.03698869059361
502,0.037858926277923
503,0.0382174671618534
504,0.0379035999414923
505,0.0393238054794637
506,0.0394045868251311
507,0.039740970903231
508,0.0402389248597338
509,0.0403934905117148
510,0.0399701615625357
511,0.0407989693187983
512,0.0407218054819638
513,0.0398576353830747
514,0.0398112422207172
515,0.0393915226788438
516,0.0394235854415067
517,0.0395320046734638
518,0.0398394845501529
519,0.0407527853725712
520,0.0418780685199698
521,0.042669288425178
522,0.0434605083303861
523,0.0442517282355943
524,0.0443340414277518
525,0.044688394045695
526,0.0452301600509102
527,0.045209222361387
528,0.0458129724792305
529,0.0465852636163714
530,0.0469138082615201
531,0.0471867101965056
532,0.0472758419634486
533,0.0478602998398947
534,0.0483088288000223
535,0.0479307923938922
536,0.0486364285603331
537,0.0485112020430196
538,0.0484095410607079
539,0.0480982351845862
540,0.048572704130667
541,0.048460760891608
542,0.048265474477484
543,0.0487453199367625
544,0.0491705590648057
545,0.0488815443450565
546,0.0493881404212236
547,0.0495070124789759
548,0.0496258845367282
549,0.0497447565944805
550,0.0494776236218005
551,0.0500086585102908
552,0.0506147295731997
553,0.0502292654354888
554,0.0501053027924273
555,0.0507736539226303
556,0.0501304936523038
557,0.0500165469099122
558,0.0497010188850922
559,0.0493724187125509
560,0.0501041150809197
561,0.0492003331562781
562,0.0500421098439187
563,0.0493776618084088
564,0.0497013716498184
565,0.0489704212028222
566,0.0485978263206477
567,0.0480673211761798
568,0.0483460079893804
569,0.0476489960392148
570,0.0476631043882742
571,0.0478165582605081
572,0.0477315642487577
573,0.047653407754377
574,0.0479851844348459
575,0.0473532177701638
576,0.0474609398711595
577,0.0475686619721552
578,0.0476763840731509
579,0.0477841061741466
580,0.0478918282751423
581,0.0484261047835192
582,0.0482231314649854
583,0.0485189471804352
584,0.0476866660032927
585,0.0473322617576972
586,0.0461497547965307
587,0.0453002936899048
588,0.044779236118181
589,0.0442581785464572
590,0.0437371209747335
591,0.0440881649173941
592,0.0444234563817432
593,0.0446050972907723
594,0.0451727273540547
595,0.0451852692093875
596,0.0455648957685341
597,0.0457529112315015
598,0.0458259176273113
599,0.0460048199525065
600,0.0463674260460704
601,0.046702007085468
602,0.0469672465915931
603,0.0467261061567133
604,0.0472693623118031
605,0.0470638696731452
606,0.0471169492295844
607,0.0469037736549809
608,0.0463678194215736
609,0.0463931646653686
610,0.0459470710502852
611,0.0457795559691024
612,0.0454257799785054
613,0.0452589429475637
614,0.0446465390919255
615,0.0452698504573032
616,0.0447293046609674
617,0.0450867875746426
618,0.0449775661523057
619,0.045290836270136
620,0.0451716902170268
621,0.0455413946121493
622,0.0446213161041069
623,0.0445836240247243
624,0.0443154305382058
625,0.0440472370516872
626,0.0437790435651687
627,0.0437621025732364
628,0.0435927596082531
629,0.0435102258481174
630,0.0439109014800549
631,0.0434714619308939
632,0.0437237786450263
633,0.0440897535414469
634,0.0440906399292338
635,0.0445070399175495
636,0.0440654730953857
637,0.0445046389650644
638,0.0442923962966497
639,0.0443829550632586
640,0.0441894680804661
641,0.0440258086911262
642,0.0438451650522412
643,0.0434930896582645
644,0.0431410142642878
645,0.0427889388703112
646,0.0429181578870723
647,0.0427349807233856
648,0.0419621822086505
649,0.0427174678350078
650,0.0423324516344097
651,0.0427456652773436
652,0.0422435207634601
653,0.0416462285052554
654,0.0409077760355941
655,0.0413403702087529
656,0.0409039489684546
657,0.0414238340943464
658,0.0418814932037159
659,0.0429831539977916
660,0.0434078051652298
661,0.0435984737057403
662,0.043698051213057
663,0.0435656062266844
664,0.0432111394380268
665,0.0434382555989653
666,0.0434683801327962
667,0.0435261800907987
668,0.043712620737175
669,0.0428888870933918
670,0.0430836422764703
671,0.042885757835238
672,0.0429680914546126
673,0.0430253425669377
674,0.043193717291017
675,0.0433071497233418
676,0.0432201528367688
677,0.0436264528351165
678,0.0431126505605551
679,0.0430686437334454
680,0.0443245858957889
681,0.0436598545126429
682,0.0427827423668895
683,0.0420751184129156
684,0.0407434060421694
685,0.0397407027329721
686,0.0390422929560864
687,0.0382917644594592
688,0.0382723867682736
689,0.0387925227908401
690,0.0396218728803277
691,0.0408202737810892
692,0.0415676189807824
693,0.0422767981217238
694,0.0434976792549998
695,0.044116128424918
696,0.0453907054859267
697,0.0462857562988331
698,0.0463345829659363
699,0.0471560855868958
700,0.0486859244516919
701,0.0489771161569261
702,0.050668696446134
703,0.0514659946168245
704,0.05319983306602
705,0.0540909081188154
706,0.0556376131739644
707,0.0569818412719263
708,0.0578919723699236
709,0.0593809385796001
710,0.0596308973973941
711,0.0604983368335049
712,0.0613610978267692
713,0.0595742488905901
714,0.0589088003866523
715,0.0563777546391048
716,0.0543831660225666
717,0.0529102757773113
718,0.0530576003812393
719,0.0541852570468681
720,0.0555135478007652
721,0.0560753410462885
722,0.058265007622762
723,0.0587779595946464
724,0.0593732332222375
725,0.0601547242111169
726,0.0605631115146924
727,0.0625540756049088
728,0.0641167507678175
729,0.0665847552579328
730,0.0690569695585452
731,0.0720866603188601
732,0.0751703148932536
733,0.0784550341647257
734,0.0810589521481718
735,0.0823937048788072
736,0.0846388414104107
737,0.0860903861194885
738,0.0875419308285664
739,0.0889934755376442
740,0.091402112026216
741,0.0925868660610873
742,0.093927424262677
743,0.0952679824642667
744,0.0966085406658564
745,0.0974300926045328
746,0.097939188844136
747,0.0989263502178218
748,0.0981737932495754
749,0.0991952318747842
750,0.0997044979848842
751,0.0993588657970398
752,0.101214502345548
753,0.100784654511642
754,0.0997847090776289
755,0.0933479733656307
756,0.0869112376536326
757,0.0804745019416344
758,0.0699100524421935
759,0.0604538661889347
760,0.0538576721035978
761,0.0525753335566377
762,0.0547190181563291
763,0.0592377634076433
764,0.0659563987424553
765,0.0724957900868036
766,0.0806163407825622
767,0.0878336738893724
768,0.0925613911043315
769,0.0954008890640883
770,0.0982920185249935
771,0.0995890961263063
772,0.100579292343298
773,0.10237285256718
774,0.101764415643968
775,0.102220837472251
776,0.102628409836057
777,0.101673655969216
778,0.102908334256104
779,0.101944310033565
780,0.103116833848765
