"wavelength","measurement"
380,0.0191211602678547
381,0.0184008813903581
382,0.0179533422178852
383,0.0178283982655257
384,0.0180957122691951
385,0.0188157211213023
386,0.0194985458520094
387,0.0203822701115022
388,0.0215593124738979
389,0.0222607863276772
390,0.0223979863323889
391,0.0219377538067584
392,0.0222307338939996
393,0.0227041253527481
394,0.0229669421841847
395,0.0243220408319926
396,0.0273842953776328
397,0.0302570830219013
398,0.0331298706661698
399,0.0360026583104383
400,0.038496216058113
401,0.0405034332195644
402,0.0420491297836976
403,0.0423519696578422
404,0.0430286979047061
405,0.0428543270441636
406,0.0434673514425792
407,0.0442529249048726
408,0.0444230022276768
409,0.0454361183205547
410,0.0476846874414925
411,0.0476983001126756
412,0.0489832523308798
413,0.0500182198056387
414,0.0503580634625437
415,0.0508970330321857
416,0.051067339665756
417,0.0505673574456974
418,0.0517843402388032
419,0.0511227862329895
420,0.0525617634326223
421,0.0523268116654551
422,0.0529555296543247
423,0.0532984153406596
424,0.0541805069735999
425,0.0530869336882276
426,0.0527089469474097
427,0.0513064426772597
428,0.0498910596900727
429,0.0498034318664056
430,0.0502584445162676
431,0.0520208775339311
432,0.05363051166159
433,0.0557261466489142
434,0.0582106964631195
435,0.0594960396112507
436,0.0600013421369999
437,0.060971594143796
438,0.061941846150592
439,0.0629120981573881
440,0.0632876813549601
441,0.064224635195948
442,0.0656073969235185
443,0.0662201693685632
444,0.0671360046728658
445,0.0680518399771683
446,0.0689676752814709
447,0.0698761742616687
448,0.0700552672908006
449,0.0724930120010116
450,0.071910078056041
451,0.0713593860700923
452,0.0711791973695327
453,0.0709990086689732
454,0.0708188199684136
455,0.0706032489406
456,0.0705354507143234
457,0.071444205194509
458,0.0715969891534695
459,0.0728173185188449
460,0.0727636506407882
461,0.0722090175872332
462,0.0743009379545468
463,0.0720103904948927
464,0.0712565022079112
465,0.0708886237659384
466,0.069722935627779
467,0.0697911081586922
468,0.0691749744603024
469,0.0685501052873811
470,0.0701143630554139
471,0.0698219198871324
472,0.0703024074534895
473,0.0710175198045241
474,0.0715212881304134
475,0.0721838221898154
476,0.0707337615278808
477,0.0708016572868368
478,0.0708695530457929
479,0.0709374488047489
480,0.0707489861180233
481,0.0688527685053026
482,0.0678844932987741
483,0.0673981630997196
484,0.0656734107532138
485,0.064266498317778
486,0.064921548330546
487,0.0654271037371605
488,0.066029097721492
489,0.0676188255067699
490,0.068272693364385
491,0.0688752194226398
492,0.0704471393889497
493,0.0696656094535797
494,0.0709792624620796
495,0.0699720852341136
496,0.0704234877696446
497,0.0689958216741359
498,0.0696509299391906
499,0.0680739609478346
500,0.0685742180707903
501,0.0678238981412276
502,0.0690232981728416
503,0.0695335868025272
504,0.0688696733809682
505,0.0709537631163824
506,0.0708291836342554
507,0.071199097580036
508,0.0716189723897953
509,0.0718502168106229
510,0.0706383656331975
511,0.0716762313487195
512,0.0711829494553141
513,0.0692698533359193
514,0.0687894118888615
515,0.0676690474541008
516,0.0671756115794098
517,0.067050136253316
518,0.0669799182015112
519,0.0681733167888618
520,0.0695219758242959
521,0.0703688665785176
522,0.0712157573327393
523,0.072062648086961
524,0.071684967924041
525,0.0718454385443758
526,0.0724666487710766
527,0.0716711945485997
528,0.0722138371660298
529,0.0732547907327685
530,0.0732985673584818
531,0.0733868332746246
532,0.0732866397582137
533,0.0738950854466937
534,0.0742542978114182
535,0.0734767524408481
536,0.0742514883776199
537,0.0737228499651368
538,0.0733765953360183
539,0.0728284362497757
540,0.0732731081022231
541,0.0728530184166717
542,0.0721455227086429
543,0.0727726285616401
544,0.0731727120325993
545,0.072844830368513
546,0.0734104011994203
547,0.0733902159248032
548,0.0733700306501862
549,0.0733498453755691
550,0.0728658275100753
551,0.0733373630731293
552,0.0739358012679045
553,0.0734209099187677
554,0.0732801789708416
555,0.0739387897350095
556,0.072954870983722
557,0.0728402638618276
558,0.072495224574083
559,0.0717679000785933
560,0.0727460752237495
561,0.0715660220573666
562,0.0727612831240229
563,0.0716977030010779
564,0.0720368804572363
565,0.0712119467161694
566,0.0707176202908671
567,0.0701257582914384
568,0.070416907793885
569,0.0696416412217642
570,0.0697368830557398
571,0.0699056353848333
572,0.0698103401684301
573,0.0696527958084397
574,0.0703137281589496
575,0.0692940673514532
576,0.0695408966727224
577,0.0697877259939916
578,0.0700345553152607
579,0.0702813846365299
580,0.070528213957799
581,0.0713169860675546
582,0.0709153951506342
583,0.0714420023211115
584,0.0702127495912283
585,0.0697903258144713
586,0.0679383107716651
587,0.0668131077438011
588,0.0660368084591419
589,0.0652605091744828
590,0.0644842098898236
591,0.0646303786763085
592,0.0653301908087387
593,0.0653858885932896
594,0.0663769772076158
595,0.0663815058142465
596,0.0668881368579177
597,0.0674213758561509
598,0.0674940700208235
599,0.0676490199436654
600,0.0682030720237377
601,0.0686295702817501
602,0.069119387293268
603,0.0688052683752165
604,0.0694938054062832
605,0.0690766555973741
606,0.0692620584375989
607,0.0690866320765351
608,0.0681103746680103
609,0.0681326049885627
610,0.0677444434360224
611,0.067313814406162
612,0.0666716009497187
613,0.0665973953615848
614,0.0658545915284783
615,0.0667850263876834
616,0.0657525031173528
617,0.0663894093678522
618,0.066250552501925
619,0.0666645620728527
620,0.0663350773980894
621,0.0669069965851909
622,0.0654524657137764
623,0.0652259607547725
624,0.0648090381969839
625,0.0643921156391952
626,0.0639751930814065
627,0.0639510708594602
628,0.0637476473369786
629,0.0633988759781324
630,0.0638803415938146
631,0.0631895311988521
632,0.0638065954237459
633,0.0641253099864421
634,0.0641949657851522
635,0.0647132314118104
636,0.0640493081397821
637,0.0647560567542146
638,0.0643159618336411
639,0.0644693705351745
640,0.0642272617002797
641,0.0641572433706627
642,0.0638411391203915
643,0.063438995385857
644,0.0630368516513225
645,0.062634707916788
646,0.0625619456854923
647,0.0623308204143128
648,0.0611472322239547
649,0.0623982229128272
650,0.0616213650244251
651,0.0623517509742244
652,0.061441377373082
653,0.0607332867033933
654,0.0594885979025001
655,0.0603279879227141
656,0.059608050597651
657,0.0603935108692274
658,0.0608508415420644
659,0.0625609162546981
660,0.063321272358199
661,0.0633669717658548
662,0.0637595397962609
663,0.0635331502628215
664,0.0631652415544588
665,0.0634567485756679
666,0.0636584343787278
667,0.0637923454546818
668,0.0638529573323556
669,0.0626188682324186
670,0.0629394154351769
671,0.0630572572880735
672,0.0625731330151924
673,0.0628100648033331
674,0.0629162735825965
675,0.0629391234588891
676,0.0628491816348716
677,0.0634945112882501
678,0.0624830536884644
679,0.062577910895666
680,0.0639722950474155
681,0.062863459673433
682,0.0616569893353443
683,0.0603114819759956
684,0.0581265553313276
685,0.056374840586112
686,0.0551561282890432
687,0.0537864645866026
688,0.0533179830545735
689,0.0534355388334956
690,0.0543696803974826
691,0.0552876875356818
692,0.0555123356070737
693,0.0562826127789219
694,0.0569740182596459
695,0.0572315143686752
696,0.0582538528583924
697,0.0586579775313769
698,0.0577643381245705
699,0.0580857225259441
700,0.0592992389487833
701,0.0587768278918028
702,0.0597769662672458
703,0.060077299804452
704,0.0612163242966889
705,0.0615814820701365
706,0.0626586200656223
707,0.0634650858614697
708,0.0636370885369019
709,0.0645808281110546
710,0.0639459203744527
711,0.0640680422123737
712,0.0641777060673747
713,0.0618216421065281
714,0.0600972715192107
715,0.0568999677999031
716,0.0541026685159321
717,0.0523207170378977
718,0.0515183168886077
719,0.0521685965102203
720,0.052863586743051
721,0.0527484430268992
722,0.0543384940242713
723,0.0540929621889865
724,0.0538281170442894
725,0.0542709038059678
726,0.054177942113738
727,0.0553346282379099
728,0.0559980951290316
729,0.0578232846305176
730,0.0594219097095969
731,0.0615621354542316
732,0.0637557325767115
733,0.0659491033620702
734,0.067578862468244
735,0.0683158065754556
736,0.0698846609963494
737,0.0706798462958275
738,0.0714750315953056
739,0.0722702168947837
740,0.0738177318697579
741,0.0744654541610266
742,0.075183406897706
743,0.0759013596343854
744,0.0766193123710648
745,0.0771206405739674
746,0.0770351618456874
747,0.0778615470500379
748,0.0768138457224986
749,0.0774638376212438
750,0.0776416839492709
751,0.0774200962440912
752,0.0785465241248267
753,0.0780487644437254
754,0.0770918962644189
755,0.0719614104331236
756,0.0668309246018283
757,0.061700438770533
758,0.0539073539190936
759,0.0463352174404217
760,0.0413523714626496
761,0.0402271621297838
762,0.0420104439250716
763,0.0453139456788456
764,0.0503433407859907
765,0.0551034118183807
766,0.0609727154828918
767,0.066761993799948
768,0.0699565953071956
769,0.0722336401606892
770,0.0744497192858193
771,0.0753793488172261
772,0.0764156899158531
773,0.0774683831932906
774,0.0770742574416089
775,0.0772771278612325
776,0.0775236162326955
777,0.0770101686519055
778,0.0779640415122104
779,0.0769904258321718
780,0.0780959951813414
