"wavelength","measurement"
380,0.0120292621390753
381,0.011801621922836
382,0.0113547976074424
383,0.0116933531838731
384,0.0114914308386228
385,0.0122629078377628
386,0.0128608445884553
387,0.0136071953071914
388,0.0142222319345483
389,0.0150851718534785
390,0.0149967003679211
391,0.0153297126062773
392,0.0153558394046081
393,0.0157888210468989
394,0.0164711981010982
395,0.0181478345009758
396,0.0202748408781307
397,0.0229974587941206
398,0.0257200767101104
399,0.0284426946261002
400,0.0303106024575634
401,0.0323967088452201
402,0.0344663149935682
403,0.0351207735832046
404,0.0360930789636542
405,0.0366898171005713
406,0.0378152370714221
407,0.0386881448738434
408,0.039429124744043
409,0.040852415818341
410,0.0430632874066514
411,0.0435975478087906
412,0.0449400405143479
413,0.0463888510056576
414,0.0465339778510966
415,0.0472421415900097
416,0.0471335904520793
417,0.0466885719989948
418,0.0474771474836064
419,0.046648278535479
420,0.0477480947569169
421,0.0475608291859449
422,0.0478984759433518
423,0.0478547063584157
424,0.0481429727490586
425,0.0469360729684034
426,0.0463369171789176
427,0.0450437549945736
428,0.0437019482174102
429,0.0432782327663696
430,0.0434212278164196
431,0.0447821153271326
432,0.0464956345924965
433,0.0478465286520687
434,0.0497123734359807
435,0.050541003566219
436,0.0510474525514898
437,0.0517794696764695
438,0.0525114868014492
439,0.0532435039264289
440,0.0532517574654602
441,0.0541927688355404
442,0.0553508198995481
443,0.0555148686427727
444,0.0563155781105331
445,0.0571162875782935
446,0.0579169970460539
447,0.0584273962822464
448,0.0584316188162545
449,0.0605351450909422
450,0.0598652347658573
451,0.0592683935700073
452,0.0589233173179224
453,0.0585782410658375
454,0.0582331648137526
455,0.05845602033738
456,0.0583006834717929
457,0.0587586689889841
458,0.0590582415294468
459,0.0596348437218153
460,0.059717514720264
461,0.0591544023645195
462,0.0604078174128791
463,0.058791373310958
464,0.0579974538615859
465,0.0578333002860662
466,0.0568165712339427
467,0.0568154606008927
468,0.0563601542236477
469,0.0560233623185373
470,0.0572273604102349
471,0.0570934306723465
472,0.0575129342521642
473,0.0581966109384309
474,0.0584302172534822
475,0.0593892952726715
476,0.0580874810652154
477,0.0581988747823324
478,0.0583102684994493
479,0.0584216622165663
480,0.0581178409444674
481,0.0568494680075558
482,0.0557781713255383
483,0.0555405420252246
484,0.0540112074520213
485,0.0529539911352776
486,0.0534736214446978
487,0.0537539248043406
488,0.0542533232163793
489,0.0555260301730345
490,0.0557101009472529
491,0.056100997430216
492,0.0572871423316431
493,0.0565819315914824
494,0.0573116786750991
495,0.0565419480867312
496,0.0566796363497581
497,0.0555171082437261
498,0.0559243780147023
499,0.0544184645257792
500,0.0546506292166584
501,0.0540281214828385
502,0.0547395097200755
503,0.0550685496393783
504,0.0544142316242347
505,0.0559038908674328
506,0.055554910616523
507,0.0557115845486194
508,0.0560002093249292
509,0.0559375699848706
510,0.0550180985837188
511,0.0558166224452371
512,0.0552476238110594
513,0.0537197285817809
514,0.0531871758252652
515,0.0522285055304128
516,0.0518716501431412
517,0.051553442436693
518,0.0515943621724087
519,0.0525794799698874
520,0.053345138112181
521,0.0539278367650941
522,0.0545105354180072
523,0.0550932340709202
524,0.0545976733744026
525,0.0548167709477273
526,0.0550536934224447
527,0.0546294891133423
528,0.0548065716475564
529,0.0556171396800398
530,0.0555340126716648
531,0.0555413458573016
532,0.0553082398345922
533,0.0558221136338822
534,0.0557128995661604
535,0.0551687957744126
536,0.055682835916814
537,0.0552665857591284
538,0.0547554022195629
539,0.0543503048855421
540,0.0546755154274357
541,0.0541399139626169
542,0.0538066162299176
543,0.0539171613018608
544,0.0543132354519497
545,0.0538472127001507
546,0.054296735710935
547,0.0542165010189791
548,0.0541362663270233
549,0.0540560316350675
550,0.0536440210539648
551,0.0539730516675057
552,0.054297537754091
553,0.0538572544109876
554,0.0534855865526336
555,0.053921181092953
556,0.0529879690585125
557,0.052750335557068
558,0.0523733542613085
559,0.0518091815845369
560,0.0523211646636683
561,0.0512286304775493
562,0.0519013383689748
563,0.0510671280248468
564,0.051207467995133
565,0.0504221577614162
566,0.0498292242991613
567,0.0491889083331647
568,0.0494212973533928
569,0.0487079262812486
570,0.0485172093806724
571,0.0486325759465005
572,0.0485517840152393
573,0.0484092597062052
574,0.0486921023422533
575,0.0480354926532698
576,0.0482022008859352
577,0.0483689091186005
578,0.0485356173512659
579,0.0487023255839313
580,0.0488690338165966
581,0.0493420556141516
582,0.0490474130570184
583,0.0494122274588543
584,0.048509269420116
585,0.0482652932816902
586,0.0466894417339304
587,0.0460813171838414
588,0.0455231656729525
589,0.0449650141620635
590,0.0444068626511746
591,0.0445999707604667
592,0.045003678554159
593,0.0450920367250006
594,0.0459266799759427
595,0.045837962448586
596,0.0462507214120887
597,0.0466256825827407
598,0.0466270491456977
599,0.0468752272382603
600,0.0471882682818261
601,0.0475016700905029
602,0.047812515706015
603,0.0476338248267292
604,0.0481329696938486
605,0.0477805215222478
606,0.0479684727750271
607,0.0476434695120514
608,0.046935623437657
609,0.0469085868509969
610,0.0464478237597133
611,0.046282220088118
612,0.0459548987164399
613,0.0456823159888955
614,0.045178919214693
615,0.0458315287812644
616,0.0451182703799629
617,0.0454817687936282
618,0.0453991850493593
619,0.0456697212623687
620,0.0454801489723256
621,0.0456377552422046
622,0.044820002831959
623,0.0446977032956014
624,0.0443444328975778
625,0.0439911624995542
626,0.0436378921015306
627,0.0437729294665772
628,0.0435082849252786
629,0.0434908619303466
630,0.0438236647134222
631,0.0432917737386039
632,0.043457569648902
633,0.0440142589746196
634,0.04394467243377
635,0.0440981430930856
636,0.0439042413312892
637,0.0442535494597029
638,0.0440000940277125
639,0.0440493324122972
640,0.0439673214733778
641,0.0437614516947066
642,0.0434766464819881
643,0.0431076455641339
644,0.0427386446462797
645,0.0423696437284255
646,0.0424655492815819
647,0.0423074836539203
648,0.0414151192772195
649,0.0422926711119283
650,0.0418358440612303
651,0.0421974365643561
652,0.0416576145966439
653,0.0412154261653266
654,0.0404675365669323
655,0.0408865215909064
656,0.0404793413981404
657,0.0410341337957087
658,0.0416489316044478
659,0.0426674494730504
660,0.0429311452916089
661,0.0432661474388445
662,0.0434743765152797
663,0.0432094864737369
664,0.0429500762461423
665,0.0432883327265603
666,0.0431224701828692
667,0.0433504739615841
668,0.0432940848623409
669,0.0426813473339188
670,0.0428003425275164
671,0.0429437653061632
672,0.0425640978983812
673,0.0427913877649447
674,0.0428645805876546
675,0.0427946597728273
676,0.0427698117177444
677,0.0432028153506492
678,0.0427676095108706
679,0.0426057192814512
680,0.0434184126682779
681,0.0427922423725144
682,0.04179380405604
683,0.0411246878433496
684,0.0396280063076316
685,0.0386440729679751
686,0.037751267780632
687,0.0371255207041363
688,0.0369013380906082
689,0.0372740219161622
690,0.0378473011313376
691,0.0386269420019256
692,0.0391234786343248
693,0.0395993395136023
694,0.0405172786607847
695,0.0407204797342609
696,0.0419317433680492
697,0.0425257533566338
698,0.0424092929888529
699,0.0430522989725013
700,0.0440884415899762
701,0.0444725225689205
702,0.0456235004979972
703,0.0464317116108528
704,0.0475801324083521
705,0.0484386083007939
706,0.0499370514710297
707,0.0509912826158529
708,0.0517285421336372
709,0.052945803132652
710,0.0532059330226534
711,0.0537690386749798
712,0.0544570106903965
713,0.0527556212317555
714,0.0518483666754051
715,0.0494354481999219
716,0.0475558755434327
717,0.0465194831333186
718,0.0466005963157278
719,0.0477584426870377
720,0.0491020862298764
721,0.0493597447765462
722,0.0514228330328583
723,0.0517151662083727
724,0.0522933708541631
725,0.0531579907987417
726,0.0536906002833284
727,0.0554192242393142
728,0.0570646008189062
729,0.0593987732685719
730,0.0617857146458174
731,0.0647589570635139
732,0.0678819760343552
733,0.070754711802658
734,0.0729457814720792
735,0.0746697780654374
736,0.0764846247090617
737,0.0779612602606848
738,0.0794378958123079
739,0.080914531363931
740,0.0833544836682431
741,0.0847171264521652
742,0.08594657753307
743,0.0871760286139748
744,0.0884054796948796
745,0.0894565896389942
746,0.0901910016906376
747,0.0909317626800802
748,0.0906884568436876
749,0.0914107256333989
750,0.0921705958484863
751,0.0919274822729425
752,0.0933568813121467
753,0.0931260839012833
754,0.0923013588356335
755,0.08616605556995
756,0.0800307523042666
757,0.0738954490385831
758,0.0641967504190013
759,0.0559009149577993
760,0.0501004140071631
761,0.0494174954601772
762,0.0514164241562744
763,0.0558660219042523
764,0.0621833113975967
765,0.0680714101185676
766,0.07548316661516
767,0.0823739492974762
768,0.0866337756017961
769,0.0893157522598279
770,0.0920997801403874
771,0.0931371383401686
772,0.0939438010708162
773,0.0952957189680115
774,0.094978387279232
775,0.0951320776139415
776,0.0954279930121277
777,0.0945659436980563
778,0.0958974847786992
779,0.0948278800544149
780,0.0962241034570452
