"wavelength","measurement"
380,0.0230145548304919
381,0.0219968578936787
382,0.02198315468978
383,0.0217454922700346
384,0.0219600849669615
385,0.0231013179496289
386,0.0242185965069763
387,0.0253791149448477
388,0.0265575439885147
389,0.0274621225012301
390,0.0273041303449339
391,0.0273024392555132
392,0.0274665719395429
393,0.0279440647433979
394,0.0284840643423418
395,0.0304766143083477
396,0.033876881532677
397,0.0376402901303816
398,0.0414036987280863
399,0.045167107325791
400,0.0472511803498649
401,0.0500638170781487
402,0.0521738997047157
403,0.0528640163456167
404,0.0534980377607205
405,0.0535601448217241
406,0.0552690585202687
407,0.0561512464673649
408,0.0570418018078493
409,0.0589116936541965
410,0.0621642972039168
411,0.0633024040115926
412,0.0657671216264207
413,0.067947581652556
414,0.0688033482703679
415,0.0704891094055511
416,0.0710994148451273
417,0.0716196260799128
418,0.0734303564603467
419,0.0729502711821494
420,0.0753933307377779
421,0.0760786927887417
422,0.0772558377887087
423,0.0782821863025073
424,0.0793793594660172
425,0.0782887873369276
426,0.0777987349180974
427,0.0762716913590095
428,0.0745467085544877
429,0.0747215383365201
430,0.0752668945227295
431,0.078335787626677
432,0.0813353315412965
433,0.0841400823941605
434,0.0879849243254346
435,0.089848436586521
436,0.0909575319337026
437,0.0926088572752991
438,0.0942601826168957
439,0.0959115079584923
440,0.0964356053200339
441,0.0981249697296992
442,0.100410044598481
443,0.101188055319007
444,0.102669459462026
445,0.104150863605046
446,0.105632267748066
447,0.107211940569256
448,0.107221697255727
449,0.111170769766365
450,0.110455513461394
451,0.109654092989986
452,0.109302618462909
453,0.108951143935832
454,0.108599669408755
455,0.108719222933076
456,0.108819215719565
457,0.109866103936855
458,0.110643370176313
459,0.112299209990684
460,0.112343265769731
461,0.111421883714408
462,0.114573128658522
463,0.111566539637091
464,0.11059418608762
465,0.109905627517242
466,0.108746149742079
467,0.108574163460998
468,0.107780751698931
469,0.107261288863676
470,0.109514775636848
471,0.109427673654955
472,0.110221350882826
473,0.111587290849356
474,0.11188516231978
475,0.113738232248967
476,0.111278684194469
477,0.11133959368981
478,0.111400503185151
479,0.111461412680492
480,0.111164031651117
481,0.108671202559119
482,0.106712300002746
483,0.106051520414196
484,0.103673271649376
485,0.101536778925559
486,0.102455244879674
487,0.103412325762321
488,0.10436406248286
489,0.107143940331251
490,0.107826463921603
491,0.108743309148264
492,0.111176436504514
493,0.109959447271975
494,0.111806563765926
495,0.110343054330234
496,0.111052018972088
497,0.109111656920738
498,0.110017076266289
499,0.10770586628727
500,0.108391614099897
501,0.107630351113977
502,0.109555687689068
503,0.110252001916595
504,0.109035847128049
505,0.112595422521188
506,0.112090679856056
507,0.112743851961081
508,0.113309513150759
509,0.113371258151169
510,0.111613384745097
511,0.113195804866947
512,0.112434484059032
513,0.109213207265139
514,0.108838754844373
515,0.107068476590861
516,0.106651685527232
517,0.106523912520613
518,0.106248604823228
519,0.108442565302777
520,0.110294218134237
521,0.111577346589567
522,0.112860475044897
523,0.114143603500227
524,0.11355226394954
525,0.113911752166485
526,0.114462758433556
527,0.113969128219463
528,0.114771120583659
529,0.116292722698347
530,0.116401501678434
531,0.116752078917933
532,0.116560655852518
533,0.117594683669926
534,0.117940981376541
535,0.116827438159349
536,0.118098892742419
537,0.117422970548324
538,0.116859631340359
539,0.116297985851219
540,0.117054946232827
541,0.116388825794097
542,0.11601514744111
543,0.116538316074949
544,0.117367730106309
545,0.116865166315438
546,0.117861221157994
547,0.117922111158609
548,0.117983001159224
549,0.118043891159839
550,0.117568993816421
551,0.118271973662029
552,0.119705130953586
553,0.118562094534198
554,0.118393048675816
555,0.119710349278524
556,0.118257421864071
557,0.118176030317047
558,0.117713867514404
559,0.116868544359969
560,0.118366272190465
561,0.116751591512476
562,0.118874197374547
563,0.117297492846847
564,0.118179626111804
565,0.116860132460024
566,0.116499237258802
567,0.115250509757184
568,0.116471155923833
569,0.115399823920517
570,0.115387585797125
571,0.116072437952846
572,0.116165199350039
573,0.116127723101883
574,0.117328407324855
575,0.115809012511796
576,0.11626824668112
577,0.116727480850444
578,0.117186715019768
579,0.117645949189092
580,0.118105183358416
581,0.119691503773153
582,0.118930045581327
583,0.119861562728149
584,0.118051119885533
585,0.117708385920088
586,0.114584461095195
587,0.113378472242646
588,0.112394283826009
589,0.111410095409371
590,0.110425906992734
591,0.110999013685244
592,0.112325309636377
593,0.112613557945295
594,0.114354806938011
595,0.114294778173512
596,0.115177649703088
597,0.115901435143015
598,0.116033765272276
599,0.116447737933596
600,0.117396277614242
601,0.118029100111132
602,0.118735464520563
603,0.11838984620209
604,0.119839105097569
605,0.119107192365713
606,0.119532750170041
607,0.119206549164028
608,0.117883532856137
609,0.118155075397175
610,0.117395456169227
611,0.117005783059791
612,0.11611944999944
613,0.116085570384021
614,0.114884064796712
615,0.116753182090716
616,0.11526502190214
617,0.116441674187498
618,0.116451034418406
619,0.11721164121956
620,0.116952812391006
621,0.117719350922178
622,0.11572841933584
623,0.115689042098602
624,0.115162054806999
625,0.114635067515395
626,0.114108080223791
627,0.114331815324637
628,0.113949074580241
629,0.113931823751567
630,0.114897879254321
631,0.113443662796866
632,0.114430616203659
633,0.115220973575009
634,0.115523536761854
635,0.116245943246626
636,0.115354684068768
637,0.116515864386414
638,0.116055689451531
639,0.116617549934463
640,0.116118756276642
641,0.115923159126105
642,0.11555755260263
643,0.114943459965902
644,0.114329367329173
645,0.113715274692444
646,0.114125758058707
647,0.114214704906882
648,0.112241285941043
649,0.114354256084366
650,0.11337805553562
651,0.114204635303863
652,0.113109458894374
653,0.11155993968825
654,0.109737123855681
655,0.110866438713787
656,0.109812831067286
657,0.111244999763867
658,0.112554001389659
659,0.115720437272457
660,0.116666252913442
661,0.11741097457165
662,0.118047709138219
663,0.117580457552257
664,0.117076983315419
665,0.117601916423117
666,0.118050826406409
667,0.118317195844186
668,0.118479929760986
669,0.116872666060638
670,0.11755624332859
671,0.117521164421768
672,0.11706942878782
673,0.117577569381912
674,0.11810909591552
675,0.118087630218848
676,0.118194340723441
677,0.119052700267619
678,0.117963348524889
679,0.118055798733498
680,0.120840212711652
681,0.118815273605964
682,0.116462957462565
683,0.114524660845683
684,0.110995239368419
685,0.108293377775893
686,0.106175143297955
687,0.104217388880805
688,0.103730257211919
689,0.10416118273955
690,0.105890544754364
691,0.108204030085915
692,0.10879619059039
693,0.110066264633828
694,0.111715761373283
695,0.111904707107713
696,0.113756843935151
697,0.114729788984036
698,0.113612972772432
699,0.114164342519781
700,0.116330341369963
701,0.115811551699052
702,0.11800570884283
703,0.118684983091194
704,0.120954061495146
705,0.121199668798325
706,0.123644672622999
707,0.125456141114031
708,0.125754721941467
709,0.127639130313321
710,0.126786469051465
711,0.127012659066447
712,0.127653611643109
713,0.122808818877052
714,0.120515757558569
715,0.114536960432111
716,0.109561900996433
717,0.106390993762694
718,0.105489060870608
719,0.106336991605681
720,0.108126166982812
721,0.107639234278713
722,0.110952757189038
723,0.110801899997949
724,0.110802599308715
725,0.111652503699094
726,0.111581097230893
727,0.113888246760939
728,0.115638649857029
729,0.11906085786268
730,0.122170422637081
731,0.126351937435519
732,0.130571983199824
733,0.135242232741844
734,0.13812115570878
735,0.139172561483474
736,0.141662159547116
737,0.14313250130743
738,0.144602843067744
739,0.146073184828058
740,0.149042893852823
741,0.150050521732483
742,0.151426863930019
743,0.152803206127556
744,0.154179548325093
745,0.15498304267379
746,0.155169969643128
747,0.156125994758004
748,0.154761103281613
749,0.155910163731647
750,0.156129752340142
751,0.155638651141632
752,0.15798948985693
753,0.156954988820012
754,0.154851517120728
755,0.144939331847224
756,0.135027146573721
757,0.125114961300218
758,0.109282890865225
759,0.0953667953715056
760,0.0862601226440801
761,0.0850003176228417
762,0.0883206323972681
763,0.0956972967913253
764,0.105622387488412
765,0.115115848720874
766,0.126574960434649
767,0.137826772195593
768,0.143625229164371
769,0.148031251191832
770,0.15187693892389
771,0.153088662377668
772,0.15520877468941
773,0.157170143770521
774,0.156332438327879
775,0.156767647183079
776,0.157508652173597
777,0.155868692301633
778,0.158304147808533
779,0.156313950716802
780,0.158674377411087
