"wavelength","measurement"
380,0.0101285244176204
381,0.00991047418321074
382,0.0098121855862725
383,0.00974667632112725
384,0.00971255687509761
385,0.0102791831949722
386,0.0109642595651492
387,0.0113371389612141
388,0.0121306792417569
389,0.0125236327750731
390,0.0125375375826278
391,0.0124544157338667
392,0.0127617273368755
393,0.0128538206274138
394,0.0134408148300895
395,0.0145011146673669
396,0.0160827577129326
397,0.0180347777014497
398,0.0199867976899669
399,0.021938817678484
400,0.023026619508334
401,0.0244084645122676
402,0.0254998239799725
403,0.025808489291279
404,0.026086864995878
405,0.0261230580952002
406,0.0267763983109552
407,0.0270507964332191
408,0.0271693265219314
409,0.0277931186581691
410,0.0290581693131949
411,0.0290434073815965
412,0.0298978229699212
413,0.0305173909377841
414,0.0304297277466453
415,0.0308935133704473
416,0.0306722306662394
417,0.0303358303754103
418,0.0309297489525696
419,0.0303689369183102
420,0.0311994710825576
421,0.0309868535714013
422,0.0312656766280062
423,0.0315017417510585
424,0.0316616536809104
425,0.0311682574917419
426,0.0308023996609617
427,0.0300834870449641
428,0.0292373994555094
429,0.0292280816767985
430,0.029258371869114
431,0.0304749968303151
432,0.0316519393096531
433,0.0327034164416834
434,0.0341813885635208
435,0.0349435995951143
436,0.0351704196861256
437,0.0358504106467599
438,0.0365304016073942
439,0.0372103925680285
440,0.0374585457400338
441,0.0382717138379386
442,0.0391636989903687
443,0.0396218276673746
444,0.0403127507114314
445,0.0410036737554882
446,0.041694596799545
447,0.0423420549527231
448,0.0425828898326125
449,0.0441074403079346
450,0.0438663510584083
451,0.0437991228213744
452,0.0437001258814145
453,0.0436011289414546
454,0.0435021320014947
455,0.0436654249488339
456,0.0438078994438559
457,0.0442021873297539
458,0.0446075346551714
459,0.0452086163943275
460,0.0453287462995343
461,0.0449099481275252
462,0.0461741405749811
463,0.0449144014868133
464,0.044566401784682
465,0.0442319118367323
466,0.0438563663961378
467,0.0438428246882818
468,0.043420383387854
469,0.0432845790647954
470,0.0442040551021602
471,0.0441635464884292
472,0.0445031417952515
473,0.0451554475369089
474,0.0451845390732893
475,0.0460743542114847
476,0.045034751109256
477,0.0451176543197094
478,0.0452005575301629
479,0.0452834607406163
480,0.0452633295859435
481,0.0441498441695626
482,0.0436595122258971
483,0.043290736001241
484,0.0423190145291159
485,0.0414652942007048
486,0.0419277725555637
487,0.0423056191651219
488,0.0428795966020174
489,0.0439945884700197
490,0.0443371581356557
491,0.044859445438903
492,0.0459128495512312
493,0.0455157004818691
494,0.0463541797837713
495,0.0458038009672937
496,0.0461436338033881
497,0.0455949721461725
498,0.0458049783418869
499,0.0449199526126724
500,0.0453672070269336
501,0.0450058595209884
502,0.0460578639871823
503,0.0464158868126325
504,0.0459803930718705
505,0.0476374133967107
506,0.0476133927351215
507,0.0479512630275146
508,0.0484280271822182
509,0.0486148645317295
510,0.0479604619636571
511,0.0488760217860229
512,0.0485471990567445
513,0.0475238873693609
514,0.0473750901728986
515,0.0467409093192451
516,0.046757374711397
517,0.046865163107483
518,0.0469819894802533
519,0.048204088837165
520,0.0494397927566857
521,0.0502253290187371
522,0.0510108652807884
523,0.0517964015428397
524,0.0517901928933072
525,0.0521307374458247
526,0.0525441248017555
527,0.0524958357986998
528,0.0531317166442029
529,0.0540182765782687
530,0.0541901205084431
531,0.0546505454250674
532,0.0545023700713884
533,0.0552415407792426
534,0.0556585732266946
535,0.0551750919062001
536,0.0558099960001746
537,0.0555786898801294
538,0.0552906902457318
539,0.0550840675752874
540,0.0555353096819878
541,0.055210059065354
542,0.0549736072969789
543,0.0555000087687416
544,0.0559940612129383
545,0.0556748152516636
546,0.0562161128462415
547,0.0562458299369238
548,0.0562755470276061
549,0.0563052641182883
550,0.056081889744028
551,0.0566206244242637
552,0.0571628315110586
553,0.0567045050359192
554,0.0566285954804402
555,0.0571915469178762
556,0.0564438148072441
557,0.0564079787959887
558,0.0560813760447732
559,0.055662394905526
560,0.056271735840323
561,0.0554399361792912
562,0.0564551731494228
563,0.0554614771343028
564,0.0558404747115521
565,0.0550724482631988
566,0.0546554778337098
567,0.0540240461569486
568,0.0543814255500473
569,0.053736819308959
570,0.0537024193479046
571,0.0538437180426139
572,0.053798580569194
573,0.0536845100952097
574,0.0539825480747127
575,0.0533279369902861
576,0.0534480595463444
577,0.0535681821024027
578,0.053688304658461
579,0.0538084272145194
580,0.0539285497705777
581,0.0545394959957034
582,0.0541512590826695
583,0.0543473333485332
584,0.0535095581093129
585,0.0531535702418269
586,0.051563097699135
587,0.0508842927385633
588,0.0503120496943538
589,0.0497398066501443
590,0.0491675636059348
591,0.0493555163998312
592,0.0499214695719036
593,0.0498851985573604
594,0.0506938629338703
595,0.0504991591257694
596,0.0509887163065688
597,0.051248300545404
598,0.0512887497021792
599,0.0514601410711924
600,0.0518537597644322
601,0.0520273881947823
602,0.0523779333025788
603,0.0522056887650569
604,0.0527971015902553
605,0.0523413468140681
606,0.0525040205361896
607,0.0522843599178605
608,0.051521161509752
609,0.0514775427066546
610,0.0510903558565764
611,0.0508296346285275
612,0.0504056934449723
613,0.0502629178449444
614,0.0496414454056377
615,0.0503695327086029
616,0.0496222665034506
617,0.0500992688979872
618,0.0500701505220391
619,0.0502601015139752
620,0.0500330638978045
621,0.0504340508082808
622,0.0495269600755696
623,0.0493895320543642
624,0.0491283660680429
625,0.0488672000817217
626,0.0486060340954004
627,0.0485546261842674
628,0.0484868735521198
629,0.0482096936900803
630,0.0487070554402047
631,0.0480667164208991
632,0.0483920279908898
633,0.0488282084399107
634,0.0487532455802089
635,0.0490337754952974
636,0.0486668557470212
637,0.0490910448482439
638,0.0487651560231261
639,0.0489678199578274
640,0.0487206671944156
641,0.0486243754482867
642,0.0482972821372699
643,0.0479378957518752
644,0.0475785093664804
645,0.0472191229810857
646,0.047276810611591
647,0.0472206071440519
648,0.0463858674720966
649,0.0472071703392575
650,0.0467159057048392
651,0.0470999902504282
652,0.0465832501499979
653,0.0458371704203814
654,0.0450182205838252
655,0.0455738069445854
656,0.0450812376536684
657,0.0457030039098726
658,0.0462441596366446
659,0.0473928933803605
660,0.0477256328784834
661,0.0479527962128393
662,0.0481737203115794
663,0.0479803205611056
664,0.0476306542056347
665,0.0478687932034807
666,0.0478612395926625
667,0.0480061183623581
668,0.0479843598395331
669,0.0472012744433267
670,0.0474746248957834
671,0.0475573509778393
672,0.0473058956126146
673,0.0474629581640474
674,0.0475460200848959
675,0.0475953106646885
676,0.0476625413973033
677,0.0479480293171103
678,0.0474683358731089
679,0.0473945045729805
680,0.0486505491825742
681,0.0478605597250634
682,0.0468936843900849
683,0.0461585649336573
684,0.0447089877719547
685,0.0436498364193173
686,0.0428821574974185
687,0.0421314122021203
688,0.0421131267658902
689,0.0425241757832106
690,0.0433148531448966
691,0.0445103415514031
692,0.0449877925883313
693,0.0457938200169013
694,0.0468001234162911
695,0.0472536927399505
696,0.0484595986659126
697,0.0492297857046959
698,0.0491769976458838
699,0.0497660952677239
700,0.0512114237321409
701,0.0514732709394759
702,0.0528831434033226
703,0.0537317779879187
704,0.0552116369130414
705,0.0559049323970349
706,0.0573396616849588
707,0.0585696089229207
708,0.0592716416590693
709,0.0606200357142821
710,0.0607580453111958
711,0.0613243465297678
712,0.0619950114916432
713,0.0600980571346778
714,0.0593211158796335
715,0.0566385742097284
716,0.0545266003670071
717,0.0533144543229208
718,0.0534201190081638
719,0.0544507891103095
720,0.0558557374365593
721,0.0558917851921649
722,0.0581568105004103
723,0.0583803028670027
724,0.0588577850389979
725,0.0597475281077623
726,0.06012806592308
727,0.0619398442363463
728,0.0635727325538927
729,0.0658347129593224
730,0.068016600151313
731,0.0709529850596892
732,0.0738494269837597
733,0.0769405274283654
734,0.0791622267607049
735,0.0805675180116887
736,0.0823765789622453
737,0.0836547579271771
738,0.0849329368921089
739,0.0862111158570407
740,0.0885735636003496
741,0.0897087728624425
742,0.0908866322460146
743,0.0920644916295868
744,0.093242351013159
745,0.0938949737684652
746,0.0942612739900546
747,0.0952548394831154
748,0.0943482609412675
749,0.0954399883151759
750,0.0957368333608085
751,0.095588772522107
752,0.0970857138757493
753,0.0966458568555325
754,0.0954874512998217
755,0.089342000082034
756,0.0831965488642463
757,0.0770510976464586
758,0.067022323871277
759,0.0584768652727393
760,0.0527686075303055
761,0.0519705342960202
762,0.0542469202238499
763,0.0586566574925004
764,0.0648325896798467
765,0.0709235095720762
766,0.0780830081819322
767,0.0847767460905813
768,0.0889787636047681
769,0.0916662756718403
770,0.0941601407446454
771,0.0951108846424303
772,0.0962568849809422
773,0.0975492972270116
774,0.0969332249769114
775,0.0972905237240598
776,0.0977258930953248
777,0.0965605679326019
778,0.0978846557166008
779,0.0968747887560034
780,0.0983973141211864
