"wavelength","measurement"
380,0.0298654146818797
381,0.0286996661220071
382,0.0280041231914956
383,0.0272988097398066
384,0.0272000456647622
385,0.0283376168435779
386,0.0296751955895636
387,0.0307525207163153
388,0.032237628934251
389,0.0325142335035266
390,0.0319700845682519
391,0.0314771039728067
392,0.0313523277878682
393,0.0312853611630241
394,0.0318304545340681
395,0.0335210142228364
396,0.0362470249720241
397,0.0397613848009808
398,0.0432757446299376
399,0.0467901044588943
400,0.0488004128582723
401,0.0508732175012983
402,0.0526283338820745
403,0.0524747288322637
404,0.0522024491198416
405,0.0517806686211137
406,0.0524270959737522
407,0.0521711556629256
408,0.0522914141365998
409,0.052586172456816
410,0.0550786286703833
411,0.0544435922295243
412,0.0559886745371474
413,0.0564282062355551
414,0.0564468277289633
415,0.0563162022520832
416,0.0556227395554487
417,0.0551549568617617
418,0.0553285106937682
419,0.0543670415849919
420,0.0554087092685345
421,0.0550395627834835
422,0.0553996864172824
423,0.0559102047428801
424,0.0557447801255329
425,0.054398871355662
426,0.0536705472122479
427,0.0520617602583954
428,0.050295328058453
429,0.0503200926515565
430,0.050302240732379
431,0.0520855666223666
432,0.0538468277887882
433,0.055310512264064
434,0.0575679713056804
435,0.0586522222482176
436,0.0588948564933133
437,0.059623686555175
438,0.0603525166170368
439,0.0610813466788985
440,0.0614277863660665
441,0.0622928680817133
442,0.0635166282439185
443,0.0637979425044119
444,0.064644500696369
445,0.0654910588883261
446,0.0663376170802832
447,0.0673827427746092
448,0.0673359126937692
449,0.0701204003145582
450,0.0690325978952165
451,0.0687265951367705
452,0.0683298294184662
453,0.067933063700162
454,0.0675362979818578
455,0.0676211082150188
456,0.0673640210774487
457,0.0682642392530691
458,0.0684758566474123
459,0.0694328334410631
460,0.069229243026326
461,0.0684582938461974
462,0.0704073224731667
463,0.068226703088217
464,0.0675030334947657
465,0.0665724332068839
466,0.0658155761211205
467,0.065534655534286
468,0.0648068976167988
469,0.0643986828775702
470,0.0655983642250877
471,0.0654302807076191
472,0.0658311911757446
473,0.0663977948043051
474,0.0665588166279786
475,0.0675004944725033
476,0.0660890316560385
477,0.0660246059936371
478,0.0659601803312358
479,0.0658957546688345
480,0.0651927077309532
481,0.0635680633616619
482,0.0623315093836167
483,0.0621439155394325
484,0.0602968203768347
485,0.059171373247426
486,0.0596019931310033
487,0.060077969251581
488,0.0605658941437918
489,0.0619378351095209
490,0.0623965392404631
491,0.0629131640432085
492,0.0643615025502819
493,0.0634117992119884
494,0.0644322211328626
495,0.0634033275197107
496,0.0636313245080375
497,0.0623683531567831
498,0.062698516197679
499,0.0614162395932122
500,0.0616483163616071
501,0.0612445064606386
502,0.062285950223626
503,0.0627476127719656
504,0.061815224790795
505,0.0638927670994949
506,0.0633616037692219
507,0.0638187477439813
508,0.0641005397150424
509,0.0638921103708689
510,0.063203687765766
511,0.0638204722615564
512,0.0635744810593098
513,0.0616002418903614
514,0.0614098644198085
515,0.0604504176998229
516,0.0599199758530104
517,0.0600249957063612
518,0.0599019893102815
519,0.061308728354186
520,0.0625755261575297
521,0.0633212585105756
522,0.0640669908636215
523,0.0648127232166673
524,0.0645427604032976
525,0.0646905377681437
526,0.0652094037645716
527,0.0648873620970284
528,0.0653571905270451
529,0.0661561869779691
530,0.0662903252351015
531,0.0665230643703098
532,0.066192986300426
533,0.0668953402207632
534,0.0671951667213651
535,0.0664405362709734
536,0.0671545441381491
537,0.0665157491543583
538,0.0660859315262346
539,0.0657410050646798
540,0.0661210077039016
541,0.0656445150990693
542,0.0652437287510478
543,0.0658323748240838
544,0.0659070590884018
545,0.0654654766823312
546,0.0658587233411776
547,0.0659222754424867
548,0.0659858275437957
549,0.0660493796451048
550,0.06552095487593
551,0.066035425064763
552,0.0666778902524784
553,0.065806424646739
554,0.0655599689873066
555,0.0662605113329922
556,0.0654245162478135
557,0.0650717061804887
558,0.0646173331472888
559,0.0640105952647771
560,0.0651364723386602
561,0.0638452757527539
562,0.0649406085531716
563,0.0637442623160701
564,0.0640567689526718
565,0.0632095895489109
566,0.0626697766960091
567,0.0618635572146897
568,0.0621559548168603
569,0.0613244568785752
570,0.0613736126039235
571,0.0613555918542573
572,0.0613160465131839
573,0.0610114923020727
574,0.0615641875403636
575,0.0606713010080203
576,0.0608057159593158
577,0.0609401309106113
578,0.0610745458619068
579,0.0612089608132023
580,0.0613433757644978
581,0.0619300646090812
582,0.0615417446469091
583,0.061768209363427
584,0.0604529278456753
585,0.0602579883459229
586,0.05825009727747
587,0.0574254775209026
588,0.0566867254973341
589,0.0559479734737656
590,0.0552092214501972
591,0.0553945428065314
592,0.0560182415696485
593,0.0560632865977161
594,0.0571127315357051
595,0.056956640088014
596,0.057438063781141
597,0.0578432879489124
598,0.0579775998229617
599,0.0581309450400238
600,0.058611627493285
601,0.0589660244949419
602,0.0594186346015952
603,0.0590749324853046
604,0.0595773323917438
605,0.0592332618670463
606,0.059398300113403
607,0.0589922837010524
608,0.0582058126337384
609,0.0582136250642906
610,0.0578043532354115
611,0.0573177815547269
612,0.0568457232212351
613,0.0565608406826228
614,0.0558452185438087
615,0.0567266186435003
616,0.0558428045067713
617,0.0563780306809124
618,0.0562590775731068
619,0.0564709609896098
620,0.0562433242192225
621,0.0565495239401741
622,0.0553350612320397
623,0.0553733258491378
624,0.0549386194117263
625,0.0545039129743149
626,0.0540692065369034
627,0.0541342753855093
628,0.0538852222113861
629,0.0537561711851922
630,0.0541532833545935
631,0.053553700787631
632,0.053933957747474
633,0.054217640008501
634,0.0540875693665591
635,0.0546652730703946
636,0.0542090086201289
637,0.0547006515612832
638,0.0541475355895089
639,0.0545432873866967
640,0.0543735380970156
641,0.0540405553574187
642,0.0534871644097148
643,0.0530690187320771
644,0.0526508730544393
645,0.0522327273768016
646,0.0521903565040725
647,0.0521441330847178
648,0.0511688100883945
649,0.051958732773885
650,0.0514958778313839
651,0.0518892159482512
652,0.0514014960699482
653,0.0506441870548037
654,0.0497617246883278
655,0.0503645022046338
656,0.0497452930087764
657,0.0504723528394396
658,0.0512561281999478
659,0.0525025870837597
660,0.0526544556474284
661,0.0529825302503417
662,0.0532850166873257
663,0.0528846421893724
664,0.0526949719580216
665,0.0528898218192377
666,0.0529411227518969
667,0.0532386032692749
668,0.0533313360993344
669,0.0521403298517365
670,0.0524531923752816
671,0.0524462419213041
672,0.0522826436084433
673,0.0521931880648281
674,0.0525472566984028
675,0.0525103141122805
676,0.0523866232617524
677,0.052863282423112
678,0.0522133800137261
679,0.0523519647417709
680,0.0533748519170694
681,0.0526281719232231
682,0.0514557605142453
683,0.0504576570860767
684,0.0488363111140429
685,0.0474782457491123
686,0.0465690154191526
687,0.0456174171256716
688,0.0454446485163435
689,0.0457720181096974
690,0.0465106946336944
691,0.0476865957208851
692,0.0478843007488664
693,0.0486139825237065
694,0.0496175064793512
695,0.0500369254680354
696,0.0514046004064006
697,0.0519671106378031
698,0.0515370785035185
699,0.0520764225194707
700,0.0535091067281846
701,0.0537157273094568
702,0.0551900797964096
703,0.0560064439813537
704,0.057608797397867
705,0.0580872712647328
706,0.0595061636711507
707,0.0609583597817951
708,0.0618215532230188
709,0.0631249895188364
710,0.0630740904088251
711,0.0634988457504798
712,0.0640364252370319
713,0.0617736725980879
714,0.0606489767510417
715,0.0576361182102805
716,0.0551660145758931
717,0.0537086701715315
718,0.0537825335728662
719,0.0545153632049134
720,0.0557961627849568
721,0.0559307289277955
722,0.0585064020088496
723,0.0582320287706645
724,0.0584647934528332
725,0.0593239421461953
726,0.0596929441438097
727,0.0616130554987881
728,0.0630236648301623
729,0.0654073890362251
730,0.067617438371671
731,0.070656183058322
732,0.0736606160484
733,0.0766280059327414
734,0.0791320480571125
735,0.0802941172703669
736,0.0822335584871185
737,0.0835628203527252
738,0.0848920822183318
739,0.0862213440839385
740,0.0884899832815368
741,0.0895281543880492
742,0.0906476262586704
743,0.0917670981292916
744,0.0928865699999128
745,0.0937620685826964
746,0.0937921494842506
747,0.0946748850530786
748,0.0940825227376433
749,0.0946611601684211
750,0.0951419252698941
751,0.0952177953509347
752,0.0964437514508526
753,0.0961706731780029
754,0.0946819160675378
755,0.0885518114279071
756,0.0824217067882765
757,0.0762916021486459
758,0.0661995050158392
759,0.0572680448715177
760,0.0515337366012906
761,0.0506627432014312
762,0.0525126513875579
763,0.0572152361002629
764,0.0635500518877879
765,0.0692540324408686
766,0.0766930056313119
767,0.0836466217157819
768,0.0876234190162892
769,0.090757083897609
770,0.0925573928325453
771,0.0937283353847329
772,0.0946138239848105
773,0.0961481227861978
774,0.0958721135943744
775,0.0959293377518064
776,0.0963334284475523
777,0.0954136866785669
778,0.0970152269956846
779,0.0956831100779461
780,0.0969734416397657
