"wavelength","measurement"
380,0.0513474762444609
381,0.0489178054470943
382,0.0478865343540848
383,0.047145027699898
384,0.0468470652362296
385,0.0487763488373608
386,0.0507522441358346
387,0.0523583955688189
388,0.0543388408409755
389,0.0551086157420167
390,0.0543374562368667
391,0.0538145049940725
392,0.0533426148980242
393,0.0534751152192251
394,0.0541207815983903
395,0.0570290193564527
396,0.0618501618345934
397,0.0678862111749801
398,0.0739222605153669
399,0.0799583098557537
400,0.0830017669566819
401,0.0868387079351955
402,0.089133053567719
403,0.0891910970349204
404,0.0890667921769344
405,0.0882678759910045
406,0.0889147820072925
407,0.0890534668508348
408,0.089153132146961
409,0.090360134168569
410,0.0941055879314538
411,0.094017122014128
412,0.0960595996255066
413,0.0977589100883803
414,0.098101241271924
415,0.0987431259629745
416,0.0982242973842042
417,0.0974921517795344
418,0.0988019685102166
419,0.0970784329428231
420,0.099335837789267
421,0.0994020132402575
422,0.0999720966180968
423,0.101013403120658
424,0.101077492284374
425,0.0990947645919223
426,0.0977301678063473
427,0.0957626579043877
428,0.0925657045578287
429,0.0925013053203135
430,0.0923422394781642
431,0.0958065502904181
432,0.0992558864362844
433,0.102173670270674
434,0.106191978691071
435,0.108268070992328
436,0.10942081288057
437,0.110844602847457
438,0.112268392814344
439,0.113692182781231
440,0.11428702965667
441,0.11591331003763
442,0.117988521518055
443,0.118587355845723
444,0.120062936043446
445,0.121538516241169
446,0.123014096438892
447,0.124500676677833
448,0.124384195284047
449,0.128936750551301
450,0.127531182290289
451,0.126434355917051
452,0.125730148720784
453,0.125025941524518
454,0.124321734328252
455,0.124328638783772
456,0.124062607484027
457,0.125109875774583
458,0.125872876533625
459,0.127264563032008
460,0.127562116288333
461,0.125744920372112
462,0.129223346461065
463,0.125403554840233
464,0.123853847960702
465,0.122700290484252
466,0.121140988891912
467,0.120445839533031
468,0.119309846220103
469,0.118374944923099
470,0.12071455958488
471,0.12042666848748
472,0.120751887964644
473,0.122387117755167
474,0.122209656851474
475,0.123995469341745
476,0.120872453506306
477,0.120773533407666
478,0.120674613309026
479,0.120575693210387
480,0.120088820847747
481,0.116984137219041
482,0.114251656477604
483,0.113783687857235
484,0.11078254213793
485,0.108422933622129
486,0.109098398681788
487,0.109844081428739
488,0.110803321033026
489,0.113434889427553
490,0.114009775154046
491,0.115155313698604
492,0.117715620151056
493,0.116151067602788
494,0.117946813762151
495,0.116267110850583
496,0.116614868001239
497,0.114541242376026
498,0.114985727621122
499,0.112436422052155
500,0.112759473374793
501,0.11187060746563
502,0.11364791103207
503,0.114047961595022
504,0.112579801472064
505,0.11636644071849
506,0.115581065763885
507,0.116207177551353
508,0.116870182301922
509,0.116765746453152
510,0.114933679144234
511,0.116443177464533
512,0.115496625475674
513,0.111952002475862
514,0.111544916470382
515,0.109471958302548
516,0.108823557991269
517,0.108605490374801
518,0.1083317014693
519,0.110692187860902
520,0.112661495670666
521,0.113965931998811
522,0.115270368326957
523,0.116574804655103
524,0.115915818861373
525,0.116399877346178
526,0.116872603609698
527,0.116223466425895
528,0.116908628416569
529,0.118458731859891
530,0.118462352916329
531,0.118787098596289
532,0.118253945860905
533,0.119567307477195
534,0.119766174220577
535,0.118132339061016
536,0.11969071629514
537,0.118799930657916
538,0.117934694296366
539,0.117267453112646
540,0.117910739829084
541,0.116899186184171
542,0.116198867817085
543,0.116739733732013
544,0.117426658064622
545,0.116517266569347
546,0.11744237136882
547,0.11744861228933
548,0.117454853209839
549,0.117461094130349
550,0.116606621434028
551,0.117439869449735
552,0.118532298785461
553,0.117282458043885
554,0.116695223916839
555,0.118105408543212
556,0.116484666475749
557,0.116171727167996
558,0.115596056531227
559,0.11460246361287
560,0.115932510952178
561,0.113928613250956
562,0.115912335810812
563,0.114060189193235
564,0.114863677229819
565,0.11294582012357
566,0.112227019405604
567,0.110796613938482
568,0.111715721730917
569,0.109998129458729
570,0.110034858778146
571,0.110236347550527
572,0.110247404012614
573,0.109926841191753
574,0.110592629589949
575,0.109080204736288
576,0.109420911428051
577,0.109761618119815
578,0.110102324811578
579,0.110443031503342
580,0.110783738195105
581,0.112016329735489
582,0.111447503110081
583,0.111958396169047
584,0.109577420757616
585,0.108991927206976
586,0.105651515450976
587,0.103724715350267
588,0.102415307823755
589,0.101105900297243
590,0.0997964927707316
591,0.100270377410813
592,0.101121730479852
593,0.101425851574596
594,0.103027555427805
595,0.10305493800276
596,0.103873776118365
597,0.104462695805742
598,0.104839355037045
599,0.105393728864088
600,0.106277702322864
601,0.106891826761832
602,0.107726241555513
603,0.10738432882794
604,0.108235186713662
605,0.10780125434911
606,0.107875554902166
607,0.107294999510251
608,0.106058445392283
609,0.105785522298804
610,0.104927177855939
611,0.104359773896025
612,0.103656803411696
613,0.102850426678381
614,0.101796725129848
615,0.103354686607066
616,0.101748289071854
617,0.102823164432191
618,0.102797814082084
619,0.102984518196136
620,0.102799063088989
621,0.103359809946816
622,0.101367896543101
623,0.101277036467319
624,0.10056370230718
625,0.0998503681470408
626,0.0991370339869017
627,0.0987967542871893
628,0.0983848936703236
629,0.0983841523730684
630,0.0991940623942824
631,0.0979079169734188
632,0.0984746600752269
633,0.0991414633146093
634,0.0994526662787423
635,0.0998181101978592
636,0.0988861087673659
637,0.100240098454055
638,0.0993184699251639
639,0.0995873651147945
640,0.0992221320256871
641,0.0989837712890681
642,0.0982957207607799
643,0.0974887214476881
644,0.0966817221345964
645,0.0958747228215046
646,0.0959871225257885
647,0.0956736766214955
648,0.0938388264274487
649,0.0954351474581302
650,0.0944540383870834
651,0.0956147821809901
652,0.0944172345515114
653,0.0929725595931805
654,0.0915698663220788
655,0.0925452441723124
656,0.0915316334026029
657,0.0927302068999099
658,0.0939854994634929
659,0.0960291778977966
660,0.0972709131974039
661,0.0976179770832225
662,0.0982297529985322
663,0.0977321352858643
664,0.0972056916720154
665,0.0973729089914427
666,0.0976835910447436
667,0.0977000240779796
668,0.0980671259183477
669,0.0961418796387208
670,0.0969274297010413
671,0.0963466176150579
672,0.0963738704000544
673,0.0964723886185301
674,0.0968484172545544
675,0.0967213130864577
676,0.0967579746917665
677,0.0974602613022809
678,0.0963230933528424
679,0.0959979856517285
680,0.0985023062209603
681,0.0969021948674443
682,0.0946653315152843
683,0.0930113063729759
684,0.0896789068243522
685,0.0872263042008156
686,0.085011392746405
687,0.0833558777246518
688,0.0829482982424051
689,0.0831494628530871
690,0.0841473599459975
691,0.0861160474618261
692,0.0862931530159823
693,0.0877240942322747
694,0.0889943514587531
695,0.0894584416034997
696,0.0913078619722264
697,0.0922519386968293
698,0.0914904979297279
699,0.0921054950759086
700,0.0942942212880159
701,0.0941588350266219
702,0.0966017653027405
703,0.0972231345452415
704,0.100037272815895
705,0.101007783173626
706,0.103053903383122
707,0.104896449736394
708,0.105796910902675
709,0.107991111010449
710,0.107780525830351
711,0.108064766001551
712,0.108752415600979
713,0.104867584170792
714,0.102570815978643
715,0.0971143521441837
716,0.0926566905463774
717,0.0897906508423951
718,0.0897917408341871
719,0.0907097990899409
720,0.0928492027753548
721,0.0928524461163968
722,0.0959257688603189
723,0.0961312112119568
724,0.0963202139000582
725,0.0974105433485781
726,0.0976991632669699
727,0.100567852220585
728,0.102753386032226
729,0.106442237650676
730,0.109930640062489
731,0.114935700249175
732,0.119263159731309
733,0.124318489073837
734,0.127770769882185
735,0.129673870043814
736,0.132417373172115
737,0.134571078592609
738,0.136724784013103
739,0.138878489433597
740,0.142458093775303
741,0.144019551693462
742,0.145685556386167
743,0.147351561078873
744,0.149017565771578
745,0.149932261253545
746,0.15033425617367
747,0.151384867610139
748,0.150215507115972
749,0.151511831938499
750,0.152262946480438
751,0.151297664061033
752,0.153811012426558
753,0.15326267822608
754,0.151216451218358
755,0.141380395438507
756,0.131544339658656
757,0.121708283878805
758,0.105682461857435
759,0.0919503426952928
760,0.082675741553865
761,0.0808048576286944
762,0.0838431942754736
763,0.0900374029094087
764,0.10020210644884
765,0.109797205701153
766,0.121009966031061
767,0.131962320371771
768,0.138320365752079
769,0.143398885769224
770,0.147143397214099
771,0.148915882498735
772,0.150528754066843
773,0.15291449599421
774,0.151889433429453
775,0.15276825554661
776,0.152748344387173
777,0.151637549381242
778,0.15365035095801
779,0.151786156541888
780,0.154117665039717
