"wavelength","measurement"
380,0.00100344250875925
381,0.00100352534363443
382,0.00100281966223198
383,0.00101766441383941
384,0.00105059207259348
385,0.00113659819267797
386,0.00118365270625023
387,0.001274236395815
388,0.00135881553496875
389,0.00140422037772587
390,0.00141385803734948
391,0.00143572363682795
392,0.00141587758231794
393,0.0015101385135962
394,0.00161715112930309
395,0.00168303920849712
396,0.00188449957621
397,0.00211669279825779
398,0.00234888602030559
399,0.00258107924235339
400,0.00275155904721048
401,0.00292899979382517
402,0.00306360302927991
403,0.00313914695632663
404,0.00320914693615488
405,0.00323001838223179
406,0.00336888261310752
407,0.00345267645268175
408,0.00353187369166006
409,0.00364253770771533
410,0.00383711851526752
411,0.00388840963965967
412,0.00403201955323077
413,0.0041894483107694
414,0.00418721932195831
415,0.00425720114539678
416,0.00428029614134512
417,0.00428499103048098
418,0.00439337181001415
419,0.00431657261562446
420,0.00444009236345684
421,0.00445081373774358
422,0.00451375355309851
423,0.00458321486193103
424,0.00460140342803272
425,0.004527839605302
426,0.00450075512697281
427,0.00440318736042766
428,0.00422794043040205
429,0.00428661369101008
430,0.00428944952410856
431,0.00447355487020584
432,0.00468574432191816
433,0.00484561022698853
434,0.00504178247801872
435,0.0051681872030199
436,0.00524301214989714
437,0.00533390133502928
438,0.00542479052016142
439,0.00551567970529356
440,0.00552259952429364
441,0.00567926837719716
442,0.00583036703135267
443,0.00590345493071668
444,0.00603566870723245
445,0.00616788248374821
446,0.00630009626026398
447,0.00641892047207996
448,0.00647370011805466
449,0.00673690370039702
450,0.00670491178368463
451,0.00666368018061658
452,0.00665302344613039
453,0.00664236671164419
454,0.00663170997715799
455,0.00662507104044277
456,0.00659159113105529
457,0.00672322695061771
458,0.00672635271613343
459,0.00684913195868223
460,0.00684183713792846
461,0.00679860945839575
462,0.00696833911856001
463,0.00679734119658614
464,0.00670076046846344
465,0.00665449543963058
466,0.00660228066424507
467,0.00656301661221082
468,0.00653692916621244
469,0.00647656596620803
470,0.00661227595330663
471,0.00660467141440883
472,0.0066854527721057
473,0.00673799837400431
474,0.00678807246378052
475,0.00689491630274766
476,0.00672143590342817
477,0.00673431100915531
478,0.00674718611488245
479,0.00676006122060959
480,0.0067495441517203
481,0.00656388484423819
482,0.00644863633099643
483,0.00643097269574569
484,0.00626902107867049
485,0.00617416118531617
486,0.00622573916210575
487,0.00629636159438262
488,0.0063515026546713
489,0.00652954415130293
490,0.00657767602566158
491,0.00662691680727027
492,0.00678846304061562
493,0.0067465891156737
494,0.00683912046274704
495,0.00674468556114086
496,0.0067799245099455
497,0.00667214861333423
498,0.00674415104679834
499,0.0065797598841229
500,0.00664605402851518
501,0.00658955841755484
502,0.00673399130521204
503,0.0067725571102748
504,0.00670428359119409
505,0.00695040989778059
506,0.00694701930395328
507,0.00698690605654842
508,0.00702827249618876
509,0.00704474519088784
510,0.00696796857212592
511,0.00707499319080399
512,0.00704026039412735
513,0.00686303846480232
514,0.00685196242394865
515,0.00674652270893269
516,0.00673491686695722
517,0.00675382674007553
518,0.0067574206587532
519,0.00689821569516935
520,0.00707102190750217
521,0.00717056630571429
522,0.00727011070392641
523,0.00736965510213852
524,0.00734268669566518
525,0.00739112080001045
526,0.00743197976488849
527,0.00737816827425784
528,0.00748341935661532
529,0.00758666473557804
530,0.00760832463980279
531,0.0076246818549786
532,0.00761302761079052
533,0.00768087883491901
534,0.00775032059283949
535,0.00765799834733293
536,0.00771456001268458
537,0.00768676034935578
538,0.00763335963164111
539,0.00759117945269116
540,0.00761914118431924
541,0.00758214370346971
542,0.00754603415553778
543,0.00758713461487811
544,0.00761321900257208
545,0.00754566023585487
546,0.00763369826975845
547,0.00762514235771471
548,0.00761658644567098
549,0.00760803053362724
550,0.00755234655817154
551,0.00761311614169534
552,0.00765231642286702
553,0.00758725731335089
554,0.00754451196570418
555,0.00762050273477369
556,0.00751586967982345
557,0.0074945675193533
558,0.00742515013344269
559,0.00737867213321782
560,0.00745072257961999
561,0.00730661858455741
562,0.00743602118717107
563,0.00729767065122241
564,0.00732766697912927
565,0.00718919001475013
566,0.00715785551072178
567,0.00706197445675984
568,0.0070624867616874
569,0.00695533162053443
570,0.00694475989846519
571,0.00696101239190705
572,0.00694585739227857
573,0.00692360414697827
574,0.0069486545188854
575,0.00684183104663475
576,0.00685369348554858
577,0.00686555592446241
578,0.00687741836337625
579,0.00688928080229008
580,0.00690114324120391
581,0.00696024345575433
582,0.00692368453338803
583,0.00690183060179192
584,0.00677355922027425
585,0.00674081612370897
586,0.00649163477102138
587,0.0063789162368094
588,0.0062943842822524
589,0.0062098523276954
590,0.00612532037313839
591,0.0061242175094555
592,0.00619385332800075
593,0.00618227510737248
594,0.00627942852233523
595,0.00625206021441483
596,0.00631625304465125
597,0.00633749524986703
598,0.0063545978920864
599,0.0063607173786916
600,0.00640915465257327
601,0.00643903396699254
602,0.0064764393975516
603,0.00644983293854501
604,0.00646273561671796
605,0.00643680874915668
606,0.00640497273121018
607,0.00638186059605157
608,0.00628347046440394
609,0.00626842063370439
610,0.00620409279895241
611,0.0061240381547393
612,0.0060825645275581
613,0.00602222440359382
614,0.00595466592988882
615,0.00598240000518591
616,0.00591387045671909
617,0.0059429763175651
618,0.00593001584009379
619,0.00593440176321227
620,0.00589058023284073
621,0.00591446302931975
622,0.00579066032296382
623,0.00578612426840156
624,0.00571636420598252
625,0.00564660414356348
626,0.00557684408114443
627,0.00557814926205632
628,0.0055384294015716
629,0.00552496633449534
630,0.00556208974361806
631,0.0054808710981249
632,0.00549368082837923
633,0.00549783401818404
634,0.005485751539994
635,0.00549970526020352
636,0.00547602442730804
637,0.00546787584214096
638,0.00541685344669611
639,0.00544068396573339
640,0.00538100434219044
641,0.00534677120508999
642,0.00528926991290938
643,0.00523127298976574
644,0.00517327606662211
645,0.00511527914347848
646,0.00505955527906388
647,0.00504679556939469
648,0.00491462230917037
649,0.00502815259646881
650,0.00496194669279984
651,0.00497112202133851
652,0.00488548944369826
653,0.00477978085830381
654,0.0047046085383296
655,0.00473821600518663
656,0.00468197392711544
657,0.00470749524581838
658,0.00476017588608596
659,0.00487682633703178
660,0.00491002854231616
661,0.00491356421083434
662,0.00491719044968043
663,0.00486200138838925
664,0.00482892235800068
665,0.004822233111893
666,0.00481962175045578
667,0.00482219254252185
668,0.00479492724285854
669,0.00470020692900914
670,0.00470081420486439
671,0.00466925763815683
672,0.00465268205550069
673,0.00464800438327109
674,0.00464530963977346
675,0.00462872785335949
676,0.00461319959952367
677,0.00461926411072249
678,0.00456330110027372
679,0.00453131207717314
680,0.0046460072649497
681,0.00453840829678242
682,0.00445011471032877
683,0.00431936224026545
684,0.00417255357728762
685,0.00405960341177599
686,0.00393855692837501
687,0.0038713330274149
688,0.00382999731086053
689,0.00384551499362729
690,0.00392149183104909
691,0.00401526839025626
692,0.0040468055351959
693,0.00407248515946337
694,0.0041692219980976
695,0.00420980854153548
696,0.00431742968129409
697,0.00436632378743525
698,0.00432551150733926
699,0.00438655561981974
700,0.00450022832552731
701,0.00452039840205285
702,0.0046202389069413
703,0.00471661368227519
704,0.00484461664326285
705,0.0048625954324405
706,0.00499672502150597
707,0.00506715659660338
708,0.00513293267064677
709,0.00521249882790555
710,0.00519859007322797
711,0.00525867107701763
712,0.00528832513034414
713,0.00508919182989589
714,0.00495568605513635
715,0.00468825115651944
716,0.00446490075386095
717,0.00434552254232671
718,0.0043213648298332
719,0.00437995660893142
720,0.00449737525858093
721,0.00446584291108823
722,0.00463633717353813
723,0.00460105933627273
724,0.00463352178472105
725,0.00464932627734558
726,0.0046587851730676
727,0.00475235847977868
728,0.00485350188408713
729,0.00498521969028045
730,0.00519370378533081
731,0.00540978745555589
732,0.0055882446886835
733,0.00577597781331532
734,0.00592856406387087
735,0.00601209923851127
736,0.00611130792193176
737,0.006181782079356
738,0.00625225623678024
739,0.00632273039420449
740,0.00646929824251243
741,0.00652609598253326
742,0.00657513855667784
743,0.00662418113082242
744,0.00667322370496699
745,0.00668429120606233
746,0.00669407191734507
747,0.00671523649274487
748,0.00660262905622248
749,0.00665462887656039
750,0.00661113836760984
751,0.00658800549247641
752,0.00663675308506681
753,0.00649805842342476
754,0.00646393163755719
755,0.00601487558267059
756,0.00556581952778399
757,0.00511676347289739
758,0.00444282917575562
759,0.00379210735312479
760,0.00341349076335129
761,0.00332867785173935
762,0.00347282654993652
763,0.00372058215688739
764,0.00412578868194381
765,0.00450861681204867
766,0.00495003730009318
767,0.00540062875604558
768,0.005640010768656
769,0.00577089191323125
770,0.00591936216408435
771,0.00594438555699462
772,0.00600342852206902
773,0.00604408184450061
774,0.00601585888524594
775,0.00598655576696196
776,0.00599601821333577
777,0.00592423668571782
778,0.00592684593519619
779,0.00587651043812953
780,0.00591928137690687
