"wavelength","measurement"
380,0.0371616299221416
381,0.0356018933277084
382,0.0349973293017017
383,0.0342435904308725
384,0.0343499816447621
385,0.0360256440443803
386,0.0374251257276537
387,0.0393462370097981
388,0.0404927607770501
389,0.0414601977766955
390,0.040755907722524
391,0.0404165449527347
392,0.0401295849276456
393,0.0402213901108986
394,0.0405722206102187
395,0.0424595812425647
396,0.046700942957698
397,0.0512470995424268
398,0.0557932561271556
399,0.0603394127118845
400,0.0634091756550544
401,0.0665271779651019
402,0.0682772557216445
403,0.0683430857181495
404,0.0683987654327812
405,0.0679055757453845
406,0.068508024888284
407,0.0686364175710492
408,0.0687690506639649
409,0.0699046060180444
410,0.0725800170360631
411,0.0726277101581804
412,0.074234431492825
413,0.0756226424888877
414,0.0755456125118745
415,0.0763765572911161
416,0.0752999133276103
417,0.0747786353543501
418,0.0759056264814524
419,0.0745395873101238
420,0.0759303198780723
421,0.0761286032688006
422,0.0762142382559166
423,0.0766794468133843
424,0.0771520657071136
425,0.0754806939634352
426,0.0748063098665983
427,0.0728027346549253
428,0.0707572735172733
429,0.070266186942137
430,0.0705366691979527
431,0.0728029330369923
432,0.0755676859443602
433,0.0779996534842298
434,0.0812216840599704
435,0.083081726478896
436,0.083239134214238
437,0.0846021138424763
438,0.0859650934707145
439,0.0873280730989528
440,0.0874310533361561
441,0.08907169670698
442,0.0903192474729543
443,0.0915449500212425
444,0.0927698530796302
445,0.0939947561380179
446,0.0952196591964055
447,0.0964344474733052
448,0.0966184051037612
449,0.100431739898181
450,0.0995178278286669
451,0.0989197076126469
452,0.0985424908040591
453,0.0981652739954714
454,0.0977880571868836
455,0.0979083661283085
456,0.097542635686467
457,0.0988191067804753
458,0.0994624948748441
459,0.100988946203031
460,0.10090588022796
461,0.0999426771742746
462,0.102699691845591
463,0.100337770001795
464,0.0988098969713243
465,0.0979134527969445
466,0.096727694164437
467,0.0962241434075242
468,0.0954406089218715
469,0.0948509454984476
470,0.0964732524539813
471,0.096357769846634
472,0.0969508880211873
473,0.0981156115173746
474,0.0986712944369589
475,0.099645466470704
476,0.0975912570055455
477,0.097523925839131
478,0.0974565946727164
479,0.0973892635063019
480,0.0972566124623683
481,0.0947043515207383
482,0.0931396397280947
483,0.0922718223056521
484,0.0899635198593091
485,0.0880678411772836
486,0.0886956532037213
487,0.0895709316824762
488,0.0902089506471494
489,0.0924127071293
490,0.0931637104696007
491,0.0938070441799222
492,0.0960851678626475
493,0.0949980137393819
494,0.0965121295517051
495,0.0950090440649483
496,0.0956669997073185
497,0.0940563569055595
498,0.0941925376795826
499,0.0921555055059701
500,0.0927571948860934
501,0.0918452850591266
502,0.093378010057324
503,0.0939728159233123
504,0.0927446703049679
505,0.0957787520165433
506,0.0953624940638135
507,0.095979221242061
508,0.0963452461866422
509,0.0962779936458817
510,0.0945729572491485
511,0.0959622378704028
512,0.0953134680157197
513,0.0924241498519914
514,0.0921160527308668
515,0.0902703770400013
516,0.0897387746682758
517,0.089507843494951
518,0.0895971541299129
519,0.0911311635699647
520,0.0928437263594491
521,0.0939944269612272
522,0.0951451275630053
523,0.0962958281647834
524,0.0955285806773082
525,0.096046731533658
526,0.096218308515195
527,0.0959758596524483
528,0.0965309392532378
529,0.0977973341879825
530,0.0978251040075989
531,0.0980646187586959
532,0.097832615305295
533,0.098657319596103
534,0.0989130069587263
535,0.0977905573723447
536,0.0988095070054595
537,0.0980214719880318
538,0.0973103615561758
539,0.0966145785336236
540,0.0969068663970307
541,0.0962246882028261
542,0.0956202020190271
543,0.0963816424211513
544,0.0966728742747611
545,0.0961267204256199
546,0.0967564303461004
547,0.0966486091346499
548,0.0965407879231994
549,0.0964329667117489
550,0.0959683729032927
551,0.0963946695395199
552,0.0975490754395675
553,0.0964916027458445
554,0.0960686025683744
555,0.0972217265043613
556,0.0956157157085531
557,0.095500563452155
558,0.0948369063495483
559,0.0938810886206503
560,0.0951353751343027
561,0.0936379701196027
562,0.0953822042916904
563,0.0937865922476536
564,0.0943106070162617
565,0.0929222339026543
566,0.0923277019834381
567,0.0911650899903368
568,0.0918737510448386
569,0.0907296261335193
570,0.0905112940065612
571,0.0908289493782815
572,0.0908092280049453
573,0.090717052506427
574,0.091252442844631
575,0.0899884766709425
576,0.0901862952888175
577,0.0903841139066924
578,0.0905819325245674
579,0.0907797511424423
580,0.0909775697603173
581,0.0921149078459437
582,0.0913222711147431
583,0.0917870763381019
584,0.0901073094574663
585,0.0895024548069359
586,0.0870143523395676
587,0.0854750636009211
588,0.0844963775073792
589,0.0835176914138372
590,0.0825390053202953
591,0.0828707200359815
592,0.0836007242547596
593,0.0837684232516379
594,0.0850926267750387
595,0.0849512573720129
596,0.0856416177541098
597,0.0861470953098957
598,0.0862509629571523
599,0.0863439849229601
600,0.0870405292557642
601,0.0876197721479196
602,0.0881983889316422
603,0.0876377694316716
604,0.0886715318385007
605,0.0880087386464452
606,0.088181423049486
607,0.0878135503920948
608,0.0866015922366231
609,0.0866884015357994
610,0.0858927965266804
611,0.0852112580937401
612,0.0846537786463899
613,0.0842795542894218
614,0.0832301932048585
615,0.0843860435775701
616,0.0830948163382561
617,0.0839117629154124
618,0.0838651837506162
619,0.0842565999289937
620,0.0839062071909913
621,0.0845518890369564
622,0.0829796393109838
623,0.0826163296271042
624,0.0820963171015995
625,0.0815763045760947
626,0.0810562920505899
627,0.0810610266247987
628,0.0807164695053084
629,0.0803668864340859
630,0.0810135160925055
631,0.0801998762099877
632,0.080543335322848
633,0.0810631941274682
634,0.0810143753346812
635,0.0814776769869372
636,0.0809088277085907
637,0.0816617552058988
638,0.0811182994650747
639,0.0812414076770018
640,0.0810587634388941
641,0.0805981972528593
642,0.0801150955414763
643,0.0795605007846938
644,0.0790059060279113
645,0.0784513112711287
646,0.0783537903543237
647,0.0782038878712475
648,0.0768746622709286
649,0.0783901717542435
650,0.0772692734375244
651,0.0783095890856485
652,0.0773722325417825
653,0.0763384219569644
654,0.0749926084932498
655,0.075467964894153
656,0.0749376450581082
657,0.075594975851292
658,0.0767866345824923
659,0.0787067018641021
660,0.079447863291692
661,0.0797199818329639
662,0.0801386991720616
663,0.0797816861861758
664,0.0793319241024614
665,0.0796264880041808
666,0.0795683358434107
667,0.080198615705357
668,0.0800360494121883
669,0.0787267544286511
670,0.0793780920838543
671,0.079218252391265
672,0.078895111357602
673,0.0790689432024157
674,0.0793757480145809
675,0.0793635609183171
676,0.0794640668027465
677,0.0800470301128526
678,0.0792091963422825
679,0.079136072304002
680,0.0813265641752901
681,0.0797939273071242
682,0.0783403467135533
683,0.0768659378620714
684,0.0744602142180965
685,0.0724706733355408
686,0.0710040578695379
687,0.0696308571467228
688,0.0693481251917552
689,0.0698090336887319
690,0.070753345780996
691,0.0724537400118013
692,0.0729781879069171
693,0.0741623803229822
694,0.0752414992997324
695,0.075702011849934
696,0.0775471443663753
697,0.0782111954003152
698,0.0777546393447953
699,0.0783587195664456
700,0.0802390623899533
701,0.0803322475917976
702,0.0820006418018724
703,0.0828289985640523
704,0.0848037437146146
705,0.0854048674355878
706,0.087277237557077
707,0.0889188072756222
708,0.0898033797131895
709,0.0914798282339619
710,0.0912287583626543
711,0.0915166813517677
712,0.0923765026886682
713,0.0889053306277324
714,0.087270101756278
715,0.0829291634679204
716,0.079141774730433
717,0.0770060115129228
718,0.076387546308238
719,0.0776673625064999
720,0.079193313950837
721,0.0791460500747749
722,0.081727243122039
723,0.0816985634777257
724,0.0820650451069714
725,0.0827612406976443
726,0.0829965649796544
727,0.0850738426694278
728,0.0867686146882067
729,0.0900063474180537
730,0.0924870519311136
731,0.0964222272079874
732,0.0997797376749842
733,0.103912521130096
734,0.106582729248597
735,0.108225138513611
736,0.110128696099135
737,0.111699525435851
738,0.113270354772567
739,0.114841184109283
740,0.117855554818741
741,0.118738690288856
742,0.120041235927921
743,0.121343781566987
744,0.122646327206052
745,0.123522142653186
746,0.12372662015684
747,0.124881678939929
748,0.123804336281924
749,0.125073829145364
750,0.125714432844046
751,0.125071002404468
752,0.126768606602078
753,0.126322339069497
754,0.12481385608888
755,0.116664487070498
756,0.108515118052115
757,0.100365749033732
758,0.0879376981382345
759,0.0766068683263635
760,0.0689801309075621
761,0.0674607982581098
762,0.0700492786967136
763,0.0757029877665687
764,0.0839641939849292
765,0.0915704663403994
766,0.10091661671652
767,0.109776762200378
768,0.114881860314713
769,0.118910382638781
770,0.122013268285537
771,0.122916713765876
772,0.125039366250787
773,0.126395681653708
774,0.125789118733175
775,0.126383285331434
776,0.126543227215404
777,0.125499538413031
778,0.12719222419556
779,0.126005694581427
780,0.127652304170651
