"wavelength","measurement"
380,0.0316946590926696
381,0.030340720602309
382,0.0297504663281856
383,0.0294869704638503
384,0.0297550462979343
385,0.0309451875234742
386,0.0321575581722674
387,0.0335287748516609
388,0.0347794696368326
389,0.0354101849892142
390,0.0349880414539035
391,0.0347302945629756
392,0.0344175114187987
393,0.0343963933360846
394,0.0352421123871255
395,0.0370118150939145
396,0.0405556177399968
397,0.0445450158122843
398,0.0485344138845718
399,0.0525238119568593
400,0.0548033947675204
401,0.0576535988226624
402,0.0593615108452584
403,0.0592464227459231
404,0.0592420080938677
405,0.0586132463051409
406,0.0595309600604446
407,0.0594791076185153
408,0.0596002451876854
409,0.0603459452321266
410,0.0624756269461269
411,0.0621459205904262
412,0.0638838132200448
413,0.0647997074149006
414,0.064439342367407
415,0.0648799390337092
416,0.0641297274700138
417,0.0637898627337289
418,0.0640644183332703
419,0.0629211778680988
420,0.0642648982494776
421,0.0638634502772517
422,0.0643479186896677
423,0.0646324309591291
424,0.0650786050813768
425,0.0634013818711758
426,0.0627876682875089
427,0.0608410349451171
428,0.0592875561018846
429,0.058987449957461
430,0.0590736588077983
431,0.0614637169917871
432,0.0637793249893786
433,0.0656031250903173
434,0.0684577500048578
435,0.0699095776890022
436,0.0706804787087131
437,0.0716983346175
438,0.0727161905262868
439,0.0737340464350736
440,0.074516066858376
441,0.0755692886078573
442,0.0775337079371108
443,0.0782592917148449
444,0.0795227441035842
445,0.0807861964923236
446,0.082049648881063
447,0.0834393814663614
448,0.0837570893896515
449,0.0869728975138393
450,0.0865772548888571
451,0.0858387671124208
452,0.0857758109121881
453,0.0857128547119553
454,0.0856498985117225
455,0.0860082963708092
456,0.0861953114087366
457,0.086861666241987
458,0.0877184195495084
459,0.0890919438639848
460,0.0892871743399979
461,0.0885848088621367
462,0.0909647580645136
463,0.0885569637454948
464,0.0877468734133736
465,0.0870226774276076
466,0.0861288898363824
467,0.0859218175192012
468,0.0854191740754687
469,0.0845834166119799
470,0.0866320894443043
471,0.0867688026790423
472,0.0874472189869149
473,0.0886514286372483
474,0.0888811352903542
475,0.0905391575304106
476,0.0885515619674049
477,0.0886546047677635
478,0.0887576475681222
479,0.0888606903684809
480,0.088673980325546
481,0.0865208271979002
482,0.0847876608472924
483,0.0845389101611694
484,0.0825355717691953
485,0.0807511474790051
486,0.0816544528523816
487,0.0825314327188472
488,0.0834675970381857
489,0.0855740376305788
490,0.0865159689401164
491,0.087218937329616
492,0.0893121132931311
493,0.0883740093834129
494,0.0900098431013776
495,0.0886781708720496
496,0.0892647864123065
497,0.0877134643536858
498,0.0883868292848951
499,0.0864174167189077
500,0.0872718941933758
501,0.0866773505628519
502,0.088545577331927
503,0.0889759170023821
504,0.0883236670797415
505,0.0911906941269505
506,0.0906832041127517
507,0.0912494041172994
508,0.091948544582078
509,0.0920310934115648
510,0.0907874311658568
511,0.0920413712652462
512,0.0915693407972977
513,0.0890366482910568
514,0.0887445725633008
515,0.0873455073561915
516,0.0869273392434075
517,0.0870218912758096
518,0.0869297095835472
519,0.08897328707236
520,0.0907981687122263
521,0.0920773978408418
522,0.0933566269694572
523,0.0946358560980727
524,0.0945169369462861
525,0.0948707592699513
526,0.0955584120048979
527,0.0952248542505675
528,0.0959659167525434
529,0.0972743804754135
530,0.0974971648394427
531,0.0979997550955664
532,0.0977514604745252
533,0.0988224374644786
534,0.0994463179221744
535,0.0982586897106179
536,0.0995646402456239
537,0.0988798278756021
538,0.0982729337767588
539,0.0978166203576273
540,0.0984388774209799
541,0.0979081304761796
542,0.0975141353298791
543,0.0981134501566589
544,0.0988835543786011
545,0.0982362981839276
546,0.0990636174024099
547,0.0991435737658917
548,0.0992235301293734
549,0.0993034864928552
550,0.0987168777075046
551,0.0995896090295879
552,0.100501906164467
553,0.0996166073876982
554,0.0992899363673902
555,0.100526225628654
556,0.0991735487521386
557,0.0991235235439003
558,0.0987293016844829
559,0.0980010752657437
560,0.0994127006926792
561,0.0976224006213668
562,0.0994900932119079
563,0.0981495765804832
564,0.0987408897459203
565,0.0973381354774114
566,0.0965588715593741
567,0.0958147589675852
568,0.0964849622840401
569,0.0954048600001807
570,0.0954870210503734
571,0.0958376753937241
572,0.09589439058341
573,0.0957345985630138
574,0.0964482908366828
575,0.0951839020252425
576,0.0954517337742652
577,0.0957195655232878
578,0.0959873972723105
579,0.0962552290213331
580,0.0965230607703558
581,0.0976938427147507
582,0.0969899047709542
583,0.0976591215453704
584,0.0959159625953993
585,0.0955494967238182
586,0.0928430805259816
587,0.0915935147234751
588,0.0906775889973857
589,0.0897616632712963
590,0.0888457375452068
591,0.0892788346419626
592,0.0901375487264787
593,0.0903092880037551
594,0.0918406037145689
595,0.0914897858584539
596,0.0922732574037387
597,0.0928592213728547
598,0.0930484101887147
599,0.0931214977471356
600,0.0940685460586048
601,0.0944644101625359
602,0.0951561315010924
603,0.0946295805570113
604,0.0957756117842608
605,0.0951971803828447
606,0.0954511213893267
607,0.0949549519922746
608,0.0936925048121025
609,0.0938005379894548
610,0.0930338382183497
611,0.0926205439283419
612,0.0917838214299085
613,0.0913698135245679
614,0.0904181073906786
615,0.0916267332064268
616,0.0904223048889231
617,0.091398361562894
618,0.0914205300332315
619,0.0917381576755775
620,0.0914196225216641
621,0.0921579214609378
622,0.0903657802974713
623,0.0903455909886308
624,0.0898697627980973
625,0.0893939346075638
626,0.0889181064170303
627,0.0889551651906083
628,0.088789170818907
629,0.0884821516649565
630,0.0893276404702345
631,0.0882612293515125
632,0.0886338021793343
633,0.0891940796991375
634,0.0892812405755919
635,0.08998614527549
636,0.0889983018570328
637,0.0899195607460118
638,0.0893087834042507
639,0.0896121132227162
640,0.0891832381173394
641,0.0887463133749086
642,0.0883884185775561
643,0.087772096628773
644,0.08715577467999
645,0.0865394527312069
646,0.0869100064950718
647,0.0868442953721705
648,0.0852644447635152
649,0.0866642107528866
650,0.0857663829102326
651,0.0866636770854527
652,0.0856009409123518
653,0.0843033676372872
654,0.0829016849140567
655,0.0838164277137393
656,0.0830351414085761
657,0.083817234460981
658,0.0846479334249923
659,0.0868262742445654
660,0.0876247576682587
661,0.0880733667232291
662,0.0881929055208439
663,0.0880206490375935
664,0.0873866200244791
665,0.0879768405392564
666,0.0879699878416439
667,0.0883046540537933
668,0.0882531723527198
669,0.0867203666283311
670,0.0872627504206172
671,0.087159582207518
672,0.0869838188910391
673,0.0870728413120485
674,0.0873275601183469
675,0.0873859758707221
676,0.0872858942433567
677,0.0879971418653066
678,0.0870519606535675
679,0.0872265428734262
680,0.0890074847821102
681,0.0878335717890642
682,0.0860772311782331
683,0.0844030338602742
684,0.0820666243394765
685,0.0799865098477908
686,0.0786556618584243
687,0.0771642918002719
688,0.0771188434391119
689,0.0776168321954789
690,0.0786840740713094
691,0.0807584536984525
692,0.0813047994044243
693,0.0825417439994983
694,0.0841095850613676
695,0.0847819688680424
696,0.0867486491238826
697,0.0876741306606674
698,0.0871330454269361
699,0.0882223660484454
700,0.0904226263714425
701,0.090580956234602
702,0.0926174784943092
703,0.0934857363719399
704,0.0961720236179893
705,0.0968105449459307
706,0.0991843809775072
707,0.10102621786703
708,0.102013145122484
709,0.103960820468133
710,0.103887044800421
711,0.104616801830735
712,0.105663414978112
713,0.10213450877242
714,0.100906686389222
715,0.096355413409093
716,0.0927352426468548
717,0.0903858231441893
718,0.0903219138508477
719,0.0916841186429782
720,0.0935835464089818
721,0.0933798803215314
722,0.0968877494541723
723,0.097327435890162
724,0.0977250867845734
725,0.0989610193996398
726,0.0991970814613051
727,0.101913918540424
728,0.103783755615442
729,0.10720552832108
730,0.110473974837226
731,0.114527020342223
732,0.119347432550125
733,0.123533002068631
734,0.126911215898706
735,0.128298242952282
736,0.130844129409461
737,0.132565516952442
738,0.134286904495422
739,0.136008292038402
740,0.139433398680588
741,0.140928284631338
742,0.142459833084394
743,0.14399138153745
744,0.145522929990506
745,0.146368236734896
746,0.146809079811445
747,0.148116365501696
748,0.147093660580539
749,0.148266265928277
750,0.148886597574924
751,0.148072763660627
752,0.150499206511715
753,0.149714155457447
754,0.148290747329299
755,0.139179526439965
756,0.13006830555063
757,0.120957084661296
758,0.105996376184761
759,0.0928905304262542
760,0.0835155657160865
761,0.0817410911718808
762,0.084625263341824
763,0.0912023787473472
764,0.100394536563004
765,0.109497095089646
766,0.120307102452741
767,0.13080277433917
768,0.137169826345019
769,0.141664598403981
770,0.145213948106324
771,0.146754501023129
772,0.148630701611918
773,0.150513045807541
774,0.149956455896115
775,0.15060314571383
776,0.15096165747189
777,0.149342360220302
778,0.151736634533228
779,0.150110210441505
780,0.152310871832156
