"wavelength","measurement"
380,0.0149097639032692
381,0.0142694835451174
382,0.014079741575144
383,0.0142188919853222
384,0.014041171112896
385,0.0153852683059449
386,0.0158327485109706
387,0.0167010009979829
388,0.0182734805278648
389,0.018463219527443
390,0.0185721926313407
391,0.018817716699025
392,0.0188087435030553
393,0.0196452385880628
394,0.0204250138224336
395,0.0221597719660304
396,0.0247490511971756
397,0.0281217785666096
398,0.0314945059360437
399,0.0348672333054777
400,0.0369836253171589
401,0.0396853288223486
402,0.0419042374062577
403,0.0426971786908727
404,0.0438828294377875
405,0.0446180211122487
406,0.0462130223863537
407,0.0479066600647131
408,0.0489631598107715
409,0.0504719396510832
410,0.0537608655824396
411,0.0548938330325974
412,0.0565709568704229
413,0.0587577532578262
414,0.0596780939939165
415,0.0608069212485855
416,0.0606813453003436
417,0.0612613306650703
418,0.0622631759917053
419,0.0621147146683154
420,0.0633436278889542
421,0.0638349157139547
422,0.0645582312742344
423,0.0652773405420136
424,0.0655935425316301
425,0.0643879196865548
426,0.0640043603043121
427,0.0622295531002819
428,0.0605221236852231
429,0.0606626834997189
430,0.0606597979309099
431,0.0631254712368378
432,0.0654608437003491
433,0.0671687509653824
434,0.0699711647812266
435,0.0715221114708852
436,0.0720778861197162
437,0.07306267520569
438,0.0740474642916639
439,0.0750322533776377
440,0.0753668450693962
441,0.076280996722205
442,0.077657257751194
443,0.0783505937270007
444,0.0792210502681173
445,0.0800915068092338
446,0.0809619633503504
447,0.0816911065172327
448,0.081455695173267
449,0.0839995913800191
450,0.0833238016342586
451,0.0822471540103443
452,0.0818158739149279
453,0.0813845938195114
454,0.080953313724095
455,0.0805681657024987
456,0.0803551007364127
457,0.0811802968469015
458,0.0814961687520631
459,0.0823866569242831
460,0.0823731178701549
461,0.0815512081675364
462,0.083749053219048
463,0.081260047021088
464,0.0801681122069345
465,0.0796064558841715
466,0.0787705473103554
467,0.0784841669004784
468,0.0776946379259926
469,0.0772735797701421
470,0.0787215959742647
471,0.0788088806898345
472,0.0795005525504234
473,0.0805050333134668
474,0.0805751888917614
475,0.0821596564119992
476,0.0803500790360306
477,0.0802904754642084
478,0.0802308718923861
479,0.0801712683205639
480,0.0801416303728126
481,0.0777478176508525
482,0.0761131744924171
483,0.0760851630243903
484,0.074079293135816
485,0.0724437950181666
486,0.072999502548532
487,0.0735506044719268
488,0.0742674642201903
489,0.0758424363913082
490,0.0763739815525424
491,0.0768648826613626
492,0.0783199122508605
493,0.0773794988546322
494,0.0785841449186821
495,0.076976477820278
496,0.0775752072753622
497,0.0759263183391314
498,0.0759849753755685
499,0.0742290005177548
500,0.0745054478022763
501,0.0737250585780874
502,0.0747638546311022
503,0.0750394303322946
504,0.0741886391761281
505,0.0762758809155912
506,0.0758349616207098
507,0.0759094024898135
508,0.07623430097089
509,0.0760412468529685
510,0.0746604626988876
511,0.0752212298664839
512,0.0746918142946437
513,0.0722337485688008
514,0.0716189601296131
515,0.0703093959197818
516,0.0695854828592003
517,0.0692159922455945
518,0.0688278601794197
519,0.0699535820563574
520,0.0713094580744072
521,0.0718668481130351
522,0.0724242381516631
523,0.0729816281902911
524,0.072531061149779
525,0.0724448094789775
526,0.0725578219764373
527,0.0720300824663278
528,0.0721438657733459
529,0.0730643229697584
530,0.0729381830342464
531,0.0728534430194384
532,0.0725584253222897
533,0.0729749363210015
534,0.0729517332641992
535,0.0719992328436204
536,0.0726533306526633
537,0.0719550538655362
538,0.0712463526833657
539,0.0706942042235394
540,0.0710131933228658
541,0.0705346310500129
542,0.070053915557243
543,0.0705527264662426
544,0.0706896052984127
545,0.0700824653861166
546,0.0702380410121644
547,0.070205475630699
548,0.0701729102492335
549,0.070140344867768
550,0.0694929981897533
551,0.070064967410812
552,0.0704319226097498
553,0.069740794843133
554,0.0691038235244124
555,0.0696695763154442
556,0.0686244726501066
557,0.0683161396302833
558,0.0677867870040573
559,0.0670277042058968
560,0.0678914636472553
561,0.0664717417829227
562,0.0676661317444492
563,0.0663875345684163
564,0.0665060169763362
565,0.0655439774861729
566,0.0650028881172845
567,0.0642383802955455
568,0.0645538064631461
569,0.0637642661066845
570,0.0635766052368835
571,0.0637804356975481
572,0.063852529090623
573,0.0635432848592871
574,0.0639973092778578
575,0.0633122521806816
576,0.0635408671741579
577,0.0637694821676342
578,0.0639980971611104
579,0.0642267121545867
580,0.064455327148063
581,0.0650736550080262
582,0.0647559808220865
583,0.0652840822920836
584,0.0642853272832538
585,0.0636554161537971
586,0.0618766222809071
587,0.0608727389277687
588,0.0602028926814185
589,0.0595330464350683
590,0.0588632001887181
591,0.0592202054767365
592,0.0598132205069459
593,0.0601003180040005
594,0.0607962147618528
595,0.0608935864415106
596,0.061557236057882
597,0.0618964203053139
598,0.0621044635433334
599,0.0621435699973633
600,0.0630130871544904
601,0.0635560928689086
602,0.0638873945964785
603,0.0637086477805426
604,0.0642669620731756
605,0.0638235713234383
606,0.0639898308301751
607,0.0637867238548624
608,0.0629365093234638
609,0.0628863693984153
610,0.0621579754471936
611,0.0620409443601684
612,0.0613942953989082
613,0.0611608323299669
614,0.0604435851536066
615,0.0614417358248544
616,0.0605419862499223
617,0.0612217879557535
618,0.061214772512341
619,0.0614803964043073
620,0.0611590213447189
621,0.061566227638521
622,0.0604896189943471
623,0.0604084086458732
624,0.0600030648261706
625,0.059597721006468
626,0.0591923771867655
627,0.0592086086127118
628,0.0589903338405347
629,0.0588929918473715
630,0.0593887955685492
631,0.058711314430284
632,0.0592757650059129
633,0.0595780335673623
634,0.0595709438538542
635,0.0602083479885483
636,0.0595606361556654
637,0.0602043768678798
638,0.0598994488380154
639,0.060216843615518
640,0.0597576032474341
641,0.0596620785864797
642,0.0593437349960008
643,0.0589024950588862
644,0.0584612551217716
645,0.058020015184657
646,0.0580431614193701
647,0.05802404943947
648,0.057244389608624
649,0.0581922312428437
650,0.0576020206766731
651,0.0582004635193254
652,0.057853220559672
653,0.0568163968278429
654,0.0559341675401829
655,0.056630453730405
656,0.0564506784008882
657,0.0570353214375913
658,0.0579363664297653
659,0.0592959251931329
660,0.0600455651098796
661,0.0604117613687505
662,0.0605971089629804
663,0.0605549286578954
664,0.0602573218315374
665,0.0605437846864922
666,0.0608522257709117
667,0.0608516812213349
668,0.0609744422869903
669,0.0600622154317994
670,0.0606035261617814
671,0.0604273099117961
672,0.0603687134204747
673,0.0606071102263126
674,0.0608300417592521
675,0.0609098141966485
676,0.0610221144067808
677,0.061603788695815
678,0.0608417043942756
679,0.0612748710832561
680,0.0624591894755795
681,0.0614254626118971
682,0.0600262243372958
683,0.059238499648465
684,0.0571697285456339
685,0.0554231946981355
686,0.0543431851481042
687,0.0534642251220317
688,0.0532671085395772
689,0.053439802985455
690,0.0544780670164262
691,0.0557064524024166
692,0.05565935423483
693,0.0564877159621437
694,0.0576086466211223
695,0.0580603969306244
696,0.0590262090540886
697,0.0599200037166941
698,0.0593958547929806
699,0.0597211247203739
700,0.0614139364935346
701,0.0612943831183192
702,0.0627865032631948
703,0.0634491131934405
704,0.0650332685433611
705,0.065568030472837
706,0.0670898337969263
707,0.0683477543402418
708,0.0690710432215617
709,0.0704254096200996
710,0.0705462157138014
711,0.0708419069205212
712,0.0714098870093894
713,0.0687338583091742
714,0.0675256946321715
715,0.0640076718713734
716,0.0611671150283395
717,0.0594079173956945
718,0.059165480932879
719,0.0603595710507058
720,0.0617457015368877
721,0.0620214784691936
722,0.0642784908088489
723,0.0640155974470148
724,0.0646209558877678
725,0.0650860971154055
726,0.0653715084445393
727,0.0674372329957142
728,0.068886202441804
729,0.0716185159496233
730,0.0740244783793479
731,0.0772637834236253
732,0.080792635219432
733,0.0839837074159342
734,0.0864024345485487
735,0.0878398395084481
736,0.090063527825786
737,0.0914462962557244
738,0.0928290646856627
739,0.0942118331156011
740,0.0969483659609056
741,0.0982875285939953
742,0.0996309920603087
743,0.100974455526622
744,0.102317918992936
745,0.103101947358469
746,0.10373533662292
747,0.104530271286977
748,0.103741033837433
749,0.104884482485782
750,0.105566227440101
751,0.105191768407726
752,0.107155680280477
753,0.106799282423717
754,0.105308832581535
755,0.0985127013254104
756,0.0917165700692852
757,0.0849204388131601
758,0.0738608934596695
759,0.0638810875794295
760,0.0574175822335159
761,0.0565152657324444
762,0.0588323010644739
763,0.063827171002093
764,0.0709339526926112
765,0.0777759263895113
766,0.0859189647475519
767,0.0940082008195825
768,0.0984371353633497
769,0.101820431698608
770,0.104435574310052
771,0.105843851780764
772,0.106974705170123
773,0.108612704541912
774,0.108164181293951
775,0.10823468111715
776,0.108793197765886
777,0.107614311419933
778,0.109342519433388
779,0.10806926179685
780,0.109537496012513
