"wavelength","measurement"
380,0.130328734161113
381,0.125931798318618
382,0.123200139498471
383,0.121892482876377
384,0.122958558418588
385,0.130260169754674
386,0.136340958299393
387,0.140920992617943
388,0.146867023337882
389,0.148122772383544
390,0.147176674038743
391,0.145796843331418
392,0.14461249816498
393,0.146249318824011
394,0.149464520872791
395,0.157555812038281
396,0.175295055369531
397,0.19287436666568
398,0.210453677961829
399,0.228032989257978
400,0.237510390532576
401,0.246468651748089
402,0.253533007332137
403,0.253864090738462
404,0.252268696219264
405,0.251135870559436
406,0.255452113056054
407,0.255529934748725
408,0.255768378349692
409,0.259293136735642
410,0.270296724399764
411,0.270025745210554
412,0.275839601676555
413,0.279549990440891
414,0.278027835399886
415,0.278806450994668
416,0.276437628815625
417,0.274880853248483
418,0.277762148214974
419,0.273235323097067
420,0.278500559837898
421,0.278623445925298
422,0.28151479419527
423,0.282388523168502
424,0.283144885944389
425,0.275661918477038
426,0.272454974892313
427,0.26537683481279
428,0.258020275975342
429,0.257808284657212
430,0.257741269035735
431,0.270055364902406
432,0.280830985788326
433,0.290532779349989
434,0.302252462884796
435,0.307615774498239
436,0.310213978237607
437,0.315070225357126
438,0.319926472476644
439,0.324782719596163
440,0.327035784100232
441,0.333035278440912
442,0.339953364351844
443,0.342701534479641
444,0.348273238925876
445,0.353844943372112
446,0.359416647818347
447,0.36633613176208
448,0.366509354344801
449,0.380495248067103
450,0.376766262658017
451,0.376416053084299
452,0.375439124326295
453,0.374462195568291
454,0.373485266810288
455,0.37437290224108
456,0.375359457432945
457,0.37994095716451
458,0.383343885761948
459,0.388707574715271
460,0.389990587126517
461,0.386121408255674
462,0.396213513621639
463,0.385168114384031
464,0.381197517140598
465,0.378136176372732
466,0.374400845601495
467,0.374120902358087
468,0.370978100673145
469,0.369926655274397
470,0.377733531519491
471,0.37817242302795
472,0.38151137405416
473,0.386386440674408
474,0.38769020911725
475,0.393247567052406
476,0.385398788419
477,0.385757182740624
478,0.386115577062248
479,0.386473971383871
480,0.384516519873893
481,0.375328159827481
482,0.36767766427683
483,0.365484254236068
484,0.357140816417458
485,0.350889713505315
486,0.355334842210289
487,0.359496786103139
488,0.364344427820349
489,0.374203554789845
490,0.375858981925685
491,0.37919475629219
492,0.387836588193514
493,0.383929402657505
494,0.389796969941757
495,0.383977587196665
496,0.385908296978537
497,0.379142165760251
498,0.380138538102013
499,0.372749320961031
500,0.375984838826366
501,0.373523162146113
502,0.382039110605005
503,0.383350168371123
504,0.379368695949326
505,0.391806821007844
506,0.390157146539957
507,0.391536056751681
508,0.393784012540624
509,0.393154710906543
510,0.387118520521593
511,0.391455044015366
512,0.387556574978367
513,0.376093571495334
514,0.373974604090253
515,0.367478858397473
516,0.36572867824416
517,0.365261251220545
518,0.365173969738128
519,0.372939477743206
520,0.380061502119941
521,0.383883497909798
522,0.387705493699656
523,0.391527489489513
524,0.389612315405864
525,0.390991579695443
526,0.392726882201194
527,0.390001555001324
528,0.393332166750397
529,0.398478320678962
530,0.398210248295575
531,0.398353912678022
532,0.398046971525421
533,0.40085652129918
534,0.402924869549678
535,0.398016935956182
536,0.402468068791476
537,0.399203995693849
538,0.396447292860845
539,0.394644282199147
540,0.397022151180166
541,0.394817447932493
542,0.392939759984462
543,0.395821412624609
544,0.397390687993831
545,0.395119502019542
546,0.39864068528743
547,0.398418311809147
548,0.398195938330864
549,0.39797356485258
550,0.39675198806561
551,0.398547420215229
552,0.403218439344083
553,0.399254936185078
554,0.398203888104124
555,0.402724596643066
556,0.3965239623522
557,0.397052012831791
558,0.395537447975509
559,0.392674131450267
560,0.398470679181129
561,0.392432274898324
562,0.399873466173952
563,0.393926191554696
564,0.396999270794922
565,0.391254836377343
566,0.3902649752333
567,0.386398218719127
568,0.390153349238034
569,0.386722630125361
570,0.387271956910032
571,0.389088560401489
572,0.390067200109691
573,0.389931268601953
574,0.392495154405938
575,0.388415473086929
576,0.389965233670364
577,0.391514994253799
578,0.393064754837235
579,0.39461451542067
580,0.396164276004105
581,0.400619523405195
582,0.397291254338036
583,0.399929175889103
584,0.392910546789309
585,0.391724807603512
586,0.380043721182028
587,0.375638843822514
588,0.372389562191691
589,0.369140280560869
590,0.365890998930046
591,0.368024805618137
592,0.371114058440115
593,0.372249301095013
594,0.378096293781437
595,0.377761227019026
596,0.380959778220042
597,0.382954420908961
598,0.382729853072907
599,0.384068410164159
600,0.387384083225501
601,0.390387822608098
602,0.391141020476275
603,0.390666753565722
604,0.394499343543613
605,0.392234173830036
606,0.392989620386068
607,0.39114404241723
608,0.3858509795828
609,0.386192948450595
610,0.383442728690546
611,0.38191484987425
612,0.378258353856505
613,0.377177164659219
614,0.374055771388751
615,0.379575141919398
616,0.375259925722919
617,0.37842269740172
618,0.37842740254744
619,0.37977913545546
620,0.379005972238995
621,0.381425809126711
622,0.374567290361847
623,0.37442233405844
624,0.372186968253973
625,0.369951602449506
626,0.367716236645039
627,0.367985647487898
628,0.367084150566246
629,0.366036014717766
630,0.36900013177323
631,0.365105921032482
632,0.367314491782576
633,0.369471794264602
634,0.370054229061812
635,0.372327743147388
636,0.368240565253189
637,0.372234022164412
638,0.370296395497628
639,0.372151902377604
640,0.370114398437646
641,0.369406821726585
642,0.367817121750858
643,0.365231699453653
644,0.362646277156449
645,0.360060854859244
646,0.362445738163903
647,0.362497588200661
648,0.356463722930488
649,0.362397869990363
650,0.35899216680903
651,0.361843000392335
652,0.357054655299983
653,0.352079628337955
654,0.345921928625381
655,0.35096974401755
656,0.347070003344641
657,0.352502063531309
658,0.356665797006941
659,0.365170357956319
660,0.368201501317268
661,0.369692314389812
662,0.37080542136875
663,0.369823061238278
664,0.367676741763497
665,0.368448875246192
666,0.369167598737468
667,0.370364257800717
668,0.370873583082026
669,0.364340291055021
670,0.367361943939728
671,0.366535663404454
672,0.365246848996132
673,0.366668361136016
674,0.36738891267589
675,0.367143830296487
676,0.366811656335634
677,0.37009513554257
678,0.366012901861802
679,0.364886811632277
680,0.373559175097188
681,0.366396710278535
682,0.358818633922114
683,0.350948705769925
684,0.338407233310569
685,0.329174978685367
686,0.322081116060197
687,0.317135485390426
688,0.315920303596351
689,0.316996134509576
690,0.320608142979812
691,0.328319659106781
692,0.328002353221739
693,0.331788925698238
694,0.335109360834019
695,0.334513735106634
696,0.339900999022005
697,0.340798778545738
698,0.336710034720348
699,0.336865675780826
700,0.342552480893951
701,0.340347151527044
702,0.345928507508995
703,0.347268282264839
704,0.353270577470543
705,0.35230558786387
706,0.358432254840805
707,0.361646986211135
708,0.361043334862797
709,0.365137788064336
710,0.361761611445925
711,0.360921853202416
712,0.361161043315471
713,0.345370602358204
714,0.336709846342085
715,0.318073180166214
716,0.303060827019005
717,0.294512090779258
718,0.291548943474228
719,0.296739354316446
720,0.300329654752957
721,0.298627864741282
722,0.305794834480417
723,0.30404032256451
724,0.302090726428334
725,0.304225195385606
726,0.304139257612928
727,0.30807839034639
728,0.313244114467229
729,0.321333967625774
730,0.328851099641709
731,0.339611377121431
732,0.349928951583519
733,0.361222458583578
734,0.367611798045703
735,0.36826272404443
736,0.374668787314618
737,0.377343720584319
738,0.380018653854019
739,0.38269358712372
740,0.390444490016255
741,0.392681289757157
742,0.395328055644883
743,0.397974821532609
744,0.400621587420335
745,0.401129476366318
746,0.40074776637841
747,0.403545583745814
748,0.398409199126209
749,0.401288478874581
750,0.402293225192892
751,0.399230397729269
752,0.405706756126722
753,0.403063033077834
754,0.396379108361362
755,0.369137662876714
756,0.341896217392065
757,0.314654771907417
758,0.274485301754255
759,0.237427451260722
760,0.216893289283895
761,0.216550089506754
762,0.228344410310671
763,0.248403919888657
764,0.275033458482801
765,0.299138990784828
766,0.326821484565322
767,0.351730338666162
768,0.366988518154336
769,0.377556263291125
770,0.385573583065643
771,0.388673384973849
772,0.392304633023109
773,0.397858970879858
774,0.394638994040648
775,0.396261961434294
776,0.396986218068837
777,0.392373994407003
778,0.398574370458201
779,0.394748497729107
780,0.399789431794805
