"wavelength","measurement"
380,0.0188947307210973
381,0.0181377050350768
382,0.0175534280431622
383,0.0177091511339527
384,0.0180098348849947
385,0.0187916118178243
386,0.0194658746888157
387,0.0202217486177715
388,0.0217979372714095
389,0.021647068225642
390,0.0217337865870031
391,0.0219748123556641
392,0.0218225380840827
393,0.0225955177129976
394,0.0235396255438523
395,0.024855910349068
396,0.027946000204811
397,0.0312439312961377
398,0.0345418623874644
399,0.0378397934787912
400,0.0400771923647843
401,0.0427485126221848
402,0.0444873658910249
403,0.0452390596150049
404,0.0458480073824546
405,0.0465073067020485
406,0.0476907530742819
407,0.0490129851424912
408,0.0493627981661076
409,0.050622540597917
410,0.0534724746339437
411,0.0543540371497975
412,0.0556336797113507
413,0.0571350116145406
414,0.0576025367352032
415,0.0585221010148393
416,0.0583437555470605
417,0.0582240581198422
418,0.0589827059349525
419,0.0583858615305526
420,0.0596842221747096
421,0.0597116327776197
422,0.0604377170277954
423,0.0608411233063713
424,0.0611483813096255
425,0.0597957614181035
426,0.0586689567691635
427,0.0572274182804935
428,0.0556103297041534
429,0.055334645600398
430,0.055438745891986
431,0.0576052428540989
432,0.0598366809349132
433,0.0614215163170187
434,0.0637584811366986
435,0.0648001532970182
436,0.0656453185163502
437,0.0664907743245838
438,0.0673362301328174
439,0.0681816859410509
440,0.068666747050432
441,0.0695934202841478
442,0.0707134361038604
443,0.071090181268288
444,0.0719669687487707
445,0.0728437562292535
446,0.0737205437097362
447,0.0746099354910945
448,0.0746791786825906
449,0.0774841603735917
450,0.0764571876339044
451,0.0755646809056821
452,0.0752605807888902
453,0.0749564806720984
454,0.0746523805553066
455,0.0745862171767333
456,0.0738746565001669
457,0.0750712384914241
458,0.0749654277454511
459,0.0760414773288441
460,0.0759941155380536
461,0.0752283359263184
462,0.0770463246158596
463,0.0750245101761124
464,0.0740103748903888
465,0.0732967365640743
466,0.0722639550669213
467,0.072175993048613
468,0.0715717426974961
469,0.0711048597644605
470,0.0725532442503745
471,0.0723894133959049
472,0.0728692443089213
473,0.0737353300359311
474,0.0739325954439376
475,0.0750412955013917
476,0.073425197595111
477,0.0734128787747182
478,0.0734005599543255
479,0.0733882411339327
480,0.0734239074395464
481,0.0712343858884355
482,0.06975557853944
483,0.0696475973109984
484,0.0678116368574634
485,0.0664042366978918
486,0.0668474867526739
487,0.0673905917000272
488,0.067799594176536
489,0.0693936906949636
490,0.0699461490007799
491,0.0703008121526304
492,0.0720260816594774
493,0.0708682110183579
494,0.0720149447707127
495,0.0706590771942462
496,0.0709461350304506
497,0.0698591388845028
498,0.0701341351675358
499,0.0683862427797508
500,0.0687815069772176
501,0.0679875702442742
502,0.0690226045618484
503,0.0694875823271812
504,0.068259828451691
505,0.0705200574097356
506,0.0699504104758443
507,0.0704003540900273
508,0.0704891050253
509,0.0705653964260914
510,0.0692861791289058
511,0.0702867799787835
512,0.0694536634582627
513,0.0676293843895493
514,0.0670550543357294
515,0.0658185151439611
516,0.0652989984775977
517,0.0650738085616088
518,0.0649627953905293
519,0.066076100909929
520,0.0673862310683204
521,0.0680859050233267
522,0.0687855789783331
523,0.0694852529333394
524,0.0691104598714046
525,0.0692969471729652
526,0.0692622260603956
527,0.0690042529624748
528,0.069463037390493
529,0.070372446133164
530,0.070301706301413
531,0.0702794689677713
532,0.0701890054998942
533,0.0705430138174397
534,0.0706789084945152
535,0.070038921479768
536,0.0706382768311059
537,0.0700142088249427
538,0.0695623841922624
539,0.0690045273646697
540,0.0692174776139197
541,0.0687881335719012
542,0.0684270307438043
543,0.0685455907031999
544,0.0690265499518917
545,0.0683649569461552
546,0.0689699152752182
547,0.0688895258725573
548,0.0688091364698964
549,0.0687287470672355
550,0.0682721440513154
551,0.0683499580258636
552,0.0690353980568218
553,0.0684109358709061
554,0.0679701732530058
555,0.0685403322726131
556,0.0676406341502665
557,0.067301260236598
558,0.0667978977825069
559,0.0660858235244323
560,0.0666816579625589
561,0.0655853401227459
562,0.0665994824532322
563,0.0654102199174523
564,0.0657662440808148
565,0.0646973502594656
566,0.0639018307844154
567,0.0633292503876719
568,0.0637222787898856
569,0.0627606982251631
570,0.0626845215147826
571,0.0626831664059617
572,0.0625503898996582
573,0.0624176052580798
574,0.0627858594780214
575,0.0619826496904165
576,0.0621649611403789
577,0.0623472725903413
578,0.0625295840403037
579,0.0627118954902662
580,0.0628942069402286
581,0.0635679085981106
582,0.0632384493948466
583,0.0634303095893102
584,0.0622551476024074
585,0.0620928491246394
586,0.0602288243228862
587,0.0591545202300668
588,0.0584635591610106
589,0.0577725980919543
590,0.0570816370228981
591,0.0573011679793614
592,0.0578744799337317
593,0.0580847643714405
594,0.0590230694655502
595,0.058995619923771
596,0.0595775109824552
597,0.0599140120339785
598,0.0600371400132417
599,0.0602397635826461
600,0.0607864817496252
601,0.0613236738729079
602,0.061643348418207
603,0.0613803176837287
604,0.0621353996763296
605,0.0618269578972923
606,0.0616691294276112
607,0.0614211709912764
608,0.0605289986415022
609,0.0605614590610928
610,0.0599700922421081
611,0.0597082409170818
612,0.059163454753442
613,0.0590000704482326
614,0.0580091109833473
615,0.0588624742988968
616,0.0580935436774327
617,0.0586281634399319
618,0.0585926061576871
619,0.0588048291899028
620,0.0586672004383726
621,0.0589430090501775
622,0.0577786441162851
623,0.0578406953846596
624,0.0573828451038426
625,0.0569249948230256
626,0.0564671445422086
627,0.0565026252682153
628,0.0562112794427512
629,0.0562344576658184
630,0.056519117544243
631,0.0559765853766778
632,0.05637749253109
633,0.0565120876540907
634,0.0564978953631773
635,0.0569885128981627
636,0.056634347958855
637,0.0571844135668467
638,0.0567692903638318
639,0.0569245622355987
640,0.0568732728689992
641,0.0564813339776653
642,0.0563979410171683
643,0.0559015245759517
644,0.0554051081347351
645,0.0549086916935185
646,0.0546623345744652
647,0.0547885097612661
648,0.0537562875390574
649,0.0547110739156289
650,0.054164688882633
651,0.054795961416403
652,0.0542174901034449
653,0.0533852600596508
654,0.0525265087361915
655,0.0528918411251706
656,0.0526500103138055
657,0.0533561863416654
658,0.0539512943885683
659,0.055354941743533
660,0.0559309631014844
661,0.0561707597883838
662,0.0564129016960136
663,0.0561283130546712
664,0.0557783839080945
665,0.0560621898729829
666,0.0561394289099399
667,0.0562891959429322
668,0.0564308972150017
669,0.0555378736246473
670,0.0558284370663813
671,0.0557216156282296
672,0.0555551651837171
673,0.0555430777597295
674,0.0558116762348006
675,0.0559304339303992
676,0.0559214905136395
677,0.0563776333234962
678,0.0558269690760535
679,0.0558031243677687
680,0.0570988480019857
681,0.0562705697662111
682,0.0550146457201427
683,0.0537839832596459
684,0.0520818366801376
685,0.0505752910314103
686,0.0495010030020666
687,0.0487053930371369
688,0.0483734327073513
689,0.048672132137567
690,0.0493151771946988
691,0.0505832844024741
692,0.0510263692992196
693,0.0518234270742657
694,0.0527832870611983
695,0.0532354056524918
696,0.0543360352174447
697,0.055124238229292
698,0.0549108402199799
699,0.0554074269449723
700,0.0567588809562834
701,0.0572057449762165
702,0.0584942447492202
703,0.0592515425586149
704,0.0611162760218856
705,0.0616981780206587
706,0.0630837170819359
707,0.0646252146046171
708,0.0655288037286616
709,0.0666995553483524
710,0.0668962801027638
711,0.0674226209342589
712,0.0679454601978404
713,0.065754800592827
714,0.0646302368824684
715,0.0617727275145174
716,0.0588127947593907
717,0.0574023336773441
718,0.0573443800861697
719,0.0585089550490014
720,0.0605082747178376
721,0.0603081789639908
722,0.0626669949131216
723,0.062804108188415
724,0.0636709532775111
725,0.0643158620545682
726,0.0648648053112794
727,0.0666350363365532
728,0.0684358727284681
729,0.0709610803403185
730,0.0737374027229641
731,0.077179841481032
732,0.0803124220693095
733,0.0836429941472196
734,0.0864976616974637
735,0.087935592774208
736,0.0900153881344837
737,0.0917274881720601
738,0.0934395882096365
739,0.095151688247213
740,0.0975492440093907
741,0.0988605750613888
742,0.100236561317327
743,0.101612547573265
744,0.102988533829204
745,0.103635087863182
746,0.104217128123577
747,0.105254444818049
748,0.104693831443427
749,0.105896889130297
750,0.105929905709093
751,0.106081695050763
752,0.107892243863245
753,0.107330660437
754,0.105596671107344
755,0.0989052809464116
756,0.0922138907854789
757,0.0855225006245462
758,0.0743647029502828
759,0.0643511072156832
760,0.057740065553557
761,0.0569409994832842
762,0.0590692903972294
763,0.0639547214546625
764,0.0709106983280696
765,0.0776720183126566
766,0.0863502227252625
767,0.0938302417968173
768,0.0983779472183058
769,0.101403352569865
770,0.104374702591105
771,0.105661236623922
772,0.106731113070965
773,0.109009186196179
774,0.108423267534189
775,0.108484534006762
776,0.10889463309357
777,0.10782844097578
778,0.109457344434773
779,0.108337502470188
780,0.109407702986892
