"wavelength","measurement"
380,0.00156935371952575
381,0.00162124113298683
382,0.00158871129396287
383,0.00163921425438179
384,0.00168752136319051
385,0.0018272310229657
386,0.00193311884403297
387,0.0021392276853874
388,0.00228781205031758
389,0.00243260443363067
390,0.0024775083573696
391,0.00254756016330864
392,0.00262032472849053
393,0.00279193342747906
394,0.0029393404328792
395,0.00322960918691203
396,0.0037232982649708
397,0.00431165462493695
398,0.0049000109849031
399,0.00548836734486926
400,0.00589675101140087
401,0.00649092586140923
402,0.00698724095278328
403,0.00731312586929387
404,0.0076417151942871
405,0.00792450861026411
406,0.00839442378312393
407,0.00877259491255873
408,0.00915892954037512
409,0.00968374115327457
410,0.0104449141481324
411,0.0108527632746527
412,0.0113990252004035
413,0.0119397714915339
414,0.0122384947196026
415,0.0126350912841623
416,0.0127386159593286
417,0.0128917024242185
418,0.0132928483747153
419,0.0131907041531845
420,0.0137282576368319
421,0.0138761289998885
422,0.0141345479480095
423,0.0143577462794651
424,0.0145316726473302
425,0.01440487660388
426,0.0143876805179975
427,0.0140818872049286
428,0.0137177700085014
429,0.013803044052023
430,0.0139577507911673
431,0.0145487319556953
432,0.0151197128374134
433,0.0157796191583055
434,0.0165122739233612
435,0.0169130136600649
436,0.0171681047019267
437,0.0175198597229266
438,0.0178716147439265
439,0.0182233697649264
440,0.0183981294992976
441,0.0188632829140801
442,0.0194373293088448
443,0.0196193296617725
444,0.020045588086072
445,0.0204718465103714
446,0.0208981049346709
447,0.0213118116946638
448,0.0214893160128809
449,0.0224390183943022
450,0.0224143945999509
451,0.0223482734138579
452,0.0224246400799775
453,0.0225010067460971
454,0.0225773734122167
455,0.0226747903182488
456,0.0227740898858235
457,0.0232165663147124
458,0.023418164991686
459,0.0238912771035627
460,0.0239970895299575
461,0.0238777462999088
462,0.0246464024899958
463,0.0240560368809225
464,0.0239294203797068
465,0.0238491092609595
466,0.0236247190925579
467,0.0237059139877695
468,0.0236215619920126
469,0.0235053587157963
470,0.0240912752117875
471,0.0241619107169334
472,0.0244149780442226
473,0.024822059520166
474,0.0249508466151836
475,0.0254435348267335
476,0.0249437878382855
477,0.0250472189560327
478,0.02515065007378
479,0.0252540811915272
480,0.0252667436005918
481,0.0247203221914472
482,0.024377894649614
483,0.0243169638233215
484,0.0237784299904503
485,0.0233561451909604
486,0.0236301364553848
487,0.0238604675928135
488,0.024123409410402
489,0.0248224570796481
490,0.0250142947104881
491,0.0252919626127375
492,0.0258998791141502
493,0.0256874917292895
494,0.0261371460043659
495,0.0258369554647124
496,0.0259766312527847
497,0.0255885820538786
498,0.0257799458799575
499,0.0252670945334369
500,0.0254650180489161
501,0.0253320034471589
502,0.0258022622598658
503,0.025976064859965
504,0.0257182433823964
505,0.0265597665270049
506,0.0265113028405259
507,0.0266270445770513
508,0.0267916513480175
509,0.0268290273949069
510,0.0264012544473593
511,0.0267777465187477
512,0.0266435166997563
513,0.0259087435867598
514,0.025797561805013
515,0.0253417541865064
516,0.0252397339289187
517,0.0252185986591541
518,0.0251205705145805
519,0.0256443393118661
520,0.0260949401594766
521,0.0263928377690905
522,0.0266907353787043
523,0.0269886329883181
524,0.0268807137694554
525,0.0269107023870934
526,0.0270243973764053
527,0.0269151881158679
528,0.0270755194710319
529,0.0274439406177635
530,0.0274386417337238
531,0.0275160109433929
532,0.0274532768898616
533,0.0277070018646558
534,0.0277565792522761
535,0.0275010853935897
536,0.0277949093575099
537,0.027665071052838
538,0.0275336268108364
539,0.0273940407111631
540,0.0276145611496436
541,0.0274782724721858
542,0.0273859571789679
543,0.0275447395807445
544,0.0277350290894204
545,0.0275546969949187
546,0.0277438507389395
547,0.027693875687941
548,0.0276439006369425
549,0.027593925585944
550,0.0273950504182729
551,0.0275840559857724
552,0.0278144070383796
553,0.0275467043098075
554,0.0274477044974922
555,0.0277563056852026
556,0.0273559788222434
557,0.0273360616060209
558,0.0272060208858604
559,0.0269762682319216
560,0.0272888829467349
561,0.0269179546439791
562,0.0273740551938506
563,0.0269860993858566
564,0.0271788250206381
565,0.026827957823634
566,0.0267335881022114
567,0.0264486539473108
568,0.0266716331859349
569,0.0264379828207697
570,0.026429342356924
571,0.0265383609341552
572,0.0265359266200711
573,0.0265180581192071
574,0.0267195000266581
575,0.0263599937501248
576,0.0264305502357366
577,0.0265011067213483
578,0.0265716632069601
579,0.0266422196925718
580,0.0267127761781836
581,0.0270338990858522
582,0.0268534110642167
583,0.0269725302244046
584,0.0265717850210825
585,0.0264751220945126
586,0.0257600739621667
587,0.0254286634252984
588,0.0251979466823037
589,0.024967229939309
590,0.0247365131963143
591,0.0248202225666505
592,0.0250471595864735
593,0.0250762604081112
594,0.0254325615252083
595,0.0253314463046216
596,0.0254617486000368
597,0.025569297465278
598,0.0255768970908414
599,0.0255572533299872
600,0.0257171386549642
601,0.0258128296441786
602,0.0259324996682316
603,0.0258128008697948
604,0.026025790220549
605,0.0258934689798744
606,0.0259069146173299
607,0.0257963703496664
608,0.0255079417812518
609,0.0255286267965948
610,0.0253732648794763
611,0.0252541854623714
612,0.0249713998063671
613,0.0248634219795534
614,0.0245413731577295
615,0.0247882503005287
616,0.0244590468742111
617,0.024639729135172
618,0.0245883000521432
619,0.0246384351177733
620,0.024525744087086
621,0.0246288971509582
622,0.0242087634527575
623,0.0241445620293341
624,0.0239625306129942
625,0.0237804991966543
626,0.0235984677803144
627,0.0235711588087701
628,0.0234844909805158
629,0.0233381794629694
630,0.023529103941544
631,0.023160007390796
632,0.0232466910325568
633,0.0233597260210328
634,0.0233163448976631
635,0.0234144244012646
636,0.0231552614431972
637,0.0233456974408819
638,0.0231521604504905
639,0.0231947605222408
640,0.0230355532214908
641,0.0229380899894655
642,0.0228062993025042
643,0.0226240980611492
644,0.0224418968197943
645,0.0222596955784393
646,0.022322244857958
647,0.0222263841141583
648,0.0217418635202459
649,0.0220880294069898
650,0.0218446250872152
651,0.0219511581645034
652,0.021668583230392
653,0.0212442827271545
654,0.0208373544026701
655,0.0209939777632477
656,0.0206863239641125
657,0.0209043142146257
658,0.0210758175972553
659,0.0215787612959945
660,0.021674808220413
661,0.021749242086236
662,0.0217952049211748
663,0.0216626560491799
664,0.0214783739514736
665,0.0215554579574948
666,0.0215063277967821
667,0.0215053842243937
668,0.0214562992102196
669,0.0210432497347481
670,0.0210747921763442
671,0.0209891516208344
672,0.0208603440976906
673,0.0208990277708152
674,0.0208738345259029
675,0.0208281481087538
676,0.0207370621139626
677,0.0208122534076102
678,0.0205047078845538
679,0.0204071743221494
680,0.0208028215991248
681,0.0204175112018164
682,0.0198959501241777
683,0.0195174754683188
684,0.0188375300538616
685,0.0182534798806254
686,0.0178254750110618
687,0.0174174738086739
688,0.0171975623954894
689,0.0172417993332007
690,0.0174736037474281
691,0.0177629081587839
692,0.0177450755994513
693,0.0178208978692075
694,0.0180452422665225
695,0.0179920708214372
696,0.0182185125139227
697,0.0182393179800495
698,0.0179427431737983
699,0.0179430960733385
700,0.0181565318420344
701,0.0179623563417244
702,0.018164654255683
703,0.0181489000033824
704,0.0184233304373729
705,0.0183298370894683
706,0.0185516834636114
707,0.0186764179910284
708,0.0185893443921031
709,0.0187556113437187
710,0.0184575645806638
711,0.0183901496971665
712,0.0183878876281942
713,0.0176151421700719
714,0.0171821205791068
715,0.0162376088815655
716,0.0154504602660836
717,0.0148547378705826
718,0.0146396001781972
719,0.0146933572428309
720,0.0147606332469917
721,0.0145765928096174
722,0.0148766565438642
723,0.0147615708837703
724,0.0146564919461614
725,0.0145906553439079
726,0.0144525372081606
727,0.0145772186617912
728,0.014716531786456
729,0.0149171245670531
730,0.015210610299565
731,0.0155548620750755
732,0.0158960595632536
733,0.0162556637216122
734,0.0164747448131373
735,0.0165209029153544
736,0.0166417889869993
737,0.0166589856712438
738,0.0166761823554883
739,0.0166933790397328
740,0.0168764678131109
741,0.016879891006126
742,0.0168942096158
743,0.0169085282254741
744,0.0169228468351481
745,0.0169268264871846
746,0.0168381042705218
747,0.0168012697894279
748,0.016529051086519
749,0.016582686564332
750,0.0164926882042819
751,0.0163398084969025
752,0.0164419393950393
753,0.0161695105754992
754,0.0159883235120634
755,0.0149154717808241
756,0.0138426200495848
757,0.0127697683183455
758,0.0111358870126678
759,0.00969505723378637
760,0.00872298820202557
761,0.00846991496508901
762,0.0087693810550962
763,0.00941624474969738
764,0.0102798722000023
765,0.0111325172116196
766,0.0121588593230129
767,0.0131132026264072
768,0.0136557177325309
769,0.0140284988229736
770,0.0142996696600821
771,0.0143664581543047
772,0.0145022259358823
773,0.0146209441315437
774,0.0144602088308181
775,0.0144107961030945
776,0.014431480429736
777,0.0141630061640567
778,0.0142673852771606
779,0.0140730396643233
780,0.0141919069943089
