"wavelength","measurement"
380,0.00735056912797773
381,0.00716008171604599
382,0.00717844268115712
383,0.00686067727500135
384,0.00702477389716805
385,0.00805034111409731
386,0.00852975543198291
387,0.00920803140556696
388,0.0100073645553683
389,0.010262068386858
390,0.0102775123282979
391,0.010451443417786
392,0.010678898206402
393,0.0110547133650659
394,0.0119284180713761
395,0.0122067777882982
396,0.0139042411271851
397,0.015739130947781
398,0.0175740207683768
399,0.0194089105889726
400,0.0210849511227838
401,0.0222720551145782
402,0.0238384302232164
403,0.0241649237647614
404,0.0247944088083631
405,0.0252765854886916
406,0.0260608369952591
407,0.026520579263392
408,0.0276845989745941
409,0.0284877744484929
410,0.0303590518551422
411,0.0310804934059466
412,0.0324281243275822
413,0.0333423658680774
414,0.0339162206909579
415,0.0343949031777519
416,0.0343630426950449
417,0.0345720445462654
418,0.0349265127123205
419,0.0348280237030617
420,0.035947452709608
421,0.0362431408370781
422,0.036477012486345
423,0.0369713428337481
424,0.0375591135644247
425,0.036897373029931
426,0.0366377129851587
427,0.0359445903841395
428,0.0349704766821667
429,0.0347503806787718
430,0.0353192724356125
431,0.0364201939307666
432,0.0379425771691409
433,0.0393738694481779
434,0.0410270555001183
435,0.0422112226496861
436,0.043119524500125
437,0.0437861034325915
438,0.044452682365058
439,0.0451192612975246
440,0.0458229993835197
441,0.0466618138211653
442,0.0481779828340949
443,0.0488795684852674
444,0.0499129480196869
445,0.0509463275541064
446,0.0519797070885259
447,0.0530528711590683
448,0.0535574008379008
449,0.0559534068770577
450,0.0555492848740148
451,0.055585085058363
452,0.0556085785370362
453,0.0556320720157093
454,0.0556555654943825
455,0.0559441478895616
456,0.0558431200219945
457,0.0564100561472004
458,0.0572228480245903
459,0.0582019915627518
460,0.0584256140137669
461,0.0580363454937745
462,0.0599223200506513
463,0.0584555455418683
464,0.0580771297325649
465,0.0573375795396407
466,0.0570871495569756
467,0.0572915398161015
468,0.0567580546009418
469,0.0567879935081837
470,0.0578892577332563
471,0.057895912870851
472,0.0585769199488856
473,0.059326398673055
474,0.0596175318423907
475,0.0607593020124021
476,0.0596621814120214
477,0.0598152106347399
478,0.0599682398574584
479,0.060121269080177
480,0.060360454446589
481,0.0587369642725303
482,0.058103365501128
483,0.0578170789024926
484,0.0565804346869178
485,0.0553566559572994
486,0.0557027820527956
487,0.0563491284378021
488,0.0569218733358298
489,0.0586879199324932
490,0.058910051701682
491,0.0597747287764281
492,0.0611421015790266
493,0.0606282438612996
494,0.0617485713347819
495,0.0610677223786784
496,0.0610792651874315
497,0.0601747563244381
498,0.0609669727054086
499,0.0592262122243995
500,0.0603574535567811
501,0.0595859494806133
502,0.0606589369154324
503,0.0611227040587495
504,0.060499376394887
505,0.0626913573489606
506,0.0623058192855112
507,0.0625866492277107
508,0.0632507509726489
509,0.0632212610821366
510,0.0624823365481463
511,0.0632623241124846
512,0.0627992820503267
513,0.0613406279076198
514,0.0607773100111488
515,0.0597227723882576
516,0.0594807252892924
517,0.0593563512950035
518,0.0591094756908753
519,0.0603028323580549
520,0.0613483321284983
521,0.0620388601881435
522,0.0627293882477888
523,0.063419916307434
524,0.0632105556114802
525,0.0631673100406391
526,0.063544824143051
527,0.0629941484967038
528,0.0636473734874683
529,0.0641749424227988
530,0.0643114961398253
531,0.0642063932743486
532,0.0642336437179634
533,0.0646740455002347
534,0.0648332043778819
535,0.0643874062515223
536,0.0647658195673857
537,0.0643147673853033
538,0.0638367082260304
539,0.0633273829750073
540,0.0637862851661194
541,0.063190907457865
542,0.0629245128222022
543,0.0632861789200833
544,0.0635294929292201
545,0.0632940010300791
546,0.0635926098586999
547,0.0635379464639161
548,0.0634832830691323
549,0.0634286196743485
550,0.0627970093912441
551,0.0632482881063629
552,0.0638713110103155
553,0.0632200331776211
554,0.0628242249952917
555,0.0634244865344721
556,0.0626749329237509
557,0.0624007750815
558,0.0623712373459774
559,0.0616364213998779
560,0.0623019546343132
561,0.0612878411341327
562,0.062394904421577
563,0.0615790065625827
564,0.0619283245969724
565,0.0611296293842846
566,0.0606210063123152
567,0.0600652575048876
568,0.0604615109102983
569,0.0595255248409752
570,0.0598375234171897
571,0.0597616610979335
572,0.0599871360843647
573,0.059558341584791
574,0.0601144952420491
575,0.0595159993656223
576,0.0596928299399493
577,0.0598696605142764
578,0.0600464910886034
579,0.0602233216629305
580,0.0604001522372575
581,0.0610588222660177
582,0.0607478823067182
583,0.0612073970926405
584,0.060047373527609
585,0.0597467002569204
586,0.0583821941500202
587,0.0573910046927751
588,0.0567873084622696
589,0.0561836122317642
590,0.0555799160012588
591,0.0558364684514861
592,0.0564116961444225
593,0.0563331996410064
594,0.057295319889022
595,0.0568107046420003
596,0.0573503054699077
597,0.0576804253299982
598,0.0576762271152704
599,0.0577632089218343
600,0.058338595891243
601,0.0586473805780397
602,0.0587005172149075
603,0.0586869171924028
604,0.0593234262624067
605,0.0587750021870988
606,0.0589810590834306
607,0.0587101280467702
608,0.0580918148705498
609,0.0579146334868399
610,0.0576674279425303
611,0.057206709389073
612,0.0568588966496293
613,0.0566175488929176
614,0.0556072036106752
615,0.0564248259794899
616,0.0556077919299459
617,0.0557922866840921
618,0.0558366341278511
619,0.0559921496485348
620,0.0556906669521577
621,0.0559200567334431
622,0.0549145388690769
623,0.0543730400825612
624,0.0540895143087888
625,0.0538059885350163
626,0.0535224627612438
627,0.0532329373103361
628,0.0530221980246392
629,0.0529060661216605
630,0.0532481678898147
631,0.0523418115671559
632,0.052495061573748
633,0.0529136433165673
634,0.0526196228205835
635,0.0530070969727991
636,0.0522507481130234
637,0.0528900291414751
638,0.0525650086948751
639,0.0526016184255158
640,0.0520961883403658
641,0.0516495650230645
642,0.051612848275559
643,0.0511710748701602
644,0.0507293014647614
645,0.0502875280593626
646,0.0500651944999303
647,0.0499658320789726
648,0.0490465160565969
649,0.0496591941132262
650,0.0489475478298088
651,0.0496185240167995
652,0.0487015649430792
653,0.0478363159752283
654,0.0471065080007606
655,0.0471341773089712
656,0.0466166999581594
657,0.0468825327543295
658,0.0473163597880583
659,0.0485178607192538
660,0.0489262126009171
661,0.0490063983393341
662,0.0488037228604954
663,0.0486461894957671
664,0.0483167359831133
665,0.0482092356481172
666,0.048420600304693
667,0.0483067949066584
668,0.048315461391885
669,0.0475276615380772
670,0.0474079509501946
671,0.0474015037936677
672,0.0471358084274056
673,0.0470298524246757
674,0.0467852516326668
675,0.046819248480832
676,0.0463808493072823
677,0.0468170943656739
678,0.0460890624734788
679,0.0456555440237432
680,0.0467403334009898
681,0.0458729247536596
682,0.0447078501616978
683,0.0435068108873023
684,0.042136913444034
685,0.0408092452587613
686,0.0397370733502567
687,0.0389505627638222
688,0.0384405153929053
689,0.0383096620989145
690,0.0387447948651979
691,0.0392325681174657
692,0.0395323910203638
693,0.039734937048135
694,0.0399318369138326
695,0.0400280000401472
696,0.0403297483479817
697,0.0404944186010579
698,0.0398297045184519
699,0.0398563936944104
700,0.0400465306159327
701,0.0396464418764413
702,0.0401585287490852
703,0.0402894904079433
704,0.0408242484721365
705,0.0405965226331697
706,0.040758044512085
707,0.0411497904696003
708,0.0409963639487371
709,0.0413647240122481
710,0.0409344472163907
711,0.0404660368417286
712,0.040337535670166
713,0.03881180656269
714,0.0374817319900784
715,0.0356570407913236
716,0.033892281142788
717,0.0324071272403326
718,0.031884393296753
719,0.0316785412345622
720,0.0319537126572565
721,0.0314153674562482
722,0.0325141018294748
723,0.0318450997896672
724,0.0317336447159453
725,0.0317101832830408
726,0.0312680918374973
727,0.031488563137623
728,0.0317195397855843
729,0.0324322354007065
730,0.0327050331514486
731,0.0334900459106167
732,0.0345918165249159
733,0.0354522540592776
734,0.0356934291215932
735,0.0358102876291383
736,0.036202674061024
737,0.0362674813642139
738,0.0363322886674039
739,0.0363970959705938
740,0.0369997710303655
741,0.0367661760735488
742,0.03684030775299
743,0.0369144394324311
744,0.0369885711118723
745,0.0370207447190416
746,0.0368301770550025
747,0.0365558893892437
748,0.0364115996637082
749,0.0361835009833774
750,0.0359322175791578
751,0.035354900911399
752,0.035880795816768
753,0.0354776958047673
754,0.0348288957812821
755,0.0325982808011771
756,0.0303676658210722
757,0.0281370508409672
758,0.0242774407766613
759,0.0213544590799479
760,0.0189128232344515
761,0.0184217243687039
762,0.0190214385077631
763,0.0201998350758118
764,0.0221264862754268
765,0.0244286633880703
766,0.0267775756714288
767,0.028644690968783
768,0.0296858859102791
769,0.0307770613354119
770,0.0311759888267202
771,0.0312200184428202
772,0.0318844715265237
773,0.0321720165646604
774,0.0319928697483948
775,0.0314864676689231
776,0.0316784193124002
777,0.0310582814387911
778,0.0315336553363497
779,0.0312846149520248
780,0.0313356326641501
