"wavelength","measurement"
380,0.00553353699345374
381,0.00542761731170337
382,0.0053135359693534
383,0.00523235524489443
384,0.00533450655102477
385,0.00567440994349389
386,0.00593059729372247
387,0.00633902962666939
388,0.0065900298046793
389,0.0068584312638798
390,0.00686831178352435
391,0.00700505863538257
392,0.00712665922177786
393,0.00737071830661319
394,0.00757381617550819
395,0.00817504915683238
396,0.00923686016969472
397,0.0104875305601453
398,0.0117382009505959
399,0.0129888713410465
400,0.0137968125629398
401,0.0148404446057681
402,0.0156450970962847
403,0.0160892336098304
404,0.0163800102140845
405,0.0167292581139808
406,0.0172566390343191
407,0.0176478488518446
408,0.0180605446882548
409,0.0186960892646634
410,0.0195913289247897
411,0.0198082609762874
412,0.0204786606266369
413,0.0210787020435964
414,0.0211841560306845
415,0.021521783967543
416,0.0214990162091207
417,0.0214407198325148
418,0.021972775911463
419,0.0215967922573924
420,0.0222343561685119
421,0.0223499248028937
422,0.0224918431623789
423,0.0226972850147305
424,0.0229099186126135
425,0.0225502966278565
426,0.0223740402646859
427,0.0218582540706252
428,0.0212312364026589
429,0.0212481934488108
430,0.0213399273992713
431,0.0221268481186879
432,0.0228532720900802
433,0.0236928961976433
434,0.0246451130583332
435,0.0253062213151024
436,0.025511224657122
437,0.0259177020584303
438,0.0263241794597387
439,0.026730656861047
440,0.02700476853003
441,0.0273702316920879
442,0.0280809839304868
443,0.0283797443156464
444,0.0288111016959404
445,0.0292424590762343
446,0.0296738164565282
447,0.0300591546312758
448,0.0301638932073602
449,0.0313534942826502
450,0.0311146232205076
451,0.0308341496533253
452,0.0307894667745489
453,0.0307447838957725
454,0.0307001010169961
455,0.0305340124150017
456,0.0306416107080038
457,0.030944096302962
458,0.0310083655819362
459,0.0314618943005517
460,0.031465834862725
461,0.0311293456233339
462,0.0320869530824993
463,0.0311065045401706
464,0.0307710340308582
465,0.0306094072186021
466,0.0301145397648075
467,0.0300828207560649
468,0.0298595526864564
469,0.0294778533520146
470,0.0301375685298655
471,0.0300897223508333
472,0.0302217163681646
473,0.0306273222768837
474,0.0307713837982215
475,0.0311010776842178
476,0.0304128374435078
477,0.0304370183033001
478,0.0304611991630923
479,0.0304853800228846
480,0.0304945569853865
481,0.0296946269832862
482,0.0291281213308733
483,0.029054258995383
484,0.0283800439611559
485,0.0277941173819787
486,0.0279526774686892
487,0.0282366420033728
488,0.0284374858767504
489,0.0292469130683116
490,0.0294406462922437
491,0.0296777643221961
492,0.0303993127523176
493,0.0301261529593305
494,0.0305113297169976
495,0.0302213078001271
496,0.0303562103378792
497,0.0298383969582687
498,0.0300842026072653
499,0.0294003552361077
500,0.0295995655879677
501,0.0293770681839143
502,0.02989206202828
503,0.0301503971011249
504,0.0298101334373025
505,0.0308037147890362
506,0.0306525206435236
507,0.030847420998348
508,0.0310188765352138
509,0.0310910816214347
510,0.0306153891621653
511,0.0310653566019324
512,0.0309374764280971
513,0.0300573245205516
514,0.0299265892644224
515,0.029467960598903
516,0.0293697875615916
517,0.0292094257759124
518,0.0292605426935637
519,0.029879336537145
520,0.0303772717949709
521,0.0307910314128676
522,0.0312047910307643
523,0.031618550648661
524,0.0315602388736401
525,0.0316276763004539
526,0.0318995870112846
527,0.0317272165197537
528,0.0319602256292478
529,0.0324947422388952
530,0.0325164545772223
531,0.0326720861653106
532,0.032541493212365
533,0.0329411258552119
534,0.0330464091977907
535,0.0326739195973478
536,0.0330810175614928
537,0.0329473972824256
538,0.03269921524713
539,0.032507356097913
540,0.0327357301905998
541,0.0324721948995657
542,0.0323568570424123
543,0.0325509502201051
544,0.0328130799387552
545,0.0325496533216152
546,0.0328666928058222
547,0.0328669059398655
548,0.0328671190739089
549,0.0328673322079522
550,0.0326318936677611
551,0.0329168851060004
552,0.0332282001789914
553,0.0328552147586167
554,0.0328074891371636
555,0.0331318139127072
556,0.0327267418217518
557,0.032649290885415
558,0.0324579616225855
559,0.0322141437320366
560,0.0325877284918233
561,0.0321143120196764
562,0.0326376923600133
563,0.0321471959214077
564,0.032367568443211
565,0.0319371385052679
566,0.0317794448642421
567,0.0313749673441211
568,0.0316730743747501
569,0.0312392471660799
570,0.031322806705667
571,0.0314011312218004
572,0.0314193207147609
573,0.0313522910018716
574,0.0316169904203821
575,0.0312590256542881
576,0.0313679746362457
577,0.0314769236182033
578,0.0315858726001609
579,0.0316948215821185
580,0.0318037705640761
581,0.0322416128322709
582,0.0320853291869289
583,0.0322993743079312
584,0.0318649154945586
585,0.0318075387258283
586,0.0309617576883543
587,0.0306473997513604
588,0.0303913681696411
589,0.0301353365879218
590,0.0298793050062025
591,0.0300785952384091
592,0.0304604723710811
593,0.030591385630646
594,0.0310756526490148
595,0.0310927971460727
596,0.0314436659411609
597,0.0316504891632618
598,0.0317852606298261
599,0.0318196761575927
600,0.0321752739667522
601,0.0323321464139893
602,0.0326230618266854
603,0.0325601461668206
604,0.0329136619392055
605,0.032743255274376
606,0.0328492283513667
607,0.032739584516883
608,0.0323736540843565
609,0.032460071668564
610,0.0321825079876581
611,0.0321182159920282
612,0.0318146550302085
613,0.0317555794333201
614,0.0313054555540924
615,0.0318350353474357
616,0.0313984766725717
617,0.0317593358562336
618,0.0317242929500216
619,0.0317314093932643
620,0.0316785753762022
621,0.0319404937354722
622,0.0313002351960064
623,0.0312505520543635
624,0.0310493190487703
625,0.030848086043177
626,0.0306468530375837
627,0.0306248813473333
628,0.0305872698799661
629,0.0304080184930648
630,0.0306940055213884
631,0.0303180546824028
632,0.0305119703530761
633,0.0306596170918161
634,0.0307029912402562
635,0.030822325779284
636,0.0305459691461074
637,0.0308675321722978
638,0.0306534789869963
639,0.0306884126689191
640,0.0305831695075484
641,0.0304406883653733
642,0.0302484584071667
643,0.0300485181351644
644,0.029848577863162
645,0.0296486375911597
646,0.0296763621358073
647,0.0296576954052787
648,0.0290252294655564
649,0.0294816697615437
650,0.0292054374785497
651,0.0293977513340692
652,0.0291581608817379
653,0.0285761842668901
654,0.028100812855766
655,0.0283321585897939
656,0.0280479467078185
657,0.0283518290947943
658,0.0286106758088815
659,0.0293536838943984
660,0.0294912019826657
661,0.0296665418350155
662,0.0297423506768747
663,0.029589793300628
664,0.0293941881419642
665,0.0294567552464021
666,0.0295670231696179
667,0.0296044592070245
668,0.0296207816516047
669,0.0290525789872613
670,0.0291878868003762
671,0.029134782528291
672,0.0289959634835724
673,0.0290098069256764
674,0.0290356619370892
675,0.029041768833276
676,0.0290539269690049
677,0.02924454573549
678,0.0288356866786202
679,0.0288765675077001
680,0.0294903492412361
681,0.0289909303398416
682,0.02847371527501
683,0.0279353508691167
684,0.0269472120729948
685,0.0262961800695707
686,0.0257459834073014
687,0.0252310673017214
688,0.0251399534025984
689,0.0253420210455137
690,0.0257337810950253
691,0.0263205272833676
692,0.0265156529842239
693,0.0268828912247556
694,0.0273336052543282
695,0.027503331723258
696,0.0281550690883201
697,0.0284763491818355
698,0.0282354499083746
699,0.0285559554514737
700,0.0290864920713941
701,0.0291558092813225
702,0.0297877525040073
703,0.0301848785568829
704,0.0308668608301972
705,0.0310952044731701
706,0.0317634904295431
707,0.0324113980825982
708,0.0327365999602396
709,0.0332344483297947
710,0.0332164241913359
711,0.03342253615743
712,0.0337800523098983
713,0.0328024086962148
714,0.0322620540261524
715,0.0308124829785896
716,0.0296353635624568
717,0.0288894074244035
718,0.0287914701628465
719,0.0292595878706459
720,0.029795452680179
721,0.029932335486527
722,0.0309604038461376
723,0.031030434844607
724,0.0312165313864258
725,0.0316066235919364
726,0.0317466029584363
727,0.0324589671037934
728,0.0331633131357282
729,0.0342451053038414
730,0.0352853964301774
731,0.0366316508279769
732,0.0379612248053863
733,0.0394053747006955
734,0.0402219878212548
735,0.0409846855546888
736,0.0417219088910987
737,0.0422877307885313
738,0.0428535526859639
739,0.0434193745833965
740,0.0444275305789768
741,0.044910695083914
742,0.0454018144847476
743,0.0458929338855812
744,0.0463840532864148
745,0.0467004041891089
746,0.0468148094144747
747,0.0472579421312849
748,0.0468248914770847
749,0.0472277505455699
750,0.0474122028729508
751,0.0472651610265476
752,0.0479361554575907
753,0.0477225302172909
754,0.0471815452940133
755,0.0442230515944673
756,0.0412645578949212
757,0.0383060641953751
758,0.0334933093912604
759,0.0291937915648199
760,0.0262365250063831
761,0.0256968752566759
762,0.0267139592619575
763,0.0288539059619166
764,0.0319024406119673
765,0.0347659341505889
766,0.0383005167763531
767,0.0416366725219082
768,0.0436314026294547
769,0.0450148962076051
770,0.0461313197184619
771,0.0465044870501937
772,0.0472769401419934
773,0.0478134944713315
774,0.0474973485408338
775,0.0476617648618669
776,0.0478993821710944
777,0.0471795474942104
778,0.0478039161133984
779,0.0473269402626645
780,0.0479766178822382
