"wavelength","measurement"
380,0.0350106366632792
381,0.0344699235624403
382,0.0331093971504266
383,0.0330457940493893
384,0.0343380764314977
385,0.035428113768042
386,0.0367311802639937
387,0.0393969458509198
388,0.0404814054274621
389,0.0427621977927915
390,0.0434274854452179
391,0.0435733302447563
392,0.0438917753104889
393,0.0449792854884291
394,0.0450791397005529
395,0.0499302734882265
396,0.0555847042090937
397,0.0629454275043155
398,0.0703061507995374
399,0.0776668740947592
400,0.0820859717235746
401,0.0886102115797949
402,0.0923951671126654
403,0.0946433668612914
404,0.097224724775393
405,0.0994554814541446
406,0.103437111038876
407,0.104385591343355
408,0.107466099194769
409,0.111624720363919
410,0.117609003323713
411,0.120264623325876
412,0.12580234023606
413,0.128827733918756
414,0.131032633311109
415,0.133802160353895
416,0.133648156401924
417,0.134439166200212
418,0.138737464826855
419,0.137713612749753
420,0.141250708122749
421,0.141508568959714
422,0.144030789733853
423,0.144597775510841
424,0.14704037363096
425,0.14438041993238
426,0.144048078394674
427,0.139743183437801
428,0.137093000582085
429,0.136621530573323
430,0.137502716783252
431,0.143043485545236
432,0.14723282883759
433,0.152624393953724
434,0.15807273718197
435,0.161236165294677
436,0.163135502433276
437,0.165667954102339
438,0.168200405771403
439,0.170732857440466
440,0.172004033737139
441,0.174414033511427
442,0.179144708704657
443,0.179682721737114
444,0.181979692296786
445,0.184276662856457
446,0.186573633416129
447,0.18978378038871
448,0.189142905074358
449,0.195468580472061
450,0.19346143280353
451,0.192524402060917
452,0.191867824398191
453,0.191211246735465
454,0.190554669072739
455,0.190375081237099
456,0.189869512048716
457,0.191776161183214
458,0.192760643888712
459,0.194987602036339
460,0.195150406918694
461,0.193874973821094
462,0.199370191118635
463,0.19352884693976
464,0.191456004548947
465,0.191211866696051
466,0.187982135090947
467,0.188530261517201
468,0.186665817989749
469,0.185768598946892
470,0.190231812875839
471,0.190277002980649
472,0.191452326942325
473,0.193708546870274
474,0.195304857212551
475,0.198033358319656
476,0.194372821193419
477,0.194610297874556
478,0.194847774555693
479,0.195085251236831
480,0.194815746441951
481,0.190057409768205
482,0.187526090406189
483,0.186606366375017
484,0.181631798707869
485,0.1774817270642
486,0.17902262387159
487,0.18038519429889
488,0.182014068240842
489,0.186868053801723
490,0.187818923532795
491,0.189320326092886
492,0.193084906638926
493,0.191149479885666
494,0.193695855433434
495,0.191195212129218
496,0.192422675233767
497,0.188862549928772
498,0.189639144417305
499,0.185374504535822
500,0.186204813301285
501,0.184548457074271
502,0.187816327457452
503,0.188430498250098
504,0.18599624508884
505,0.191402164558398
506,0.190675613011038
507,0.191503708181365
508,0.191974404409374
509,0.191866495479281
510,0.188798323542768
511,0.19047936995194
512,0.189460257746184
513,0.183813646889388
514,0.182669709324671
515,0.179120079208283
516,0.177805953865456
517,0.177037931149303
518,0.176080100905499
519,0.178844003928121
520,0.182292150987637
521,0.184224969754445
522,0.186157788521254
523,0.188090607288062
524,0.186870300004313
525,0.186884356927592
526,0.187759984459504
527,0.186048245524147
528,0.18672934814594
529,0.18974384944865
530,0.189048406096938
531,0.189417431640497
532,0.189346191047649
533,0.190033451714644
534,0.19037988615808
535,0.188681779166919
536,0.190145843704985
537,0.188856991547655
538,0.187421129526655
539,0.185997935994963
540,0.18695456460343
541,0.185861736636263
542,0.184773275216355
543,0.185548387360188
544,0.186487251616384
545,0.185158486400168
546,0.18626939223368
547,0.186124557530817
548,0.185979722827953
549,0.18583488812509
550,0.184561558554241
551,0.185872149943006
552,0.187439142982139
553,0.185806426945651
554,0.184877698513798
555,0.186659455834806
556,0.183718815954675
557,0.183509009351411
558,0.182278635155959
559,0.180235704852387
560,0.182537842873394
561,0.179285858598157
562,0.182113263159059
563,0.179376377579072
564,0.180756639180308
565,0.177776884656528
566,0.177017247174494
567,0.175018002651332
568,0.176580549441211
569,0.174245836006185
570,0.174247157527271
571,0.174905710852024
572,0.174504188313909
573,0.174694620821545
574,0.175954036968094
575,0.173628900377493
576,0.174323789861084
577,0.175018679344675
578,0.175713568828265
579,0.176408458311856
580,0.177103347795447
581,0.179713452063248
582,0.178568737487727
583,0.180151489688073
584,0.177380917976809
585,0.176651920573828
586,0.172013085699576
587,0.170076786235176
588,0.168588965813432
589,0.167101145391688
590,0.165613324969944
591,0.166319468405005
592,0.168767756876806
593,0.168879575467491
594,0.171725887975452
595,0.17115753684372
596,0.172692835188376
597,0.173467816945866
598,0.174064331745135
599,0.174442834436884
600,0.176176494250528
601,0.176999632045679
602,0.17817040403688
603,0.177622368312025
604,0.179769267374828
605,0.178239301435045
606,0.179201276045838
607,0.178348293443516
608,0.17606521943415
609,0.176826801636252
610,0.175106167731551
611,0.174864644931104
612,0.173162519283571
613,0.17264211092548
614,0.171248884170525
615,0.173633822116849
616,0.171540821629144
617,0.173181967182374
618,0.172998952051253
619,0.174054166128917
620,0.173547117999515
621,0.174953002408255
622,0.171625392830259
623,0.171481074970046
624,0.170606913749388
625,0.169732752528729
626,0.168858591308071
627,0.169443745181418
628,0.168658012006012
629,0.168463754519953
630,0.169814158415276
631,0.167923990476711
632,0.169411899982419
633,0.170022216290917
634,0.170346504165325
635,0.171616690282738
636,0.170149059358023
637,0.172065232041177
638,0.171226391788315
639,0.171695228717447
640,0.171219412649788
641,0.170309668377746
642,0.169953671195015
643,0.168891858279016
644,0.167830045363017
645,0.166768232447017
646,0.167759019058182
647,0.16735330222537
648,0.164286361238222
649,0.167304597365659
650,0.165740196537645
651,0.167684443009395
652,0.165495978539833
653,0.163129638743114
654,0.160740621624309
655,0.162426056349104
656,0.160635564981795
657,0.16206736322375
658,0.164834538395868
659,0.168648528386424
660,0.169920196433389
661,0.170714584789687
662,0.171771580213245
663,0.171454700835696
664,0.170343720246317
665,0.171486451724195
666,0.171631805779404
667,0.172074295223713
668,0.172722304890911
669,0.168979334379929
670,0.170455924423437
671,0.16986951686483
672,0.169390332466949
673,0.169798851988999
674,0.170548960705303
675,0.170528091895277
676,0.170667169815095
677,0.171556704822925
678,0.169750543192473
679,0.170188697823534
680,0.173727870817112
681,0.170803067171477
682,0.167314681532561
683,0.16447499412705
684,0.159131103504762
685,0.15497501132563
686,0.151862521740152
687,0.149254381258515
688,0.148625764444941
689,0.148990916204542
690,0.151320048306177
691,0.155294104342681
692,0.155640103083445
693,0.157990083486269
694,0.160933593945015
695,0.161298383109178
696,0.1640641815293
697,0.165488748438851
698,0.16503533400849
699,0.165576238608634
700,0.168364304362764
701,0.168702411036508
702,0.171913018527118
703,0.17369790409243
704,0.17660982978015
705,0.178668704410725
706,0.180748366693585
707,0.183527909862562
708,0.185138103832874
709,0.187793018721631
710,0.1878436412011
711,0.187956464847687
712,0.189475629447476
713,0.1829096227299
714,0.180992010179553
715,0.172311748481742
716,0.165322453891053
717,0.16103011119103
718,0.159772246897893
719,0.161909270722645
720,0.164717215700678
721,0.164058145126859
722,0.168957041835141
723,0.169043468062398
724,0.169938902701511
725,0.17129440017631
726,0.172055633791639
727,0.175736573930636
728,0.178703184174011
729,0.183203965335694
730,0.18879473937628
731,0.194634405598925
732,0.20199037666708
733,0.20862017707359
734,0.213453364353884
735,0.216666038918641
736,0.220044736695018
737,0.222172380665779
738,0.22430002463654
739,0.226427668607301
740,0.231869370682898
741,0.233982976475402
742,0.236427289002508
743,0.238871601529613
744,0.241315914056718
745,0.242958584575776
746,0.243243947722551
747,0.244995848541721
748,0.242970364840683
749,0.245525840568561
750,0.246305657712555
751,0.245229105528501
752,0.249003263339703
753,0.247628183651767
754,0.245315205385505
755,0.230121278189047
756,0.214927350992589
757,0.199733423796131
758,0.175693516924797
759,0.153780698635468
760,0.138401927674439
761,0.136552025523672
762,0.141103485618676
763,0.152242044168748
764,0.166852026706667
765,0.183019654714155
766,0.199321802395578
767,0.217239633429105
768,0.227668785914936
769,0.235091651851283
770,0.241257207692853
771,0.243772177680606
772,0.247224741647437
773,0.250637629279121
774,0.249351841822459
775,0.249469223014988
776,0.251321213896213
777,0.248764920951618
778,0.251545051356138
779,0.249079959168585
780,0.252120702559691
