"wavelength","measurement"
380,0.00306690031791135
381,0.00287757244410122
382,0.0028863268890657
383,0.00280319719492394
384,0.00320265512997853
385,0.00325544254644982
386,0.00363456191269836
387,0.00386398599840986
388,0.0043473415151611
389,0.0042965436187711
390,0.00457234195154989
391,0.00463935209564731
392,0.00487015832459814
393,0.00490349153704498
394,0.00505385340563258
395,0.00561723392598456
396,0.00636567145801335
397,0.00734810595118614
398,0.00833054044435893
399,0.00931297493753173
400,0.00994832027021185
401,0.0109332533750849
402,0.0117533883465875
403,0.0122935643956509
404,0.0127463150674183
405,0.0135312128067875
406,0.01391235565493
407,0.0145334128298931
408,0.0153376224221106
409,0.0160232567619025
410,0.0174595096058478
411,0.0177460119778397
412,0.0188846410756768
413,0.0197188841072896
414,0.0201030325840449
415,0.0207069165477542
416,0.0208048058217234
417,0.0209501632424446
418,0.0215062104998983
419,0.0215927388666084
420,0.0222538487251666
421,0.0223959755568273
422,0.0227012504899294
423,0.0231887454584056
424,0.023251421173861
425,0.0230997160898572
426,0.0230541778551966
427,0.0225443330837945
428,0.0221080055211882
429,0.0220226995045606
430,0.0222231817563203
431,0.0231273197904966
432,0.0240044528279477
433,0.0250262520737238
434,0.0262706427218166
435,0.026662031247969
436,0.0272088960717913
437,0.0277168300811988
438,0.0282247640906063
439,0.0287326981000138
440,0.0290987813213216
441,0.0298791846616507
442,0.0306126563927031
443,0.0307922565063053
444,0.0314337019236917
445,0.0320751473410781
446,0.0327165927584645
447,0.033456979983817
448,0.0338837900667189
449,0.0350051739131056
450,0.0352764919386986
451,0.03517932750998
452,0.0352799806096209
453,0.0353806337092619
454,0.0354812868089029
455,0.0356072221820978
456,0.0358359799450764
457,0.0361263246187273
458,0.0365732594162488
459,0.0374372972101364
460,0.0374542868980231
461,0.0373913678081378
462,0.0384384032474015
463,0.0375186305187568
464,0.0372497322688591
465,0.0372659565324067
466,0.0367298118599618
467,0.0369118701277655
468,0.0366788220993181
469,0.0367029573163824
470,0.0375871734027933
471,0.0374866635550811
472,0.0378473383347632
473,0.0383588352006846
474,0.0387543244165043
475,0.0393827050431001
476,0.0387981051346837
477,0.0388927099811803
478,0.0389873148276769
479,0.0390819196741735
480,0.0391439644161185
481,0.0383736190885475
482,0.0378351381235494
483,0.0377819939500383
484,0.0370566634451257
485,0.0363255095254687
486,0.0367101743139418
487,0.0371200730766944
488,0.0374360222147223
489,0.0385756624320063
490,0.0389124702771173
491,0.0391486036110278
492,0.0402193338109072
493,0.0398789271517921
494,0.0404825713577452
495,0.0401019927675191
496,0.040317288457256
497,0.0397659908420952
498,0.0400150687094048
499,0.0391331879487102
500,0.0394730774238755
501,0.0390632490596671
502,0.0398740040059773
503,0.0401375331825008
504,0.0397923414701033
505,0.040874197960623
506,0.0409961346659471
507,0.0411508015016628
508,0.0414597735556123
509,0.041557389348924
510,0.0409343563183627
511,0.0414716493181588
512,0.0413641296639336
513,0.0402050626740167
514,0.0399458677770841
515,0.0393734290972975
516,0.039068703479359
517,0.0388643992465092
518,0.0388968535134737
519,0.0397003592679795
520,0.0403252261116602
521,0.0408736755868898
522,0.0414221250621193
523,0.0419705745373488
524,0.0418228383911356
525,0.0416946771776465
526,0.0420267984306382
527,0.0417930673854909
528,0.0420359438919338
529,0.0426396299134119
530,0.0427329197233057
531,0.042869715134666
532,0.0427511246103407
533,0.0431118140422989
534,0.0432825303136571
535,0.0429190251663904
536,0.0434664955395435
537,0.0432444699998299
538,0.0431542100131741
539,0.0430674816427594
540,0.0434709321298146
541,0.0435574468739474
542,0.0436464866583175
543,0.0440088070491331
544,0.0443526263573174
545,0.0437938612990574
546,0.0440791019802281
547,0.0438055590151449
548,0.0435320160500617
549,0.0432584730849785
550,0.0427410953512114
551,0.0431369918385604
552,0.0433764740079138
553,0.0428709454077818
554,0.0426923167051646
555,0.043033927118173
556,0.0424092804187818
557,0.0423429582448769
558,0.0422140026265169
559,0.0417432051221619
560,0.0422416407958279
561,0.0417895360522961
562,0.0424335199220944
563,0.041696401235343
564,0.0420796602722984
565,0.0414837198382969
566,0.0412188628813698
567,0.0406668947504702
568,0.0410724536065186
569,0.0407178870396354
570,0.0406351017948173
571,0.0407830855913885
572,0.0406447810302389
573,0.0408002411613194
574,0.0411389919021625
575,0.0405566337710968
576,0.0406775420797304
577,0.0407984503883639
578,0.0409193586969975
579,0.041040267005631
580,0.0411611753142646
581,0.0417355048077014
582,0.0414874351101594
583,0.0416397303987958
584,0.040938502348425
585,0.0406998568949524
586,0.0395101560730229
587,0.0389866657723701
588,0.0385556981809609
589,0.0381247305895518
590,0.0376937629981426
591,0.0376892006062131
592,0.0380891884960136
593,0.0380715209171086
594,0.0385054477809815
595,0.0384439178804236
596,0.0386934047265422
597,0.0388692453410635
598,0.0388203976191622
599,0.0388887881464956
600,0.0391561127639775
601,0.0393254361390722
602,0.0393107872764622
603,0.0391256076532871
604,0.0395270910891396
605,0.0392144524320082
606,0.0394962075126682
607,0.0395164742517715
608,0.039186242194854
609,0.0393195692240822
610,0.0391710276739419
611,0.0390287559708715
612,0.0386604426038646
613,0.0382838734603824
614,0.0376489333624919
615,0.0379218219295815
616,0.0370798675774187
617,0.0374219569834446
618,0.0372226888266545
619,0.0374465567061255
620,0.0372325416940817
621,0.0373580767319772
622,0.0366747473226561
623,0.0365212963971541
624,0.0362036051145107
625,0.0358859138318674
626,0.035568222549224
627,0.0354618114986177
628,0.0353440446537712
629,0.035115413114314
630,0.0353908980968036
631,0.0348605340852768
632,0.0349053915495116
633,0.0350140728559181
634,0.0349211086576471
635,0.0349890665965184
636,0.034798509866732
637,0.0349904497115515
638,0.0347049780376915
639,0.0348343981663871
640,0.0344422831585788
641,0.0342233190600499
642,0.0341433453452213
643,0.0338238447010082
644,0.0335043440567951
645,0.033184843412582
646,0.0330838938126071
647,0.0330157865138663
648,0.0324476862374216
649,0.0329452645699438
650,0.0324990896647771
651,0.0327862841698542
652,0.0322443694072199
653,0.0316747305887197
654,0.0311001773991234
655,0.0313439098771462
656,0.0307467592398498
657,0.0312139597403005
658,0.0312730377984584
659,0.0320783834661772
660,0.0322440055054735
661,0.0324038543880849
662,0.0324799613168688
663,0.0321968659687774
664,0.032021198055936
665,0.032116523511696
666,0.0319553966946961
667,0.0319285252192869
668,0.0320058759577993
669,0.031431018893877
670,0.0312954812633507
671,0.0311635754805672
672,0.0309915592504256
673,0.0310624876050995
674,0.0309188687114864
675,0.0307880679803865
676,0.0306683623629568
677,0.0309207355653879
678,0.0303801419535886
679,0.0302616030593994
680,0.0308788745004965
681,0.0302110334643076
682,0.0294881182807791
683,0.0288170395797568
684,0.0277454598245003
685,0.0269806552491082
686,0.0263090622384271
687,0.0256707865242549
688,0.0254634511216262
689,0.0253305361526413
690,0.0256811817009855
691,0.0260875163593494
692,0.0262820782282259
693,0.0262439808303074
694,0.0266174433650435
695,0.0265163466989639
696,0.0268583088387531
697,0.027001044645822
698,0.0265630462760218
699,0.026630739981138
700,0.0267767841755758
701,0.0265658296182071
702,0.0268671875691505
703,0.0269760476342602
704,0.0274846367623536
705,0.0272502464334271
706,0.0275819224193801
707,0.0278156712399908
708,0.0276730900981754
709,0.0279625365833257
710,0.0276029429139803
711,0.027513154705429
712,0.0274281055446079
713,0.0263258877824259
714,0.0255731276067792
715,0.0244125607385365
716,0.0228962958840154
717,0.022029272623082
718,0.0216095423934707
719,0.0215871730235477
720,0.0218441612353191
721,0.0214554288470727
722,0.022199337810027
723,0.0218403795425936
724,0.0217276012154924
725,0.0216499975554639
726,0.0214812304716531
727,0.0216602684160732
728,0.0218646322287604
729,0.0222152445537409
730,0.0225421935602001
731,0.0232821426115062
732,0.0240020646721014
733,0.0243837205870738
734,0.024571273085009
735,0.0246666994370261
736,0.0247233876720705
737,0.0248483033064525
738,0.0249732189408344
739,0.0250981345752164
740,0.025487458582782
741,0.0254006811031195
742,0.0254606811785447
743,0.0255206812539699
744,0.0255806813293951
745,0.0255582771609074
746,0.0255791868966143
747,0.0253450246365251
748,0.0250012148219075
749,0.0250894425508794
750,0.025155949010297
751,0.0247790759632654
752,0.0250119884168998
753,0.024558139055737
754,0.0242989298142851
755,0.0227505568289785
756,0.0212021838436719
757,0.0196538108583654
758,0.0171124206261418
759,0.0148133512002435
760,0.0131584884477086
761,0.0128904216326433
762,0.0132526257286155
763,0.0141548241159705
764,0.0154573875274977
765,0.016921949806052
766,0.018477623276817
767,0.0199078697227005
768,0.0207322161371237
769,0.0215069976306814
770,0.0219220703527823
771,0.0220009058428661
772,0.0221336161428986
773,0.0223247095426433
774,0.0221126491602674
775,0.0220046827343598
776,0.0220458477667334
777,0.0218108737357067
778,0.0218586175975673
779,0.0215846883535403
780,0.0218034824981976
