"wavelength","measurement"
380,0.0121572718519963
381,0.0116889119258785
382,0.0115610505433577
383,0.0112935056548649
384,0.0113725654836535
385,0.0117969175817772
386,0.0125620310820619
387,0.0131352409757888
388,0.0138279184749606
389,0.0140949328238774
390,0.0141173908343115
391,0.0140554087409889
392,0.0139898479909738
393,0.0142252492872226
394,0.0144585869571138
395,0.015179345240083
396,0.0168500982821616
397,0.0186597586920079
398,0.0204694191018541
399,0.0222790795117004
400,0.0232106599725603
401,0.0247006209508311
402,0.025689753674914
403,0.026234371717576
404,0.0265303088839572
405,0.0269826630727526
406,0.0278595651408262
407,0.0285155702603977
408,0.0294106132433799
409,0.0305381450811764
410,0.0326661571820326
411,0.0337096353430729
412,0.0355646846729711
413,0.0374137099595736
414,0.0384691716505486
415,0.0400133485171023
416,0.041019074060182
417,0.0420689860066581
418,0.0437884224571037
419,0.044294814871051
420,0.0463797669921311
421,0.0472591955267816
422,0.048257522796585
423,0.0495860144886234
424,0.0504230420305697
425,0.0502123521478337
426,0.0503070635877083
427,0.0497406656178567
428,0.0489458985639056
429,0.0492239051528728
430,0.0496943390015694
431,0.0517300714782989
432,0.0538332511189975
433,0.055712401841718
434,0.0580759868359415
435,0.0594850881377742
436,0.0602271837704424
437,0.0613146007177743
438,0.0624020176651062
439,0.063489434612438
440,0.0637452587417306
441,0.0646428585200094
442,0.0660094799820104
443,0.0663270791960138
444,0.0671202278785164
445,0.067913376561019
446,0.0687065252435216
447,0.0692772964336774
448,0.0692084865942943
449,0.0715072488849403
450,0.0708562173672131
451,0.0702041790959739
452,0.0699562207494577
453,0.0697082624029414
454,0.0694603040564251
455,0.0694041641683383
456,0.069262503803165
457,0.0699121644855009
458,0.0703496079827667
459,0.0713256213512718
460,0.0714580959430909
461,0.070854880696495
462,0.0730626371234876
463,0.070939889473506
464,0.0703854662420703
465,0.0698845100361131
466,0.0690752728039516
467,0.069105776117405
468,0.0684982279103424
469,0.0680025650944372
470,0.0695011729636749
471,0.0694814430457217
472,0.0697996933644098
473,0.0706665976376258
474,0.070713128935858
475,0.0718037927574978
476,0.0703232909088058
477,0.0702895887286048
478,0.0702558865484038
479,0.0702221843682028
480,0.0700172259770634
481,0.0682909225565273
482,0.0669899686976482
483,0.0666903430949458
484,0.0650667696545648
485,0.0635952414091318
486,0.0642724716801932
487,0.0647536662990525
488,0.0653425197416854
489,0.0672277504892996
490,0.0674078925573152
491,0.0679776344622627
492,0.0696389847030595
493,0.0690075522358142
494,0.0701087724455225
495,0.0693482977418122
496,0.0697726237567237
497,0.0685471547871926
498,0.0691342811973907
499,0.0677556923031612
500,0.0683870573263014
501,0.0679272131585027
502,0.0692372289615565
503,0.0696045946627664
504,0.0691291078746175
505,0.0714615182585824
506,0.071336314752362
507,0.0717868305073945
508,0.0723888099571291
509,0.0726966752009173
510,0.0717829884585292
511,0.0729268115048635
512,0.0726801372067977
513,0.0708469866984077
514,0.0706347517182562
515,0.0697263165925036
516,0.0695723617788121
517,0.0696649446640484
518,0.0698446806808247
519,0.0715924024160994
520,0.0731093064604499
521,0.0742612339102577
522,0.0754131613600656
523,0.0765650888098734
524,0.0766539554596425
525,0.0769758715268874
526,0.0777560282498826
527,0.0775470950507337
528,0.0782778533889846
529,0.0796307291389933
530,0.0799196640761382
531,0.0803905021563628
532,0.0804118528810079
533,0.0813007172613668
534,0.081643031695267
535,0.0810254005794669
536,0.0819506144705337
537,0.0816114206451745
538,0.0812316295064833
539,0.0809837747945317
540,0.0816068063681879
541,0.0811311199171852
542,0.0807324214232775
543,0.0813982193078827
544,0.0821538229249918
545,0.0816198925311826
546,0.0824618253332076
547,0.0825439421057254
548,0.0826260588782432
549,0.082708175650761
550,0.0823628535871247
551,0.0831658444282032
552,0.0840460591393419
553,0.0833086220153297
554,0.0831856771130262
555,0.0841141411605335
556,0.0830252515007196
557,0.0828413749609104
558,0.0824634075589176
559,0.0818543366399694
560,0.0830157259315448
561,0.0816014395037851
562,0.0830558366261586
563,0.0819031441940349
564,0.0824377025498869
565,0.0812645915530548
566,0.0808434719812478
567,0.0800367155250512
568,0.0805598794502469
569,0.0796201674230081
570,0.0796292092209114
571,0.0797774076638062
572,0.0797767428302003
573,0.0796986798923013
574,0.0803263068976763
575,0.0791628346270701
576,0.0793892322505985
577,0.0796156298741269
578,0.0798420274976553
579,0.0800684251211837
580,0.0802948227447121
581,0.0813279404001427
582,0.08078452190062
583,0.0813858012441352
584,0.080142293177853
585,0.0798292360121981
586,0.077613198932764
587,0.0767274533642317
588,0.0759895896109994
589,0.0752517258577671
590,0.0745138621045348
591,0.0749949412331742
592,0.0758208632141315
593,0.0759360201831255
594,0.0772230444464689
595,0.0771044201767893
596,0.0776763668783581
597,0.0781930577512071
598,0.0782264394719444
599,0.0785986599928422
600,0.0792352193430891
601,0.0797685629521954
602,0.0802340487894962
603,0.0800176884147661
604,0.0809382082392896
605,0.0806521225586128
606,0.0807442758473458
607,0.080395214289058
608,0.0795188383644101
609,0.0796849059684986
610,0.0790116325521559
611,0.078670915717577
612,0.0781013875026802
613,0.0780022482318971
614,0.0771776545932654
615,0.0783627698980093
616,0.0773083908072826
617,0.0779657881698891
618,0.0780463985998819
619,0.0783920321371619
620,0.0782766440780814
621,0.0788892018562589
622,0.0776218847153198
623,0.0774519395419458
624,0.0770975180536524
625,0.076743096565359
626,0.0763886750770656
627,0.076465861389096
628,0.0763238321545337
629,0.0762229145147215
630,0.0770328304657195
631,0.0761688188986258
632,0.0766271934749137
633,0.0771172540029299
634,0.0774332863362049
635,0.0777546608336711
636,0.0770792581087664
637,0.078100355480456
638,0.0774694930337989
639,0.0778305481386522
640,0.0773565199529333
641,0.0772402124541463
642,0.0767080786160168
643,0.0762141426836863
644,0.0757202067513558
645,0.0752262708190253
646,0.0753688601271601
647,0.0752161052242459
648,0.0738128594009224
649,0.0750868449261699
650,0.0744126297315323
651,0.0750454922065449
652,0.0742024949819388
653,0.0730966303716249
654,0.0718709378097011
655,0.0725891820698006
656,0.0717547283932503
657,0.0724975085710273
658,0.073305287945496
659,0.0753033233086974
660,0.0758121959963884
661,0.0760935889840093
662,0.0764473069489875
663,0.0761537569439918
664,0.0757073810312096
665,0.0758210284165911
666,0.0760582562429757
667,0.0762558373189589
668,0.0762832446620044
669,0.0750693943617576
670,0.0753658749473259
671,0.0752173829991283
672,0.0749814238832189
673,0.075275244706077
674,0.0755078910943173
675,0.0755193134696401
676,0.0755349723095473
677,0.0762017245689685
678,0.0753462595890989
679,0.0754156194271712
680,0.0773088977646313
681,0.0761420122259859
682,0.0748337883062089
683,0.0737062298435894
684,0.0714303697517506
685,0.0699186247711732
686,0.0686976350333875
687,0.0676651190405606
688,0.0676801818851347
689,0.0686467092582388
690,0.0702986744155032
691,0.0722979556897555
692,0.0733663915382442
693,0.0749429004267759
694,0.0767535460778701
695,0.0776320073277101
696,0.0798803229466958
697,0.081441907362085
698,0.0814723532664595
699,0.0828522157279935
700,0.0852693109223181
701,0.0858013150897547
702,0.0885482725427089
703,0.0898755292634048
704,0.0926126172093861
705,0.0938349937525711
706,0.0963072740233424
707,0.0987239361785726
708,0.099935538861337
709,0.102583109633516
710,0.102812160299639
711,0.104144711752916
712,0.105605244041911
713,0.102928665982651
714,0.101926092894332
715,0.0975768480430783
716,0.094303674440338
717,0.0924403370011916
718,0.092438727877012
719,0.0944138539873364
720,0.0967747955859851
721,0.0971165712150712
722,0.101075368338248
723,0.101821451868898
724,0.102480557357872
725,0.104095630286937
726,0.104686397475475
727,0.107667929742382
728,0.110178565381963
729,0.114095753202795
730,0.11764491894713
731,0.122670721365654
732,0.127289868900571
733,0.132322327458581
734,0.136014354247294
735,0.137970905609222
736,0.140964004650219
737,0.142983793588027
738,0.145003582525835
739,0.147023371463643
740,0.150487538229948
741,0.152262682842916
742,0.154232332576094
743,0.156201982309272
744,0.15817163204245
745,0.159224045183574
746,0.159972326231664
747,0.161478610789045
748,0.160154144852657
749,0.161445640206429
750,0.162124506513358
751,0.162013447262237
752,0.164568132001489
753,0.163784318597249
754,0.162165761159277
755,0.152034165334572
756,0.141902569509867
757,0.131770973685162
758,0.115239797200581
759,0.100397811824184
760,0.0901235253074911
761,0.088356666808918
762,0.0918780850667421
763,0.0994582477665705
764,0.109986847027913
765,0.120387207555818
766,0.132399073033524
767,0.144319902666447
768,0.150909712748279
769,0.156118588378145
770,0.159999720594173
771,0.161746488829871
772,0.163823386919671
773,0.166084927248554
774,0.165161161237513
775,0.165741264799067
776,0.166357670912419
777,0.16472287947785
778,0.166916302182236
779,0.165027039857564
780,0.167623686088537
