"wavelength","measurement"
380,0.0018002496358474
381,0.00182902839345659
382,0.00183658953840821
383,0.00184913790582663
384,0.00189814437903109
385,0.0020506362375736
386,0.00218561010372101
387,0.00237332893302859
388,0.002500027525328
389,0.00263024558705892
390,0.00264446519045146
391,0.00269531680642881
392,0.00275816354234735
393,0.0028144949570697
394,0.00301706297466065
395,0.00320006329979185
396,0.00360823783684521
397,0.00410179076360284
398,0.00459534369036047
399,0.0050888966171181
400,0.0053803095518419
401,0.00582437142545988
402,0.00614164278389385
403,0.00635015787149955
404,0.0064986057522428
405,0.00663635364501167
406,0.00689222641929139
407,0.00710585405773175
408,0.00731472167726777
409,0.00759965867313477
410,0.00809997485556825
411,0.0082798850432076
412,0.0086339202815668
413,0.00892836639009502
414,0.00909532591718386
415,0.0093493778192932
416,0.00934950181016266
417,0.009400030180955
418,0.00965273026018872
419,0.0095139604411509
420,0.00986490421923624
421,0.00994489397154552
422,0.0100755803576148
423,0.0102560806673407
424,0.0103142479319573
425,0.0102881248254329
426,0.0102266457930838
427,0.0100478784566716
428,0.00980167424619228
429,0.0098312021278201
430,0.00991770443536811
431,0.0103736571477616
432,0.010818035573388
433,0.0112796305510526
434,0.0118360171343897
435,0.0122072281686798
436,0.0123657424836815
437,0.0126557897129183
438,0.0129458369421552
439,0.013235884171392
440,0.0133847331687197
441,0.0137667783348708
442,0.0142500041753649
443,0.014461053624606
444,0.0148320286748286
445,0.0152030037250512
446,0.0155739787752738
447,0.0159613166860436
448,0.0160757070348272
449,0.0168043988453789
450,0.0168067557119843
451,0.0167413495580043
452,0.0167294078649008
453,0.0167174661717973
454,0.0167055244786937
455,0.0167324282058619
456,0.0167175397398346
457,0.0170339714947204
458,0.0170952306388983
459,0.0174151318715751
460,0.0174657537367311
461,0.017354429254425
462,0.0179084503761806
463,0.017436533602827
464,0.0173158436316825
465,0.0172263752342943
466,0.0170540013437745
467,0.0171144186762787
468,0.0169865784838822
469,0.0169331529184734
470,0.0173110172780249
471,0.0173675220178971
472,0.0175060905264803
473,0.0177905913963373
474,0.0178972244036828
475,0.0182476102491467
476,0.017907259651191
477,0.0179813284566815
478,0.0180553972621721
479,0.0181294660676626
480,0.0181297825607131
481,0.017745970179108
482,0.0175288625162362
483,0.0175008442725244
484,0.017153167107964
485,0.0168399785748982
486,0.016993366813415
487,0.0172129029010697
488,0.0173671509701989
489,0.017897279912417
490,0.0180793098607049
491,0.0182447005132268
492,0.0187115257104381
493,0.018581747516333
494,0.0188823076440479
495,0.0187297213722801
496,0.0188320871187845
497,0.0185766827522776
498,0.0187117404729595
499,0.018335188183807
500,0.0185121758972546
501,0.0183752267469768
502,0.0187415729336356
503,0.0188866913318835
504,0.0187485277720672
505,0.0193953229217249
506,0.0193721724026761
507,0.0195039090613327
508,0.0196534040567019
509,0.0197421188141597
510,0.0194354389455077
511,0.0198132288708511
512,0.0197519392061567
513,0.0192090472861014
514,0.019173898647683
515,0.01887046390547
516,0.0188140607196134
517,0.0188035521963083
518,0.0188135203624488
519,0.0191861274839917
520,0.019605267616158
521,0.019853924226855
522,0.020102580837552
523,0.0203512374482491
524,0.020293391365111
525,0.0203940049555466
526,0.0204903387521683
527,0.0204226219908314
528,0.0205770270686012
529,0.0208426470322858
530,0.020874120103461
531,0.0209648359560167
532,0.0208925033229064
533,0.0211516024343841
534,0.0212369592267134
535,0.0210519963922172
536,0.0212457705230465
537,0.0211873703684771
538,0.0211122441151381
539,0.0210837444423182
540,0.0213117722829215
541,0.021285860592699
542,0.0212738370009571
543,0.0214453471125905
544,0.0216219765665696
545,0.0214446577155142
546,0.0215331225678747
547,0.0214258032626086
548,0.0213184839573424
549,0.0212111646520763
550,0.0210259498524714
551,0.0211104286228688
552,0.0213120366607276
553,0.0210795145563193
554,0.0209996716884351
555,0.0211861271420099
556,0.020903862279488
557,0.0208508701179384
558,0.0207338885349339
559,0.0205657506959482
560,0.0208295047486206
561,0.0204457254568517
562,0.0208012424485969
563,0.02047906996163
564,0.0206023672310053
565,0.0203238971801518
566,0.0202267767507209
567,0.0199987481170723
568,0.0201442330904054
569,0.0199111460901468
570,0.0199100327268703
571,0.0199535681551879
572,0.0199671131653851
573,0.0199370883214473
574,0.0200927817585684
575,0.019844243905704
576,0.0199089515683333
577,0.0199736592309627
578,0.020038366893592
579,0.0201030745562213
580,0.0201677822188506
581,0.0204285697362108
582,0.0202826613129722
583,0.0204083927369206
584,0.020046709169662
585,0.019996012469694
586,0.0194721559467597
587,0.0191706327348134
588,0.0189517910467292
589,0.0187329493586451
590,0.0185141076705609
591,0.0185471453808267
592,0.018740401610827
593,0.0187009919026184
594,0.0189680257634541
595,0.0188843947509683
596,0.0190020294185261
597,0.0190388013413681
598,0.0190589607055423
599,0.0190623392660132
600,0.019181372381039
601,0.0192420454807378
602,0.0193211836818402
603,0.019199321318869
604,0.0193684572361235
605,0.0192480832948602
606,0.0192734690203257
607,0.0192806314720996
608,0.0190828948026321
609,0.019168451067101
610,0.01908161064985
611,0.018998618313949
612,0.0188138001400153
613,0.0186412723949895
614,0.0183033242851415
615,0.0184140317395773
616,0.0181344897602591
617,0.0182497893052141
618,0.0181924244291987
619,0.018215615748492
620,0.0180989631298532
621,0.0181996580034983
622,0.0178172363737777
623,0.0177455934516492
624,0.0176028862467779
625,0.0174601790419065
626,0.0173174718370351
627,0.0172707225270719
628,0.0171803426107513
629,0.0171174704692518
630,0.0172300272519008
631,0.0169805289441588
632,0.0169960586499791
633,0.0170825769013031
634,0.0170194139077873
635,0.0170725288086061
636,0.0169075420407672
637,0.0170090290389258
638,0.0168475125329243
639,0.0168991037662083
640,0.0167535737540154
641,0.0166910348913788
642,0.0165502392032087
643,0.01639249548482
644,0.0162347517664313
645,0.0160770080480427
646,0.0160814503921665
647,0.0160437045454237
648,0.0156629927356866
649,0.0158936913337977
650,0.0156995502845018
651,0.0158286687125007
652,0.015568211425081
653,0.0152395642382387
654,0.0149679803856748
655,0.0150637910918727
656,0.014874338769519
657,0.0149616305059488
658,0.0150771532389317
659,0.0154513278946114
660,0.015532613172866
661,0.0155745873454583
662,0.0156059671889278
663,0.0154480062663057
664,0.015323049857593
665,0.0153219538400207
666,0.0153011952171708
667,0.0153174512143582
668,0.015260277505146
669,0.0149542023809596
670,0.0149724123619293
671,0.0148674445231171
672,0.014788269081104
673,0.0147961134623846
674,0.0147737788724426
675,0.0147098610882973
676,0.0146480616461089
677,0.0147239521756133
678,0.0145042135915828
679,0.0144356515940622
680,0.0147065375675988
681,0.0144361227612063
682,0.0140795388434978
683,0.0137854904508127
684,0.0132825987644708
685,0.0129047780232762
686,0.0125965366852269
687,0.0123128502860392
688,0.0121544757504132
689,0.0121955622464141
690,0.012394462149668
691,0.0126530074083553
692,0.0126735061866481
693,0.0127710708458881
694,0.0129787178989337
695,0.012986735948218
696,0.0132265128887936
697,0.0132533815733704
698,0.0130828302479943
699,0.0131531697501419
700,0.0133358182261898
701,0.0132451107108697
702,0.0134433591586597
703,0.0134762864953109
704,0.0137894740426348
705,0.0137446763045133
706,0.0139515278710386
707,0.014123730556064
708,0.0141203335097417
709,0.0142377043760058
710,0.0140762240114785
711,0.0140826392506751
712,0.0140985108235947
713,0.0135443165819483
714,0.0131849555231022
715,0.0125102770791544
716,0.0118999586958251
717,0.0114164898397769
718,0.0112392382104844
719,0.0112285957222311
720,0.0114002561893517
721,0.0112774616589181
722,0.0115788363795674
723,0.0114513276482643
724,0.0114229981699191
725,0.0114150656065921
726,0.0113287255675645
727,0.0114709921742821
728,0.0115683559637584
729,0.0117891431908022
730,0.0120155209745835
731,0.0123730345683015
732,0.0126790105181454
733,0.0130177489871446
734,0.0132295038458061
735,0.0132971220817093
736,0.0134232946955184
737,0.0134689903485066
738,0.0135146860014947
739,0.0135603816544828
740,0.0137310002616192
741,0.0137418093618203
742,0.0137737708148819
743,0.0138057322679434
744,0.013837693721005
745,0.0138623013093912
746,0.0137952771726199
747,0.0138094319166752
748,0.0135504182786759
749,0.0135956009921156
750,0.0135552656967802
751,0.013393160922256
752,0.0135034493752615
753,0.0132654740536807
754,0.0131282247953909
755,0.0122543500824219
756,0.0113804753694529
757,0.0105066006564839
758,0.00914851123241252
759,0.00787824369927797
760,0.00704072580505213
761,0.00679977566832917
762,0.00704634428649672
763,0.00756390449059674
764,0.00827001712194189
765,0.00902176901467127
766,0.00987209623421706
767,0.0107206864776209
768,0.0111581390475959
769,0.0114785316530751
770,0.0117315848007513
771,0.0117720536777776
772,0.0118880306072689
773,0.0120090573265783
774,0.011857167100539
775,0.0118434232044377
776,0.0118692996126797
777,0.0116589873799873
778,0.011741445472921
779,0.0115815013592794
780,0.0116695911168873
