"wavelength","measurement"
380,0.0172918206939387
381,0.0165310330787048
382,0.0165201787359164
383,0.0162756509053664
384,0.0165348685284824
385,0.0169817526995103
386,0.0178468591732102
387,0.0190310900345921
388,0.0197672117063136
389,0.0200807399664058
390,0.0201676704097083
391,0.020051525077851
392,0.0203199754157018
393,0.0205759075541798
394,0.0205560435577595
395,0.022016502440841
396,0.024226310301853
397,0.0268907579278558
398,0.0295552055538586
399,0.0322196531798614
400,0.0336099918324048
401,0.0358964010480572
402,0.03737521522338
403,0.0381281892995306
404,0.0386731239580451
405,0.0396985803446561
406,0.0412747551268602
407,0.0424256934248077
408,0.0437018876593769
409,0.0460843728968866
410,0.049450015761096
411,0.0511456957728184
412,0.0541198391423325
413,0.0574402503773217
414,0.0598055345989924
415,0.0623222494981108
416,0.0646678479421773
417,0.0661488524597361
418,0.0695126099269553
419,0.0707714390351824
420,0.0744628033211587
421,0.0760301978083278
422,0.0781661022641075
423,0.0805255706823606
424,0.082015796268054
425,0.0819786935240997
426,0.0822090343422765
427,0.0816074006097542
428,0.0803007862246757
429,0.0808852645868284
430,0.0815470745499894
431,0.0848116657395652
432,0.0882265417198831
433,0.0911381543842266
434,0.0951702119080888
435,0.0972356844445254
436,0.0984991547861041
437,0.100176744569808
438,0.101854334353513
439,0.103531924137217
440,0.104076921195205
441,0.10540571575295
442,0.107236768343393
443,0.107761381924274
444,0.108613519095429
445,0.109465656266584
446,0.110317793437739
447,0.111171998596959
448,0.110571222900055
449,0.11392681623232
450,0.112806494497726
451,0.111636585881591
452,0.110897788087846
453,0.110158990294102
454,0.109420192500357
455,0.109075473221082
456,0.108989239529909
457,0.109821437478605
458,0.11038394175119
459,0.111619820227358
460,0.111865354621471
461,0.110604070560299
462,0.113617856088257
463,0.110510073266472
464,0.109567604505719
465,0.108913571856051
466,0.107396934271809
467,0.107215858473263
468,0.106121096148083
469,0.105369666309768
470,0.107006019811004
471,0.106970059168656
472,0.107395021632868
473,0.108357896082917
474,0.108762893531344
475,0.11002062765165
476,0.107424632959838
477,0.107233230944023
478,0.107041828928208
479,0.106850426912392
480,0.106175126243776
481,0.1036183668401
482,0.101743560541847
483,0.101134103982353
484,0.0982394203386256
485,0.0961687022386748
486,0.096528283270683
487,0.0973129374828245
488,0.0979585222861112
489,0.100766140743936
490,0.100899347514537
491,0.101529474098558
492,0.10403048511035
493,0.102742399327086
494,0.104427645226146
495,0.103032972463151
496,0.10371148030177
497,0.101826691751933
498,0.102466523969973
499,0.100365646487929
500,0.100874978234541
501,0.100025984899053
502,0.101833538235938
503,0.10266812016872
504,0.101655232443233
505,0.10486895492363
506,0.104652289592588
507,0.105242833370287
508,0.105930493837118
509,0.106095346907889
510,0.104595327978062
511,0.106260228217386
512,0.105871693386927
513,0.103182792468149
514,0.102763542755624
515,0.101349217165814
516,0.100793755475624
517,0.100827846795849
518,0.100635752587894
519,0.103189027191565
520,0.105199131034721
521,0.106756630498726
522,0.108314129962731
523,0.109871629426736
524,0.109806484261003
525,0.110246884375698
526,0.111145072358249
527,0.110662453113776
528,0.111620955622667
529,0.113470792423516
530,0.113713395738738
531,0.114288633170873
532,0.114125044847391
533,0.115360339284122
534,0.115981663365072
535,0.114852567378015
536,0.116215116295858
537,0.115599948664437
538,0.115005579594267
539,0.114257636664087
540,0.114856700139355
541,0.114373474198463
542,0.11368149858599
543,0.114289995620463
544,0.115404146855574
545,0.114433524537069
546,0.11556571277408
547,0.115628491007872
548,0.115691269241664
549,0.115754047475457
550,0.115090871170533
551,0.116090439410486
552,0.117272576218012
553,0.116121353010676
554,0.115926152937561
555,0.117153209354202
556,0.115430615771365
557,0.114986606918891
558,0.114527775849635
559,0.113696779443588
560,0.114654234422416
561,0.112594870828385
562,0.114994635026585
563,0.112922583724566
564,0.113641571239817
565,0.112142917354276
566,0.11122201312364
567,0.110184394124585
568,0.110645574481773
569,0.109453795751447
570,0.108981177732498
571,0.109318013439258
572,0.108972607533716
573,0.10905335533941
574,0.109754651806264
575,0.108047304169541
576,0.108265790232711
577,0.108484276295882
578,0.108702762359053
579,0.108921248422224
580,0.109139734485394
581,0.110625621399274
582,0.10985760108763
583,0.110357474665943
584,0.108426454525581
585,0.108023946169822
586,0.10524601610147
587,0.103531119405469
588,0.102496051934716
589,0.101460984463962
590,0.100425916993209
591,0.100751011375667
592,0.101926681153497
593,0.102155911938956
594,0.10380311320548
595,0.103395562219112
596,0.104398934855751
597,0.104903809108916
598,0.105308591958825
599,0.10553778281436
600,0.106510124986891
601,0.107007078046531
602,0.1077285315561
603,0.107350777137747
604,0.108421837659168
605,0.107739683811554
606,0.108119353139523
607,0.107764803668129
608,0.10635385050511
609,0.106388106561542
610,0.105661363729248
611,0.105260043304479
612,0.104373668729547
613,0.104045282997135
614,0.102977509967772
615,0.104286251044503
616,0.102985477492528
617,0.103848848255503
618,0.103922363724788
619,0.104478339741332
620,0.104408064502807
621,0.105133374857655
622,0.103221563127877
623,0.102919354194317
624,0.102465966090189
625,0.102012577986061
626,0.101559189881933
627,0.101785462444388
628,0.101182740833064
629,0.101156097966965
630,0.102045116693628
631,0.100907458196939
632,0.101659988523872
633,0.102273193999491
634,0.102676694523394
635,0.103044839631021
636,0.102078906410415
637,0.103172996062597
638,0.102700768293437
639,0.103073424261681
640,0.102232723790039
641,0.10178393529557
642,0.101151074535808
643,0.100420699838563
644,0.0996903251413189
645,0.0989599504440744
646,0.0995580037080979
647,0.0992836735560755
648,0.0971303176105233
649,0.0988292941789166
650,0.0978135169640195
651,0.0987195555240309
652,0.0976006706175471
653,0.095962598967798
654,0.0944893440589509
655,0.0952907144672565
656,0.0942460918913392
657,0.0953828146891627
658,0.0963788402612404
659,0.0988417159171705
660,0.0996820959209082
661,0.0998724227910937
662,0.100540853684034
663,0.0997555765091982
664,0.099328859878375
665,0.0996515499838155
666,0.0998618452105231
667,0.0999781559309212
668,0.100003623518532
669,0.0982626849315309
670,0.0988400347039625
671,0.0986580170520941
672,0.0981118669163028
673,0.0985521393895187
674,0.0988028650032255
675,0.0988630046397789
676,0.098659004137882
677,0.0996090720042365
678,0.0985537428682337
679,0.0985491613138363
680,0.100732345736471
681,0.0994745294624588
682,0.0977087596105652
683,0.0961786824957337
684,0.0933127394343918
685,0.0911719066334564
686,0.089503337687993
687,0.0881367628274454
688,0.0880917574424652
689,0.0889129875000769
690,0.0910572687506609
691,0.0936710987843612
692,0.0948133943337974
693,0.0969352164176299
694,0.099374893852743
695,0.100684136237638
696,0.103178492009278
697,0.105271480200172
698,0.105311549063458
699,0.106981670197408
700,0.110044028206198
701,0.110862214285777
702,0.113933212140176
703,0.115691968119028
704,0.119068678533707
705,0.120282081089691
706,0.12372251169425
707,0.126710514202579
708,0.128064925455362
709,0.131112433613956
710,0.131206156820282
711,0.132668613301392
712,0.134710215690738
713,0.130583485375028
714,0.128961501574408
715,0.123712393524726
716,0.118893025602531
717,0.116059589029022
718,0.116107189968716
719,0.117776581692986
720,0.120603780076642
721,0.121001980944206
722,0.125495314111045
723,0.126035264224141
724,0.126666532609195
725,0.128156246870185
726,0.128898642336029
727,0.132420821868144
728,0.13487377492117
729,0.139752807876922
730,0.144039485150404
731,0.149662565844557
732,0.155328602861666
733,0.160977928486734
734,0.165309776420479
735,0.167554440154834
736,0.170912150646668
737,0.173108284539768
738,0.175304418432868
739,0.177500552325968
740,0.181992743917371
741,0.183903037253189
742,0.185938554792504
743,0.18797407233182
744,0.190009589871135
745,0.191407281970363
746,0.191907941087542
747,0.193346416849473
748,0.191486345802102
749,0.193081135188312
750,0.19381671306052
751,0.193081012091796
752,0.196188711811629
753,0.194946984813499
754,0.193216311814074
755,0.181086152206498
756,0.168955992598922
757,0.156825832991346
758,0.137018048121081
759,0.119040276534811
760,0.106582478480524
761,0.103843948338952
762,0.108063892021767
763,0.116597952633668
764,0.129189788003148
765,0.141445218696622
766,0.15601271081418
767,0.169647384445853
768,0.178277462524411
769,0.183932304494375
770,0.188897331210569
771,0.190919439396207
772,0.194019956583045
773,0.196124235476575
774,0.195482552063715
775,0.195778297451462
776,0.196441802890454
777,0.194276061396339
778,0.19726367535237
779,0.194789675306857
780,0.198125898568877
