"wavelength","measurement"
380,0.00520954705578267
381,0.00511481946997399
382,0.00498215109919722
383,0.00492996926004034
384,0.00505284024804571
385,0.00534328515302651
386,0.00564685035323295
387,0.00594111637211613
388,0.00634113354249006
389,0.00643755297280479
390,0.0067384800028714
391,0.00675189273163539
392,0.00688324630636097
393,0.00699104530756832
394,0.0073428654118467
395,0.00787897443909335
396,0.00891070290128358
397,0.0101639654192993
398,0.011417227937315
399,0.0126704904553307
400,0.0133841527900311
401,0.0144737864278173
402,0.0151980721271615
403,0.0157034487380985
404,0.01599328038615
405,0.0162449897334203
406,0.0168160206948636
407,0.0172261946563646
408,0.0175205152224139
409,0.018177759114192
410,0.0190662106944404
411,0.0193190510816395
412,0.0199712018071577
413,0.0205653047378894
414,0.0207178418179747
415,0.0211496359408277
416,0.0211550694899951
417,0.0210707998218002
418,0.021421190238116
419,0.0211871667475198
420,0.0218987319994282
421,0.0219317686792282
422,0.0220374731093776
423,0.0223102864377842
424,0.0225221397966008
425,0.0222036277413213
426,0.0220426120479149
427,0.0214996735343427
428,0.0209375414140725
429,0.0209887119432871
430,0.0211172558390369
431,0.0219451737867326
432,0.0226535655663676
433,0.0234386466285261
434,0.0244024587086753
435,0.0249744896720278
436,0.0252880762841247
437,0.0257089447615471
438,0.0261298132389695
439,0.0265506817163919
440,0.0266580476275571
441,0.0271853063640225
442,0.0279412344443673
443,0.0281023259809179
444,0.0285201129810047
445,0.0289378999810915
446,0.0293556869811782
447,0.0299060977344123
448,0.0298591751746298
449,0.0310850920438004
450,0.0308876603454078
451,0.0306887997845735
452,0.0306002790293614
453,0.0305117582741492
454,0.030423237518937
455,0.0303697287449046
456,0.0303951852028582
457,0.0307022395310165
458,0.0308129937197037
459,0.031270935123706
460,0.031253599000004
461,0.0308816110504213
462,0.0317240552233825
463,0.0308343224765101
464,0.0305027618318527
465,0.0303455997209211
466,0.0299724842387805
467,0.0298813131805072
468,0.029605454830491
469,0.0293413115153904
470,0.0299502764766319
471,0.02996478006833
472,0.030118638118167
473,0.0304728176030858
474,0.0306534376593471
475,0.0309008163238357
476,0.030314830747442
477,0.0303332537319015
478,0.030351676716361
479,0.0303700997008205
480,0.0302940008680237
481,0.029659984368737
482,0.0290885892181745
483,0.0290410816244834
484,0.028261118188787
485,0.0276262099348843
486,0.0278830411320109
487,0.0281819385754935
488,0.0284252361234075
489,0.0291628639822119
490,0.0293587211902692
491,0.0296135073004146
492,0.0303309638100988
493,0.0300539158257641
494,0.0305578839812943
495,0.0301450871126605
496,0.0302797469093696
497,0.0298383969582687
498,0.029995671481195
499,0.0294136084635832
500,0.029637901334098
501,0.0293647404066648
502,0.0299185034633088
503,0.0300730840789652
504,0.0298203632383956
505,0.0307831858322663
506,0.0306526181734069
507,0.0308253749100601
508,0.0310039436264148
509,0.0310672583219399
510,0.030508106290532
511,0.0310457639320422
512,0.0309179704514365
513,0.0300458289983063
514,0.0298415258675363
515,0.0293832786522271
516,0.0292273679240004
517,0.0292357696810579
518,0.0292114569869627
519,0.0297076839425317
520,0.0303753732132426
521,0.0307662501531857
522,0.0311571270931287
523,0.0315480040330718
524,0.0314666101856692
525,0.0316276763004539
526,0.0317872325857196
527,0.0316433408201131
528,0.0319192197316457
529,0.0324104764197214
530,0.0324359339055674
531,0.0325578591659861
532,0.0325227674747708
533,0.0328662229048352
534,0.0329527805098198
535,0.0325428394341885
536,0.0330358677275157
537,0.0328039524973943
538,0.0326408967115763
539,0.0324490375623593
540,0.0326506061084529
541,0.0324309635995667
542,0.0323568570424123
543,0.0325320510960518
544,0.0327185843184883
545,0.0324354783382284
546,0.0327387075909598
547,0.032766139509324
548,0.0327935714276883
549,0.0328210033460526
550,0.0325552568527924
551,0.0328306686891605
552,0.0331757681137277
553,0.0328863484646978
554,0.0327442637648143
555,0.0330979818798548
556,0.0326752460433678
557,0.0326684717624645
558,0.0324598775429597
559,0.0322517685936842
560,0.0325402639486159
561,0.0320843508395257
562,0.0325866647250692
563,0.0321546862164454
564,0.0323184307206723
565,0.0318697258499289
566,0.0318153531999435
567,0.0314030559505123
568,0.0317014230608302
569,0.0313318528739415
570,0.0313621307546148
571,0.0314390508404286
572,0.0314098278061194
573,0.0314555426383284
574,0.0317516466792624
575,0.0313152028670706
576,0.0314454315691665
577,0.0315756602712623
578,0.0317058889733582
579,0.0318361176754541
580,0.03196634637755
581,0.0324241887738141
582,0.0322066997083726
583,0.0324304544710904
584,0.0320061907815191
585,0.0319479817577846
586,0.0311396521954989
587,0.0307471056347264
588,0.0305178810444874
589,0.0302886564542484
590,0.0300594318640094
591,0.0303238503849551
592,0.0306750381143477
593,0.0307386947663869
594,0.0313247222976632
595,0.0313622397036778
596,0.0316438232696676
597,0.0318541142209525
598,0.031945001574692
599,0.0320968170739865
600,0.0323706978449226
601,0.0326061230275026
602,0.0328395608289722
603,0.0327911055998051
604,0.0331734815483247
605,0.0330007341662959
606,0.0331696465279781
607,0.0330399765574562
608,0.0326616489930966
609,0.0326850839459977
610,0.032496285462882
611,0.0324247632519032
612,0.0320205861278067
613,0.0321116285272983
614,0.0316437758826167
615,0.0320694191629894
616,0.031733320602589
617,0.0320005272576419
618,0.0318796472174695
619,0.0321282693250779
620,0.0319906710027719
621,0.0322236229867008
622,0.031648984720052
623,0.0315654218642804
624,0.0313719768004798
625,0.0311785317366791
626,0.0309850866728785
627,0.0309521157791222
628,0.0308439511941736
629,0.0307484628057145
630,0.0310681041457698
631,0.0306587677440643
632,0.0308330127209406
633,0.0309424797613637
634,0.0310610342785152
635,0.0312072437187199
636,0.0309032059373311
637,0.0311153881157319
638,0.0309696752033262
639,0.0310522381455926
640,0.0309218192703452
641,0.0307767286619591
642,0.030626776824499
643,0.0304050657152127
644,0.0301833546059264
645,0.0299616434966401
646,0.0299603691559857
647,0.0300606455364719
648,0.029328603753228
649,0.0299176673518614
650,0.029556441026565
651,0.0297849059588288
652,0.0295052372264522
653,0.0289835340794856
654,0.0284267100444884
655,0.0287577096459445
656,0.0284841003459495
657,0.0287559929312019
658,0.0290187061633294
659,0.0297587059937791
660,0.029943203143168
661,0.0300974678714014
662,0.0302573084607145
663,0.0300102121175861
664,0.0298923621165529
665,0.0299853412059355
666,0.0300147763618698
667,0.0300390957136374
668,0.0300806025414172
669,0.0295850921500957
670,0.0295184047382363
671,0.0295356173446819
672,0.0294272276235538
673,0.0295244179365978
674,0.0295909320726942
675,0.0295727475259464
676,0.0295307917477573
677,0.0297063172229685
678,0.0293417497371028
679,0.0292445802673634
680,0.0300501707713953
681,0.0294341061295704
682,0.0289064358612487
683,0.0283766887623779
684,0.0274355897126385
685,0.0267437425367174
686,0.0261556305904814
687,0.0256912869803901
688,0.0255469260996452
689,0.0257227777099286
690,0.0262202948302324
691,0.026780157448075
692,0.0269518933155845
693,0.0272704099610795
694,0.0277056752571369
695,0.0279430831304175
696,0.028621357293061
697,0.0288588223721966
698,0.0286241390032982
699,0.0288482200017717
700,0.0295017006252531
701,0.0293620784825161
702,0.03009915458474
703,0.0304444380863133
704,0.0311747171578392
705,0.0313665542818265
706,0.0320220963334479
707,0.0325216718706528
708,0.0328739220359303
709,0.0334705486712946
710,0.0333203260270147
711,0.0336290741076354
712,0.033974071757749
713,0.0328750922999137
714,0.0323611010409735
715,0.0308689202710609
716,0.0296607213321156
717,0.028912641209937
718,0.028791366130971
719,0.0292886301025628
720,0.0299410973059114
721,0.0298454688704652
722,0.0309281539647254
723,0.0309594504282083
724,0.0310877377571974
725,0.031490211923226
726,0.031590884579424
727,0.0323155548287232
728,0.0330448988534139
729,0.0339826675591883
730,0.0350993961060649
731,0.0363786973226422
732,0.0377006943117844
733,0.0391121261822415
734,0.0400179986519998
735,0.0407480130378735
736,0.0414680711148221
737,0.0420023366766793
738,0.0425366022385366
739,0.0430708678003939
740,0.0439957462796178
741,0.0444613814135292
742,0.0449724864935606
743,0.045483591573592
744,0.0459946966536233
745,0.0463786249287927
746,0.0465265760993532
747,0.0468477964620347
748,0.0464365404857566
749,0.0468534265187916
750,0.0470183988774807
751,0.0468166102565834
752,0.0475720438932595
753,0.0472850761807159
754,0.0467775721827109
755,0.043875686272321
756,0.0409738003619311
757,0.0380719144515413
758,0.0332225144192736
759,0.0289834954631113
760,0.0260826618624843
761,0.0255015900876729
762,0.0265274821250822
763,0.0286651314544568
764,0.0316419274570113
765,0.034640454370062
766,0.038096527607098
767,0.0414998272589803
768,0.0431437532129397
769,0.04456326782799
770,0.0457961290155262
771,0.0463443473164717
772,0.0468148738975341
773,0.0474586417439219
774,0.0472113995923124
775,0.0473277445175308
776,0.0474895225895018
777,0.0470177779277718
778,0.0477364514421216
779,0.0470036352015073
780,0.047682129650601
