"wavelength","measurement"
380,0.00790662859955693
381,0.00794016845182994
382,0.00805086582697784
383,0.00794044438651468
384,0.00838151852109971
385,0.00894444678308871
386,0.00946952118681859
387,0.00997626805159629
388,0.0109200469644804
389,0.0114858441600673
390,0.0119261265120786
391,0.0120111425113901
392,0.0124121335301954
393,0.0126214195854854
394,0.0129895516038672
395,0.0142168864873086
396,0.0164731201988702
397,0.0187925798854812
398,0.0211120395720922
399,0.0234314992587033
400,0.0248666196268074
401,0.0269348628468367
402,0.0283825824363817
403,0.0296289592063492
404,0.0302063401474189
405,0.0313146016836288
406,0.0325280689690037
407,0.0334017876471745
408,0.0349491998057107
409,0.0364103828034863
410,0.0385671654560788
411,0.0388818926346905
412,0.0414791857358345
413,0.0425286926982144
414,0.0436090354103621
415,0.0443665768391113
416,0.0445569205162855
417,0.0446866287909908
418,0.046121531408911
419,0.045554168938772
420,0.0467058517213951
421,0.0470757760241232
422,0.0475054141316656
423,0.0485176624348737
424,0.0489486081309441
425,0.0483904716246043
426,0.0480422052166498
427,0.047061388303883
428,0.045765027217264
429,0.04583535060999
430,0.0464498915100372
431,0.0480988657894358
432,0.0498479401185489
433,0.0516825908549916
434,0.0537940711492222
435,0.0553436690920064
436,0.0561804628531115
437,0.0572882828645836
438,0.0583961028760557
439,0.0595039228875278
440,0.0602948973683465
441,0.0612403391261207
442,0.0634858179603277
443,0.0638470149284992
444,0.0652943570560691
445,0.0667416991836391
446,0.068189041311209
447,0.0695474877667246
448,0.0700435053708723
449,0.073208163222865
450,0.0729534158606771
451,0.0731377089913771
452,0.0733102109897741
453,0.0734827129881711
454,0.073655214986568
455,0.0736791146718287
456,0.0740610186259574
457,0.0749423135855563
458,0.0757916804701961
459,0.0769444874999813
460,0.0773262699705318
461,0.0772249591453483
462,0.0794934918163326
463,0.0774818387058495
464,0.0768545258599423
465,0.076675453564435
466,0.0758069310519716
467,0.075906964909461
468,0.0755123923386357
469,0.0749629870637756
470,0.0770153015529231
471,0.0773792198676086
472,0.0779189679002264
473,0.0789318122113303
474,0.079805100250719
475,0.0813517099608687
476,0.0795789434704004
477,0.0798158424463725
478,0.0800527414223446
479,0.0802896403983167
480,0.0800000985884335
481,0.0786167688804515
482,0.077740809957616
483,0.0772883265921713
484,0.0753818574863731
485,0.0741872865285873
486,0.0748928487642035
487,0.0753874117103288
488,0.0765284862821627
489,0.078208624712761
490,0.0792745891429892
491,0.0801027611405655
492,0.0821636723808517
493,0.0813385635178226
494,0.0826700404165695
495,0.0818501733729742
496,0.0824015890519894
497,0.0810213598387712
498,0.0816052362126078
499,0.0803077064340513
500,0.0808577067013334
501,0.0801476272960878
502,0.0815899007579726
503,0.0819630495141122
504,0.081289667286433
505,0.0839338721056451
506,0.0840276052040833
507,0.0843495849337809
508,0.0849549258168728
509,0.0849699058990682
510,0.083834370377157
511,0.0849544057553188
512,0.0844807377109078
513,0.0821244929031331
514,0.0817257696111294
515,0.0804462278139385
516,0.0798367859151093
517,0.0795878692008004
518,0.0793133092344662
519,0.0808575512925537
520,0.0824507979113213
521,0.0833898274477078
522,0.0843288569840944
523,0.0852678865204809
524,0.0850972642547627
525,0.0849308628302598
526,0.0855486933933575
527,0.0848157523925497
528,0.0854929990561001
529,0.0866645135672763
530,0.0864887186523981
531,0.0869868751187223
532,0.0864911144187723
533,0.0874858321760352
534,0.0875507434918481
535,0.0867881905880338
536,0.0875249668215374
537,0.0871758702449262
538,0.0862840753954808
539,0.0858850469890409
540,0.0863104487381508
541,0.0858926425344064
542,0.0854658988032484
543,0.0856932957967551
544,0.0865281919439868
545,0.0858073525230546
546,0.0862018682413119
547,0.0861671648934923
548,0.0861324615456727
549,0.0860977581978531
550,0.0852692965715066
551,0.0857609298399126
552,0.0867305294399796
553,0.0859958868834401
554,0.0856711337838193
555,0.0864290938318242
556,0.0853030777338033
557,0.0850346982419713
558,0.0845355471736937
559,0.0839424485649184
560,0.0848928564450549
561,0.0836325460612857
562,0.0848425645210718
563,0.0837330674484926
564,0.0842906902459586
565,0.0832225003340832
566,0.082827068582784
567,0.0816711696037987
568,0.0825082336313007
569,0.0815093651181609
570,0.0815652709702249
571,0.0818169882580953
572,0.0819247621807976
573,0.0818343766507992
574,0.0824111449877135
575,0.0812961871830937
576,0.0814962387749445
577,0.0816962903667953
578,0.0818963419586461
579,0.0820963935504969
580,0.0822964451423477
581,0.0837565551349062
582,0.0829701302624405
583,0.0833413082768092
584,0.0818496479134991
585,0.0816303818262045
586,0.0792752040166517
587,0.0781885725985528
588,0.0772963027134652
589,0.0764040328283775
590,0.0755117629432899
591,0.075877703487269
592,0.0764598754472568
593,0.0765142908080973
594,0.077375052475163
595,0.0773097141111092
596,0.0778216409654934
597,0.0782042684377522
598,0.0780960867381199
599,0.0782334506663288
600,0.0786113344034624
601,0.0788322221553737
602,0.0791095643277509
603,0.0790232534976535
604,0.0796544737778617
605,0.0789644615497979
606,0.0791791443860434
607,0.078778776106088
608,0.0776597499734603
609,0.0777915903479684
610,0.077150496737945
611,0.0766987603407802
612,0.0756243547714193
613,0.0757656354175149
614,0.0747230605530359
615,0.07534103086019
616,0.0744847068128805
617,0.0747345188802274
618,0.074739078089721
619,0.0746757694078792
620,0.0745387190050916
621,0.0746140166643517
622,0.0732388506308867
623,0.072912646781479
624,0.0723660121720199
625,0.0718193775625606
626,0.0712727429531014
627,0.0711479087845951
628,0.0707268816848075
629,0.0706678909105172
630,0.0707628390497436
631,0.0699367780413881
632,0.070115861695879
633,0.0705275478193275
634,0.0703347968735158
635,0.0706244271079287
636,0.0697450310098586
637,0.0703568318848748
638,0.0698978411338613
639,0.0700557158296457
640,0.0694745271535106
641,0.0691489529164667
642,0.0689295081909197
643,0.0682907552927378
644,0.0676520023945559
645,0.0670132494963741
646,0.0669899170853478
647,0.0665785639418512
648,0.0653716283157771
649,0.0664382256910918
650,0.0653295430695588
651,0.0659291822295742
652,0.0650405257209871
653,0.063700544850051
654,0.0625555655045093
655,0.0629923030629531
656,0.0620023168977422
657,0.0623291071404996
658,0.0632410689580834
659,0.0646690326714824
660,0.0652740859343897
661,0.0650857855684414
662,0.0654919771904547
663,0.0648400945143988
664,0.0644528778179257
665,0.0644209654169466
666,0.0643041725406789
667,0.0645170379960041
668,0.0643372989183046
669,0.0632572219241688
670,0.0629438002776166
671,0.0627476602822973
672,0.0625941736513936
673,0.0625542281357467
674,0.0622943558375884
675,0.0621070149039468
676,0.0619745919651228
677,0.0620600463628058
678,0.0614153565873045
679,0.0607159178308518
680,0.0622235658571905
681,0.0607211146777704
682,0.0595594098788483
683,0.0577065984991039
684,0.0559630563516485
685,0.0542486804147926
686,0.0527115289602441
687,0.0513060940219712
688,0.050640096630578
689,0.0508491617453037
690,0.0513562631230905
691,0.0520802985356602
692,0.0520240808735328
693,0.0524237170961345
694,0.0529279483992296
695,0.05247380578275
696,0.0532899560143163
697,0.0531447264934232
698,0.0524881957902595
699,0.0521981687697981
700,0.0525300628138301
701,0.0521180982483957
702,0.0528633968110861
703,0.0525483335985002
704,0.0532970812312901
705,0.053058518031125
706,0.053488103898917
707,0.0538679471010523
708,0.0536523073073293
709,0.0538959780241052
710,0.0533602555147006
711,0.0528870903297844
712,0.0529648472171974
713,0.0507536166202379
714,0.049213013245943
715,0.0463554995189858
716,0.0439453209723524
717,0.0420349854330064
718,0.0414986988885217
719,0.0410158707556246
720,0.0415660105371851
721,0.0409707862029662
722,0.0420596590249061
723,0.0414316168943337
724,0.0410877754113522
725,0.0410685737141051
726,0.0404353137887111
727,0.0408164489366065
728,0.0413827676391335
729,0.0418145974345603
730,0.0425890206399045
731,0.0434976739412101
732,0.0447389849464208
733,0.0456982187082908
734,0.0463831888221979
735,0.0461553489311009
736,0.0466732584750334
737,0.0467377483312321
738,0.0468022381874309
739,0.0468667280436296
740,0.0473231497688423
741,0.047477083369162
742,0.0475280949900707
743,0.0475791066109794
744,0.0476301182318882
745,0.0475576054309618
746,0.047114594125267
747,0.0472361098295357
748,0.045962117024929
749,0.0467938501379376
750,0.0462898136489747
751,0.0457140095769393
752,0.0460743462795213
753,0.0452549785652687
754,0.0453035456777813
755,0.0421768994274921
756,0.0390502531772029
757,0.0359236069269137
758,0.0313744911145305
759,0.0273446675651473
760,0.0242217784326208
761,0.0234878974717392
762,0.024174246893294
763,0.0259639600247887
764,0.028463494634934
765,0.0308753743282658
766,0.0338679621093771
767,0.0369107821692355
768,0.0379351548300176
769,0.0389970484312825
770,0.0402087942733591
771,0.0402342885955854
772,0.0406814932016151
773,0.0411228542470556
774,0.0405222269712585
775,0.0405551812781665
776,0.0401929013931406
777,0.0398803445669146
778,0.0405646044324289
779,0.0396437127411528
780,0.0398693447952964
