"wavelength","measurement"
380,0.0212429127814619
381,0.0212667149978405
382,0.0209208211813991
383,0.0206352764027613
384,0.0207038139447101
385,0.0224111214843976
386,0.0235798075331951
387,0.0260109886628871
388,0.0267036697753213
389,0.0280400512083635
390,0.0284039541295074
391,0.0285330849322115
392,0.029565322696301
393,0.0302270970603909
394,0.0314810363132516
395,0.0348995603221524
396,0.0386449542276714
397,0.0443246516680578
398,0.0500043491084443
399,0.0556840465488307
400,0.0584119089596005
401,0.0625534384756326
402,0.0660093631413346
403,0.0678995441866619
404,0.0693650516228931
405,0.0706733355374156
406,0.0731578606413606
407,0.0749817224857931
408,0.0764539408114333
409,0.0791761124033366
410,0.0833904243225293
411,0.0847815414388443
412,0.0874119343466324
413,0.0902841933214232
414,0.0912415278735316
415,0.0931772690265099
416,0.0931424221830672
417,0.0928321369515618
418,0.0954938602936075
419,0.0949209570825167
420,0.0976743653025835
421,0.0975152159236443
422,0.0995317191727872
423,0.10038342375496
424,0.102142213008977
425,0.100247618335465
426,0.0996399539443852
427,0.0978223485007499
428,0.0954904936922842
429,0.0961681405865407
430,0.0958726617176308
431,0.100272991835562
432,0.103716928072714
433,0.107370252511387
434,0.112665535208598
435,0.114973487142292
436,0.116973501239098
437,0.118978452650037
438,0.120983404060977
439,0.122988355471916
440,0.124059726926621
441,0.126849711886193
442,0.129603234775637
443,0.130962892116533
444,0.133060232562742
445,0.13515757300895
446,0.137254913455159
447,0.139569754846519
448,0.140028881122001
449,0.145831907013854
450,0.14482813556561
451,0.144472794391493
452,0.144139886468354
453,0.143806978545216
454,0.143474070622078
455,0.144115496370579
456,0.144357530247258
457,0.145585618926351
458,0.147269031863003
459,0.149594037925252
460,0.150008024146156
461,0.148183363523841
462,0.152951434532017
463,0.148751152926069
464,0.147320814585523
465,0.147162198839418
466,0.1453158256661
467,0.145695283009139
468,0.144302641095582
469,0.143644526871676
470,0.146990923427493
471,0.146825093807456
472,0.147630896908786
473,0.149785833512001
474,0.149952880096437
475,0.152858064087564
476,0.149801132868696
477,0.150198200269364
478,0.150595267670032
479,0.1509923350707
480,0.150522568503425
481,0.147550809630446
482,0.144698914281245
483,0.144384730086011
484,0.141179596231065
485,0.138220937120112
486,0.139242415981472
487,0.140719984843184
488,0.142267167327612
489,0.146435948555711
490,0.147216407886962
491,0.149145603167623
492,0.152812358568523
493,0.151365583715073
494,0.153934608978517
495,0.152689213418499
496,0.153758045585367
497,0.151247934134844
498,0.152733237226581
499,0.14949691632259
500,0.151144462425038
501,0.149920714115116
502,0.152892664235237
503,0.15413774084165
504,0.153073019024431
505,0.158086693971667
506,0.15802308029533
507,0.159204108815227
508,0.160589465221954
509,0.161045883865337
510,0.158801387565001
511,0.16129444821687
512,0.161166008784137
513,0.157169330353447
514,0.156643495046084
515,0.15412620122965
516,0.153577288058945
517,0.153831066768022
518,0.153589027782399
519,0.157673317051219
520,0.161183532307684
521,0.163610837863809
522,0.166038143419933
523,0.168465448976058
524,0.168297212145329
525,0.168885298132347
526,0.170513007717383
527,0.1699781286072
528,0.171668549599382
529,0.174573286825827
530,0.175247733277465
531,0.176141596167624
532,0.176401673207199
533,0.178417447605293
534,0.179620384011457
535,0.177415208114279
536,0.180030139928696
537,0.179700903224842
538,0.178996155159159
539,0.178282116507811
540,0.179584918486382
541,0.178819836356245
542,0.17826431748758
543,0.179384972210638
544,0.181051966277924
545,0.180609592616629
546,0.182356632567965
547,0.182641303072695
548,0.182925973577425
549,0.183210644082154
550,0.182262558798315
551,0.183966609085345
552,0.186529568533758
553,0.184798575495294
554,0.184572546156091
555,0.187002022083147
556,0.184656066267593
557,0.184598884757273
558,0.183870085781817
559,0.182704578533252
560,0.184654974810236
561,0.182661358742323
562,0.185753474651053
563,0.183476544408537
564,0.184578780301357
565,0.182491682719664
566,0.181482358124386
567,0.180060221353158
568,0.181258051195485
569,0.179437868730719
570,0.180195833760567
571,0.180471116074012
572,0.180685678231867
573,0.181114604705689
574,0.182064725383027
575,0.180113304107877
576,0.18068899888495
577,0.181264693662023
578,0.181840388439096
579,0.182416083216169
580,0.182991777993242
581,0.185659845548335
582,0.184475933933436
583,0.185701767177856
584,0.182774482172625
585,0.182211066462072
586,0.177374297867698
587,0.174918998568338
588,0.173254382609012
589,0.171589766649686
590,0.16992515069036
591,0.170643498359028
592,0.172676083431301
593,0.173258465233745
594,0.175829597357583
595,0.175724414736203
596,0.176516538455273
597,0.177991847352856
598,0.178257222194517
599,0.17840517981843
600,0.180295353095438
601,0.181117759308416
602,0.18194609115116
603,0.181791338271579
604,0.183542938756568
605,0.182337523660492
606,0.183526463144383
607,0.182495757335632
608,0.179867979941596
609,0.180629154998591
610,0.179207437672859
611,0.178554863088948
612,0.176863467200373
613,0.176481553432815
614,0.17481072076942
615,0.177566829161582
616,0.174820178979884
617,0.17653525377428
618,0.176444732205508
619,0.177304460255827
620,0.176925675193664
621,0.178318575046782
622,0.17496385708643
623,0.175290722560188
624,0.174324658904661
625,0.173358595249134
626,0.172392531593607
627,0.172243916005335
628,0.172005717182977
629,0.171509118045382
630,0.172813292819133
631,0.170727859993395
632,0.172117900663243
633,0.173066009929355
634,0.173952125435593
635,0.174806796574497
636,0.173355011854373
637,0.175130412570349
638,0.174198271337493
639,0.174580250385512
640,0.173857087435283
641,0.173277415766194
642,0.172626568693188
643,0.171611526177809
644,0.17059648366243
645,0.169581441147051
646,0.169919523431702
647,0.169705206170726
648,0.166512444617207
649,0.169707329235743
650,0.167949988091072
651,0.169811787955394
652,0.167576604886021
653,0.16529262940457
654,0.162004806480056
655,0.164221671488409
656,0.162298329982175
657,0.16417667460072
658,0.165971727028915
659,0.170187155190218
660,0.171845532100564
661,0.172619777823556
662,0.173432143166796
663,0.173061447927475
664,0.172092887375758
665,0.173055087494329
666,0.173306317316262
667,0.173530873891096
668,0.174417920872679
669,0.170782619505965
670,0.171685459306362
671,0.171196133985994
672,0.170948090039809
673,0.171644882401773
674,0.171846641309155
675,0.172127489867414
676,0.172376955480928
677,0.173668371845856
678,0.171325050184287
679,0.171422903786787
680,0.175606266128191
681,0.172867362141187
682,0.169298431273144
683,0.166337843982435
684,0.161179794375861
685,0.156783934988998
686,0.153504544847712
687,0.150584448816296
688,0.149966999882231
689,0.150841368579689
690,0.153298336525533
691,0.157167732621845
692,0.157968010301725
693,0.160337577078233
694,0.162811098144614
695,0.164210886694715
696,0.167295697738414
697,0.169406038703339
698,0.167912721075858
699,0.169192845968719
700,0.172891743552104
701,0.172130584979357
702,0.175915632024327
703,0.177288983765012
704,0.18122746611639
705,0.182045643879102
706,0.185631944844235
707,0.188225440021348
708,0.189447081372584
709,0.192745935131538
710,0.191919005965238
711,0.192904115065525
712,0.194374188478488
713,0.187543340300208
714,0.183691049439097
715,0.175344849174836
716,0.168041580645999
717,0.162715938381277
718,0.161823513543494
719,0.162902601661006
720,0.16580840760269
721,0.16521096483114
722,0.170726845939502
723,0.170435359514948
724,0.170611668194549
725,0.172475904557546
726,0.172128104577934
727,0.1757097313211
728,0.178126360640774
729,0.18388165956639
730,0.188256021640127
731,0.19497339703873
732,0.201270767295047
733,0.20777421500681
734,0.212930301858695
735,0.214924757905141
736,0.219014864530669
737,0.220972747529795
738,0.22293063052892
739,0.224888513528046
740,0.229656104319449
741,0.23146107144144
742,0.233488813502354
743,0.235516555563267
744,0.23754429762418
745,0.239215519245896
746,0.239971427474789
747,0.241569668490281
748,0.238653694295364
749,0.240501571262443
750,0.24083540889996
751,0.239596226050467
752,0.243009944095789
753,0.24188009918149
754,0.238846648327497
755,0.223859351347556
756,0.208872054367616
757,0.193884757387675
758,0.169599011819288
759,0.147724180511519
760,0.132201258820924
761,0.128747698432083
762,0.134111800051445
763,0.144524699643835
764,0.159194284980725
765,0.174823501452852
766,0.192216927595549
767,0.209189626327839
768,0.219011003641371
769,0.226202017449794
770,0.232850737939881
771,0.235305617081892
772,0.237540126715146
773,0.240809595559146
774,0.239748839913233
775,0.240232229859386
776,0.241234104054694
777,0.238753653236292
778,0.241958476138344
779,0.23874011615287
780,0.242998621940315
