"wavelength","measurement"
380,0.0294019532723806
381,0.0295428011631572
382,0.0294419700122035
383,0.0278477217813428
384,0.0291751833206525
385,0.029588373672646
386,0.032169217516459
387,0.0332096356823761
388,0.0359925449685914
389,0.0374397320248817
390,0.0367672266872616
391,0.0370806649917064
392,0.0385543935799257
393,0.0391571349716338
394,0.0398726244347782
395,0.0440446597718401
396,0.049843465753861
397,0.0560039934692359
398,0.0621645211846108
399,0.0683250488999857
400,0.072235807707244
401,0.0784174905202178
402,0.0822843958997884
403,0.0847146829660877
404,0.0864872016978199
405,0.0895363662896997
406,0.0930856440324289
407,0.0960169975325522
408,0.0988897021023788
409,0.103249336975776
410,0.109048155418805
411,0.11268492211531
412,0.117923616189283
413,0.122917635508957
414,0.124843423468076
415,0.128797784525398
416,0.130291361221787
417,0.132143374401263
418,0.136767783815161
419,0.136339514869475
420,0.141465582414933
421,0.143170432345897
422,0.145630210116005
423,0.148087547905198
424,0.150012660622888
425,0.148324003454633
426,0.147735557652502
427,0.145534024504687
428,0.141610004366716
429,0.142140507113358
430,0.142924176699525
431,0.149310722758941
432,0.15418929609918
433,0.159516518536793
434,0.165908894448533
435,0.169931819729979
436,0.172643373250039
437,0.175169140879234
438,0.177694908508429
439,0.180220676137624
440,0.180878257574395
441,0.183637867812948
442,0.188359888933507
443,0.187844286207788
444,0.190269777955101
445,0.192695269702415
446,0.195120761449728
447,0.197304908302536
448,0.19772971519728
449,0.204045610789281
450,0.201316938606554
451,0.19955938920138
452,0.198938530109599
453,0.198317671017818
454,0.197696811926038
455,0.197708176555685
456,0.196669291344132
457,0.199335810274176
458,0.200213277983467
459,0.202343704523734
460,0.202820166771695
461,0.200965966179822
462,0.206669162654736
463,0.200839638672681
464,0.198397028160527
465,0.198264584131744
466,0.195755180949491
467,0.195882793320141
468,0.194145610393864
469,0.193402476059549
470,0.1969985941218
471,0.197592016212434
472,0.19802097917493
473,0.200899729468711
474,0.201484357608196
475,0.204882740226726
476,0.201872313925566
477,0.201712090234544
478,0.201551866543522
479,0.2013916428525
480,0.200811752353634
481,0.196541632023527
482,0.192552488387094
483,0.191739708993813
484,0.1873378580059
485,0.182577779776363
486,0.183822292184333
487,0.185809749980998
488,0.187184489691328
489,0.191448028277745
490,0.19275807720384
491,0.194346301923904
492,0.198658410872624
493,0.196157936496398
494,0.200044708291846
495,0.196373584069232
496,0.19791906675488
497,0.193748231280872
498,0.195153266233647
499,0.190820589862137
500,0.191699094072965
501,0.190095858373325
502,0.193340246669075
503,0.194099126924868
504,0.192139933102455
505,0.198050462402906
506,0.196587734222375
507,0.197332190946457
508,0.198054945835812
509,0.198407989402526
510,0.195083079976759
511,0.196839761573914
512,0.195792506042396
513,0.189877830007728
514,0.188820151736468
515,0.185274180252429
516,0.183600805356264
517,0.183179860205057
518,0.181661977778611
519,0.185112929741371
520,0.188409313916722
521,0.190580518379111
522,0.1927517228415
523,0.194922927303889
524,0.194104260457906
525,0.193799172067056
526,0.194902760537632
527,0.19330922357047
528,0.193944945079474
529,0.19658267760856
530,0.196221576966887
531,0.196894550428665
532,0.196017847852539
533,0.197951294984228
534,0.19805457109309
535,0.195976529204156
536,0.197871327342994
537,0.196280937039713
538,0.19502447113086
539,0.19346386781114
540,0.194675193517745
541,0.193256114046693
542,0.191949119702252
543,0.193294134192744
544,0.194524422587194
545,0.193151366812062
546,0.19421657492037
547,0.194132013840178
548,0.194047452759986
549,0.193962891679794
550,0.192336152295702
551,0.193879981496711
552,0.195886643642544
553,0.193697639593233
554,0.192932177629951
555,0.19442595837011
556,0.192015468389001
557,0.191671541248908
558,0.190491561196147
559,0.188403953362929
560,0.191012501843159
561,0.187796400308267
562,0.191132073332411
563,0.188312446374687
564,0.189345982202549
565,0.187123283141738
566,0.185545237746576
567,0.184212427177433
568,0.185476654714245
569,0.182804502803346
570,0.183137634135153
571,0.183803364007976
572,0.183995173135215
573,0.183729472690581
574,0.185195249773272
575,0.183218457197277
576,0.183845169474212
577,0.184471881751147
578,0.185098594028082
579,0.185725306305017
580,0.186352018581952
581,0.189249817997344
582,0.188184186167211
583,0.189801836091501
584,0.186765591385054
585,0.186226279997701
586,0.182043367000777
587,0.179527526100645
588,0.177989798181218
589,0.176452070261791
590,0.174914342342364
591,0.175682119660842
592,0.178055054377918
593,0.178091448855563
594,0.181755113901936
595,0.180451166593127
596,0.182798681319245
597,0.183992013614171
598,0.183920265143247
599,0.184767354208915
600,0.186267916926945
601,0.187215448221959
602,0.188712753150301
603,0.187801598164815
604,0.190937242619915
605,0.189306664290537
606,0.190222202413823
607,0.189512398981311
608,0.187008751656293
609,0.187320392437792
610,0.186311855033157
611,0.185554711325613
612,0.183986864521117
613,0.18396628162854
614,0.181761119925382
615,0.184653974543377
616,0.182486605317348
617,0.183916447262849
618,0.184425142310196
619,0.185267522486794
620,0.184945164932698
621,0.185923622581443
622,0.183455721247129
623,0.182820724502275
624,0.18193432093491
625,0.181047917367546
626,0.180161513800181
627,0.18073458363303
628,0.179783772262458
629,0.17975943010568
630,0.1815993167943
631,0.179314438711938
632,0.180329258911604
633,0.181814973367897
634,0.182384811759569
635,0.182930307238638
636,0.181043481476713
637,0.183805712890556
638,0.182945272635173
639,0.183867709617257
640,0.182580099318023
641,0.182254117980577
642,0.181229822348496
643,0.180351116945729
644,0.179472411542961
645,0.178593706140194
646,0.17866315062426
647,0.179314426748714
648,0.175792759975584
649,0.178706302931191
650,0.17742868259268
651,0.178898854741988
652,0.176673452157364
653,0.174128490189956
654,0.172017230106833
655,0.173221062169544
656,0.171345507600123
657,0.173365501350481
658,0.175801148145135
659,0.179758458022129
660,0.181662576957257
661,0.182705330163395
662,0.18384506696469
663,0.183275601238437
664,0.182193467557962
665,0.183168816605877
666,0.183404018228578
667,0.184467912305689
668,0.184396156416551
669,0.181176299973151
670,0.182590693266726
671,0.182009703298329
672,0.181797880495176
673,0.181996802598622
674,0.182844427938687
675,0.182724424263669
676,0.182591919089894
677,0.183888688021485
678,0.18189326252529
679,0.182135539609055
680,0.1861464651007
681,0.183391576784347
682,0.179815524685687
683,0.176709460701848
684,0.170596061194942
685,0.166783810098293
686,0.163225741307706
687,0.160609298544969
688,0.159930516253226
689,0.160795352761713
690,0.162854731085929
691,0.166545876340221
692,0.167927479110673
693,0.170150814547573
694,0.172394470852959
695,0.172978215091542
696,0.1761623640491
697,0.177884898420145
698,0.176516051961095
699,0.177706539698959
700,0.181121181421999
701,0.180464140096836
702,0.18399459648472
703,0.185229913256234
704,0.188678672882845
705,0.189679780614694
706,0.193451560358931
707,0.195721709331636
708,0.197396210801311
709,0.200057317221735
710,0.199374137661145
711,0.199597388682187
712,0.201321155260258
713,0.193644401833211
714,0.191539636166554
715,0.182178868851843
716,0.175066236136008
717,0.1699044053866
718,0.169326905993734
719,0.17039448343957
720,0.172754949538004
721,0.172518028850599
722,0.177836542545976
723,0.177661376560285
724,0.177980770089808
725,0.179218153544303
726,0.17877654141661
727,0.183337206739737
728,0.186141676247572
729,0.190534738829905
730,0.196242237314084
731,0.202144733511491
732,0.208611023694028
733,0.215910705611963
734,0.219820791807298
735,0.22332474979368
736,0.226740033893547
737,0.228861838124212
738,0.230983642354878
739,0.233105446585544
740,0.237902314709643
741,0.240005366754987
742,0.242379016081661
743,0.244752665408334
744,0.247126314735008
745,0.248314470543027
746,0.248770945110428
747,0.250725688950021
748,0.248370224754436
749,0.250110529051648
750,0.25061334551184
751,0.250549601263608
752,0.253506195461454
753,0.252573810287737
754,0.249791542064412
755,0.234461237001871
756,0.21913093193933
757,0.203800626876788
758,0.17821248529703
759,0.155783272159145
760,0.140543071898332
761,0.13879490787019
762,0.143434386216512
763,0.154887604738169
764,0.170408780216335
765,0.18545841460797
766,0.20425195020238
767,0.221840715399447
768,0.231309828685258
769,0.239075691404317
770,0.245955032345499
771,0.248313384725392
772,0.251430550607467
773,0.254907253230314
774,0.253469210381285
775,0.253486401334105
776,0.254417542596432
777,0.251795112836299
778,0.256818125587337
779,0.253440767495243
780,0.256139006611838
