"wavelength","measurement"
380,0.0291709961883949
381,0.0292677180000345
382,0.0294588261717028
383,0.0296516338854443
384,0.0308365595104511
385,0.0326427992683235
386,0.035320569493047
387,0.0384078015185085
388,0.041176489367685
389,0.0427429507215773
390,0.0448041537953853
391,0.0455423676275484
392,0.048394061635737
393,0.0503977976427473
394,0.0534327401185697
395,0.0593982415785399
396,0.0681487671318079
397,0.0795440666112743
398,0.0909393660907407
399,0.102334665570207
400,0.110080415595171
401,0.120031791216456
402,0.12820439094611
403,0.133800517487483
404,0.13856376393867
405,0.14307791151347
406,0.150879195818716
407,0.155728997347695
408,0.161665773252533
409,0.169056002562245
410,0.181810460664954
411,0.184706652670551
412,0.19385741021849
413,0.200863111158304
414,0.203855415199611
415,0.209193476373591
416,0.210837193007414
417,0.21128180952637
418,0.216110068798863
419,0.214847161244302
420,0.220937439099166
421,0.221725888090148
422,0.224024611477687
423,0.228020806696711
424,0.228531035487802
425,0.224983463119204
426,0.223192233092197
427,0.218643425481381
428,0.212210344098483
429,0.212163371181711
430,0.21308891667042
431,0.220761493392862
432,0.228573631721341
433,0.236471354087583
434,0.246726751570323
435,0.252595418197388
436,0.254151669142769
437,0.258565030971347
438,0.262978392799925
439,0.267391754628503
440,0.269718728309701
441,0.274059402182343
442,0.281794804316628
443,0.283404437230301
444,0.287611517822891
445,0.29181859841548
446,0.29602567900807
447,0.300016637654647
448,0.300750265871155
449,0.310656116358835
450,0.308543102580053
451,0.306489631369848
452,0.305485392641831
453,0.304481153913815
454,0.303476915185799
455,0.303312543030147
456,0.303078244292475
457,0.306116470201988
458,0.308912529407898
459,0.313170993367056
460,0.313576202033058
461,0.311182266831165
462,0.319620565998986
463,0.311936475352993
464,0.30924774199931
465,0.307845587457066
466,0.304565532042943
467,0.304666195387152
468,0.304269241299126
469,0.302133592691864
470,0.3101136162663
471,0.31077711451535
472,0.313642295775674
473,0.319333973278688
474,0.321855126424652
475,0.327830100081596
476,0.322327331792804
477,0.323763907410225
478,0.325200483027646
479,0.326637058645067
480,0.32710748779564
481,0.319468862932475
482,0.315013043270539
483,0.313663449794156
484,0.306372027081344
485,0.299536072592148
486,0.302730607669904
487,0.305094791661022
488,0.308087656731398
489,0.316479447657746
490,0.318335864745007
491,0.320649023174732
492,0.327812988926094
493,0.324794832923604
494,0.329126530677653
495,0.325365947699863
496,0.326470311990127
497,0.320434250401311
498,0.321723154982033
499,0.31483266080754
500,0.316004536174591
501,0.312855981049529
502,0.317725452811805
503,0.319432696455859
504,0.315104229106319
505,0.324397263914558
506,0.322881555000409
507,0.323516495714319
508,0.324396995479313
509,0.324086867219155
510,0.317949787488193
511,0.321353398013607
512,0.318564621389821
513,0.308695989796607
514,0.305747303031574
515,0.298991037913184
516,0.296256003084314
517,0.294167705942003
518,0.291931189875213
519,0.295945943888265
520,0.301822466340692
521,0.304004039413638
522,0.306185612486584
523,0.308367185559531
524,0.306234952394448
525,0.305204662975365
526,0.305697828332455
527,0.303441662149138
528,0.303426349296453
529,0.306789215377476
530,0.30610595387458
531,0.305866527358389
532,0.304791945708421
533,0.306422327342603
534,0.306038171129654
535,0.3030469875462
536,0.305041774775646
537,0.302819546881531
538,0.299631050978582
539,0.297689941080254
540,0.298938855078226
541,0.296784886073612
542,0.294633512290847
543,0.296756372672082
544,0.297282045438422
545,0.295297977406849
546,0.297052820935468
547,0.296812908448815
548,0.296572995962162
549,0.296333083475509
550,0.293723603485166
551,0.295733893751452
552,0.298209430755802
553,0.294463552086601
554,0.293757964476604
555,0.295944866815872
556,0.291737560625873
557,0.290408984031083
558,0.288396854887672
559,0.285053875206568
560,0.288554326476028
561,0.283576771480403
562,0.288075352330782
563,0.284153841895094
564,0.285350857569965
565,0.282232994950652
566,0.280311761830301
567,0.277228055094092
568,0.279582858145852
569,0.276679477111796
570,0.276803754436346
571,0.277913079932488
572,0.277958306413243
573,0.278284633921881
574,0.281123163752037
575,0.277647563508637
576,0.279099828352977
577,0.280552093197316
578,0.282004358041655
579,0.283456622885995
580,0.284908887730334
581,0.289444877988462
582,0.288302022330714
583,0.291078417295252
584,0.286904351131499
585,0.287220060917552
586,0.280224995328409
587,0.276683586473979
588,0.274778120550082
589,0.272872654626185
590,0.270967188702288
591,0.272597118983218
592,0.276448528897552
593,0.277476105300558
594,0.282985456635477
595,0.281590388899085
596,0.284628254470498
597,0.286028584568359
598,0.287017616747503
599,0.28800406249963
600,0.29060970277756
601,0.292131298265804
602,0.293911426791607
603,0.293237867560001
604,0.29684566941914
605,0.295575188015943
606,0.296691491152724
607,0.296032454045496
608,0.292425445406451
609,0.292629981312328
610,0.29094592199809
611,0.290321748105322
612,0.287849485977578
613,0.28721973061891
614,0.284848055410673
615,0.289186170986692
616,0.285181457867437
617,0.288207907135917
618,0.288481573856965
619,0.289940752363195
620,0.289496174919549
621,0.291153629839606
622,0.286644614000646
623,0.28648136275031
624,0.285140051625529
625,0.283798740500748
626,0.282457429375967
627,0.282365265387926
628,0.281992298144933
629,0.28183537858536
630,0.283942362141602
631,0.280640886127524
632,0.282553489530211
633,0.285095663078904
634,0.285339350350451
635,0.286871576752861
636,0.284741096725918
637,0.287559044654678
638,0.286334853466691
639,0.287730791496564
640,0.286702194993441
641,0.286481432081573
642,0.285258483058146
643,0.283809675206212
644,0.282360867354279
645,0.280912059502345
646,0.2818621815928
647,0.282370750945557
648,0.276846297464129
649,0.281991730832776
650,0.279443281801167
651,0.282421638935201
652,0.279325451906642
653,0.275417856051335
654,0.270759459728063
655,0.274395359142273
656,0.2706477767457
657,0.274782824074963
658,0.278412518830469
659,0.284749597678333
660,0.288014423770379
661,0.289724564624914
662,0.291262011225126
663,0.290509970728824
664,0.289141297553579
665,0.290851130453017
666,0.291653135991278
667,0.292492553060815
668,0.293391949348944
669,0.287884075202585
670,0.289478053469823
671,0.289533083285004
672,0.288084255532879
673,0.288862404943174
674,0.289938103010957
675,0.289495419194378
676,0.289620789035548
677,0.291141636825444
678,0.288369256793437
679,0.287872287803671
680,0.294589662361493
681,0.289306414996006
682,0.282962811663337
683,0.278638218005476
684,0.268776067709553
685,0.261592263436012
686,0.256185085792257
687,0.250296609950914
688,0.249184072354263
689,0.249694521633729
690,0.252702842410892
691,0.258225081674204
692,0.258943916682394
693,0.261674645802076
694,0.263937491324966
695,0.263874761846853
696,0.268088888234065
697,0.269316333122623
698,0.265643679963869
699,0.265752137302542
700,0.270231032073037
701,0.267718066081191
702,0.272979018379863
703,0.273127464929591
704,0.277712445415232
705,0.277555229508067
706,0.280726515114944
707,0.283995635427586
708,0.284246310428172
709,0.288300695426788
710,0.285565503436532
711,0.285665446898836
712,0.286326828106312
713,0.275592247052419
714,0.270593292484751
715,0.256568973333056
716,0.24511900901473
717,0.236866278096091
718,0.235008404960907
719,0.236282594372801
720,0.238484750126231
721,0.237738835326454
722,0.243990210691224
723,0.242750934633128
724,0.243205316510318
725,0.244337180317385
726,0.242856292217905
727,0.247469893824412
728,0.250882383573173
729,0.256747075543543
730,0.26261246314608
731,0.271148608364296
732,0.279105176129227
733,0.288290767992133
734,0.293946819326028
735,0.296198534593468
736,0.301429116120791
737,0.303641259221497
738,0.305853402322202
739,0.308065545422908
740,0.315096759808906
741,0.317432438767993
742,0.320384842904224
743,0.323337247040455
744,0.326289651176686
745,0.328062193219511
746,0.328186462640878
747,0.33158345173715
748,0.327509265463719
749,0.330947190739692
750,0.331497652911969
751,0.330792454028621
752,0.335416064670399
753,0.33390863186032
754,0.330683993975835
755,0.310425049435472
756,0.290166104895109
757,0.269907160354746
758,0.235877728916578
759,0.206625169948806
760,0.18690729107644
761,0.184093080032612
762,0.190448454859382
763,0.205614484374611
764,0.22690608409164
765,0.247341720530218
766,0.272141674494991
767,0.295946165986333
768,0.309048177078745
769,0.31860889465718
770,0.327042019132727
771,0.33093964015816
772,0.334355999235338
773,0.340375025427563
774,0.337432311655704
775,0.338564042630913
776,0.338743967522236
777,0.335551047443424
778,0.340121797070037
779,0.336782754106519
780,0.341201397969795
