"wavelength","measurement"
380,0.00848580157143505
381,0.00866754977486835
382,0.00868890351315474
383,0.00861905943345274
384,0.0088110234584779
385,0.00900522102024685
386,0.0100695887453692
387,0.0105698726096999
388,0.0116228982630949
389,0.0125045011623433
390,0.0124284779104613
391,0.0125201037965937
392,0.0130533843557991
393,0.013281600392512
394,0.0144025985197859
395,0.0150622910116922
396,0.0175149852482061
397,0.0199712695920082
398,0.0224275539358103
399,0.0248838382796124
400,0.026511747013324
401,0.028869264585748
402,0.0300324101868597
403,0.0315624979878144
404,0.0326137343707504
405,0.0337565876479893
406,0.034590904481003
407,0.036321980562225
408,0.0374856337084221
409,0.0388922484183325
410,0.041827088192923
411,0.0421785736865772
412,0.0440025100296846
413,0.0461984192375515
414,0.0463587116062321
415,0.0480889346022591
416,0.0481144350464406
417,0.0485578191723876
418,0.0492055944347278
419,0.0493251093700529
420,0.0507108555893201
421,0.0511714822278673
422,0.051958274553295
423,0.0521604445050175
424,0.0523249750406152
425,0.0522585773921514
426,0.0523183613306024
427,0.0509694104435091
428,0.04973807411849
429,0.0495882607388874
430,0.0497939434174732
431,0.0520706733368829
432,0.054070886643594
433,0.0562720556042514
434,0.0586444887219292
435,0.0600109468977847
436,0.0609852997479498
437,0.0621423878972994
438,0.063299476046649
439,0.0644565641959985
440,0.0655109793882206
441,0.067396016557575
442,0.0687393927271132
443,0.0699427994410382
444,0.0713280331135547
445,0.0727132667860712
446,0.0740985004585876
447,0.0759212088396809
448,0.0764819023502908
449,0.0798163975719852
450,0.0798243932109251
451,0.0797585388470503
452,0.0799672728176503
453,0.0801760067882504
454,0.0803847407588504
455,0.0806378566304199
456,0.0805326486474473
457,0.0817258935433957
458,0.0827567385428606
459,0.0842798828425792
460,0.0847552319332379
461,0.0840998289845018
462,0.0871124880251374
463,0.0847293592753238
464,0.0842648975159647
465,0.0838533499927301
466,0.08321441088251
467,0.083450268733769
468,0.0829700338658254
469,0.0824174705339287
470,0.0841798313212027
471,0.0847646667420776
472,0.0852745784800181
473,0.0868837998295309
474,0.0872893649331593
475,0.0891073104973039
476,0.0876444742555454
477,0.0879168707718515
478,0.0881892672881577
479,0.0884616638044638
480,0.0884036516412769
481,0.086389408236247
482,0.0853877145774421
483,0.0851584985001674
484,0.0828607608161698
485,0.0813896395381194
486,0.0822010884884459
487,0.083018048664257
488,0.0837927518982499
489,0.086396989227993
490,0.0868594342698864
491,0.0882154791732926
492,0.0903016181482782
493,0.0895562135038302
494,0.0911816651189333
495,0.0900693473051099
496,0.0908688540694668
497,0.0892631542724716
498,0.0898371892592637
499,0.0884304311009931
500,0.0891274829892419
501,0.0881303141664118
502,0.090160537061009
503,0.0905279205269772
504,0.0902159522220233
505,0.092864710518823
506,0.0925858020673389
507,0.0933225062930514
508,0.093863217171673
509,0.0939846164316837
510,0.0927329305096932
511,0.0939174122843581
512,0.0931562141632411
513,0.0907350088566552
514,0.0902831861405241
515,0.0886228781408602
516,0.0879400664983199
517,0.0878859394764614
518,0.0875178679724092
519,0.0895018143904555
520,0.0908466761511338
521,0.0919088943930107
522,0.0929711126348875
523,0.0940333308767644
524,0.0938619741791772
525,0.0940604385071839
526,0.0945910185642467
527,0.0938556906598648
528,0.0943355587586265
529,0.0953003306986848
530,0.0956341580576921
531,0.0960688596105364
532,0.0957475999226563
533,0.0962426102362647
534,0.096831024588287
535,0.095909834400773
536,0.0967446205671919
537,0.0958815502078714
538,0.0953204516682313
539,0.0946265855879891
540,0.0954056897252
541,0.0946338506390136
542,0.0941516573017476
543,0.0948193462007081
544,0.0952139504424859
545,0.0945726132713709
546,0.095371764227843
547,0.0952993845251447
548,0.0952270048224464
549,0.0951546251197481
550,0.0944803574642941
551,0.0952154548972671
552,0.0954990584101129
553,0.0949634836116605
554,0.094614384095583
555,0.0956620958766975
556,0.0943351208585268
557,0.0940121638984312
558,0.0934228704986346
559,0.0927078929212019
560,0.0936988781620996
561,0.0922941417512954
562,0.0942488006830408
563,0.0927357332984569
564,0.0933526981909365
565,0.0922251661840475
566,0.0917609916098117
567,0.090673835453763
568,0.0914741778878159
569,0.090411266915701
570,0.0903537764871944
571,0.0907835200601057
572,0.0907698923948655
573,0.0908639227071681
574,0.0914471356837327
575,0.0904495584525728
576,0.0906844735252441
577,0.0909193885979154
578,0.0911543036705866
579,0.0913892187432579
580,0.0916241338159293
581,0.0926402430220956
582,0.0922717098830799
583,0.0926215893732481
584,0.0911002579624312
585,0.0905933883552437
586,0.088238210545691
587,0.086930111197501
588,0.0859187531848582
589,0.0849073951722153
590,0.0838960371595724
591,0.0844437863127177
592,0.0850031541631737
593,0.0852386069797179
594,0.0862209171210999
595,0.0861956052939055
596,0.0866423145983242
597,0.0870654827097509
598,0.0868759994022223
599,0.0870215155241769
600,0.0876032775481395
601,0.0880027056874
602,0.0883612025812995
603,0.0876756687893009
604,0.0887441698043002
605,0.0880530559284329
606,0.0882758175152371
607,0.0877057954735472
608,0.0867402656015365
609,0.0864951588192903
610,0.085907311519768
611,0.0854431815848141
612,0.0845836156979268
613,0.0843661998192122
614,0.0831576433523436
615,0.084206541558622
616,0.082828734162743
617,0.0835249798220481
618,0.0831703559456183
619,0.0833896199253668
620,0.0831894083818468
621,0.083490681546794
622,0.0819445856762221
623,0.0815818805629261
624,0.0809386926437582
625,0.0802955047245904
626,0.0796523168054225
627,0.0796125114865474
628,0.0790477744307971
629,0.0786416177120396
630,0.0792746106384812
631,0.0783246509738287
632,0.0784143542698646
633,0.0787998211755905
634,0.078654441085328
635,0.0789528845021688
636,0.0782204849426751
637,0.0788948961345219
638,0.0783104276986931
639,0.0785260654609728
640,0.0777250613264518
641,0.0773788495538895
642,0.0769046120521964
643,0.076167720695522
644,0.0754308293388476
645,0.0746939379821732
646,0.0749944900253674
647,0.0747136821465821
648,0.0731795938444707
649,0.0742824721541129
650,0.0731574117019018
651,0.0738504705956514
652,0.0727190109111794
653,0.0715660347548823
654,0.0701573025643931
655,0.0708253861615658
656,0.0694869120745236
657,0.0701755936207211
658,0.0709292486489462
659,0.0726623688039066
660,0.0729228266338882
661,0.0730051644116593
662,0.073392995236948
663,0.0726348035478572
664,0.0722801589047734
665,0.0724631045470646
666,0.0723054405372881
667,0.072378763937507
668,0.0723778590199042
669,0.0709764680830895
670,0.0708478662163661
671,0.0708424214558277
672,0.0700748763392694
673,0.0702655057088889
674,0.0701435964373186
675,0.0697969572312952
676,0.069362352299979
677,0.0699558866646228
678,0.0687263320702588
679,0.0686659592045996
680,0.0698117159274981
681,0.0682820907689257
682,0.0668066366755751
683,0.0652262995192225
684,0.0626540244508094
685,0.0610163232010751
686,0.0592277757177745
687,0.0579610382379586
688,0.0571512758082123
689,0.0570533484017042
690,0.0576677135539557
691,0.0585762749736068
692,0.0583827919951668
693,0.0584423862624306
694,0.0591869236730561
695,0.0588565695480932
696,0.0596486304143569
697,0.0595917897688956
698,0.0586034427473265
699,0.0585572471073667
700,0.0590168588534144
701,0.0583362391103069
702,0.0587530813803924
703,0.0588988925263886
704,0.0595852501719086
705,0.0593226710496278
706,0.0597146172841345
707,0.0597650677930321
708,0.0599678338350673
709,0.0601205084432764
710,0.0593487211703848
711,0.0589016833992076
712,0.058813789178572
713,0.0560608416350525
714,0.054909376986537
715,0.0514907205900852
716,0.0488021556435146
717,0.0466781004302952
718,0.0461350203910225
719,0.0454444949255776
720,0.0465013926967348
721,0.0453861905992775
722,0.0463340525023732
723,0.0458417333811884
724,0.0455808459778082
725,0.0451409249844156
726,0.0447034645952918
727,0.0450718389894638
728,0.0454683754046792
729,0.0464421057546333
730,0.0468003264198262
731,0.0478353754457833
732,0.0491798741285858
733,0.0502831667015563
734,0.0508364164597618
735,0.0509005132365846
736,0.0514444951118659
737,0.051472055285586
738,0.0514996154593062
739,0.0515271756330263
740,0.0520252029236168
741,0.0523158510163473
742,0.0522260598074413
743,0.0521362685985353
744,0.0520464773896293
745,0.0522642487849174
746,0.0517858562239346
747,0.0520782191417247
748,0.051127082586722
749,0.0512627946174977
750,0.0512940487962413
751,0.0505370236605349
752,0.0505543806803029
753,0.0498974692954689
754,0.049231727972211
755,0.046032727942296
756,0.0428337279123811
757,0.0396347278824661
758,0.0345701510628389
759,0.030287903280087
760,0.0267047456952704
761,0.0260177214876297
762,0.0268598439085954
763,0.0283627981168466
764,0.0310547171550713
765,0.0338243386117836
766,0.0375645780355171
767,0.0398918411254278
768,0.0422315812635542
769,0.0433221177077093
770,0.0439446288613028
771,0.0441800238116837
772,0.0443571778194892
773,0.0454584993423957
774,0.0443687404418575
775,0.0440496081107762
776,0.0445592824621975
777,0.0434642252011662
778,0.0440310494108305
779,0.0432712186284217
780,0.0438639564522754
