"wavelength","measurement"
380,0.0088801927181504
381,0.00882268084250406
382,0.00848623007270917
383,0.00847428175499587
384,0.00847933961770522
385,0.00895988677050065
386,0.00957807676926454
387,0.0102317251446313
388,0.0107868186512925
389,0.0110394587182758
390,0.0112517016294069
391,0.0111700721127029
392,0.0116304462494331
393,0.0116126970789985
394,0.0119592979828999
395,0.0129088570106387
396,0.0144290609736358
397,0.0162119545300669
398,0.017994848086498
399,0.0197777416429291
400,0.0212132628497697
401,0.022323320889747
402,0.0233703323930978
403,0.0237862968919336
404,0.0243073116742421
405,0.0244181200113857
406,0.0252235687533705
407,0.0256050741159701
408,0.0260570648675639
409,0.0265496722888284
410,0.0279659305634124
411,0.0282483707739389
412,0.0292858326805879
413,0.0300464617035935
414,0.0301425414959826
415,0.0304865519807736
416,0.0303175799481593
417,0.0304581463606888
418,0.0305547273998485
419,0.0304505105079707
420,0.0311723912589573
421,0.0311843379151663
422,0.0312891111123284
423,0.0317593156732884
424,0.0322842030482709
425,0.0312648867087633
426,0.031380794202649
427,0.0307235308345754
428,0.0297468088130263
429,0.0298143275350447
430,0.0301374652860161
431,0.031189392422362
432,0.0323242054872531
433,0.033448107220973
434,0.0349172658944675
435,0.0355653506153921
436,0.0361431728106896
437,0.0367791182237215
438,0.0374150636367535
439,0.0380510090497854
440,0.0382736724050135
441,0.0390960477512958
442,0.0400547727542009
443,0.0407261607960739
444,0.0413454343024474
445,0.0419647078088209
446,0.0425839813151944
447,0.0433707351092944
448,0.043685156668184
449,0.0453180452227423
450,0.04511572542571
451,0.0449839602216061
452,0.0449871368733098
453,0.0449903135250136
454,0.0449934901767173
455,0.0451562659282526
456,0.0452549600319352
457,0.0457314734928424
458,0.0461443349352214
459,0.0468609240688988
460,0.0468472315727268
461,0.04640660227529
462,0.0478277388477462
463,0.0467820575966595
464,0.0462678699917475
465,0.0460045754361206
466,0.0453894348150611
467,0.0453596082057902
468,0.0450891146619166
469,0.0450550729463025
470,0.0457773454086384
471,0.0458267560701101
472,0.0463514676852598
473,0.0469445089564976
474,0.0472397140723859
475,0.0478232640824036
476,0.0470715151551518
477,0.047152699181544
478,0.0472338832079362
479,0.0473150672343284
480,0.0472528128064872
481,0.0462707052469312
482,0.0453973113537684
483,0.0453830534125046
484,0.0441621160050345
485,0.0432909638656482
486,0.0437251383763137
487,0.0442364146019094
488,0.0445845046257927
489,0.0459781463010577
490,0.0462856118439744
491,0.0467656428225182
492,0.0481095091604576
493,0.0476423225351635
494,0.0485022896357794
495,0.0479890373391085
496,0.0484349312395934
497,0.0474869026364574
498,0.0482063585997874
499,0.0472531978777721
500,0.0476457011204059
501,0.0473659064397893
502,0.0481925483271254
503,0.0486084081689414
504,0.0484237162188695
505,0.0501539877221776
506,0.0500752101059888
507,0.0506088499337208
508,0.0509850000161776
509,0.0512212260336803
510,0.0505508231187592
511,0.0515377834311827
512,0.0513849320006224
513,0.0501302548306721
514,0.0502407062602868
515,0.0495238131493974
516,0.0494865782271371
517,0.0496954883873218
518,0.0497618804928123
519,0.0512016434196218
520,0.0523592371311812
521,0.0532581579445549
522,0.0541570787579285
523,0.0550559995713021
524,0.0551536252921003
525,0.0554908951857471
526,0.0560497228898506
527,0.0560487133897219
528,0.0565904740974883
529,0.0576907787314375
530,0.0579090543454774
531,0.0583985379105931
532,0.0584175027795282
533,0.0590133551909447
534,0.0595433071851917
535,0.0589856763792745
536,0.0598742873637411
537,0.0596721488740663
538,0.0593225980233169
539,0.0591730459760372
540,0.05956628985983
541,0.0594484853147479
542,0.0592127875750278
543,0.0598417693051769
544,0.0602340594982184
545,0.060068126943692
546,0.0607207724614734
547,0.0608015920065915
548,0.0608824115517096
549,0.0609632310968276
550,0.0606563121026087
551,0.0613767777335707
552,0.0621314252068835
553,0.0616701262091438
554,0.0616005798134886
555,0.0621708399565964
556,0.0614228750974683
557,0.0612921030789482
558,0.0610932565866258
559,0.0606193762070352
560,0.0614693842760019
561,0.0605219582349604
562,0.0616854532497134
563,0.0605565062674511
564,0.0609425991379955
565,0.0603382053453479
566,0.0599168920807775
567,0.0592245877704828
568,0.0597901539412716
569,0.0589771356098897
570,0.059034571741171
571,0.0592094926223277
572,0.0591359364927696
573,0.0589809950324233
574,0.0594590399922686
575,0.0587018557097559
576,0.0589049782171112
577,0.0591081007244665
578,0.0593112232318218
579,0.059514345739177
580,0.0597174682465323
581,0.0604221456281177
582,0.0599205828144584
583,0.060367338384109
584,0.0592901456326142
585,0.0593794525696717
586,0.0576441635553482
587,0.0566822995707218
588,0.0561609779854312
589,0.0556396564001407
590,0.0551183348148501
591,0.055266636169032
592,0.0560609432791245
593,0.0561500225773131
594,0.0572094558577492
595,0.0568412344209841
596,0.0572951982150608
597,0.0576761776386832
598,0.0578228145129712
599,0.0578275773632665
600,0.0583984024551613
601,0.0587587038404179
602,0.0591066276698751
603,0.0588303907562841
604,0.0593975631114275
605,0.059104460116937
606,0.0593453128106943
607,0.0590385467292974
608,0.0583046928720329
609,0.058406331596928
610,0.0578079791917962
611,0.0577228040795298
612,0.057254222458402
613,0.0570967975508799
614,0.0564222513386112
615,0.0571737855650396
616,0.0564040147288031
617,0.0569552418775749
618,0.0569758343165107
619,0.0571542919730551
620,0.056956603930133
621,0.057314951570185
622,0.0563140673870008
623,0.0564511172546758
624,0.0560729527502768
625,0.0556947882458777
626,0.0553166237414787
627,0.0554318918123343
628,0.0553661911124216
629,0.0553905497650114
630,0.0557998604960403
631,0.0550056812753918
632,0.0555018701001965
633,0.055991367078821
634,0.0559429216849007
635,0.0563243613556351
636,0.055817580317054
637,0.0564059266171509
638,0.0560824343209043
639,0.0562657941033546
640,0.055825375833644
641,0.0557558430188398
642,0.0556198328966843
643,0.0551601024133841
644,0.0547003719300839
645,0.0542406414467837
646,0.0546264030832947
647,0.0542793286849815
648,0.05344010599793
649,0.0544018539023572
650,0.0536444086677074
651,0.0542417501287961
652,0.0536285518215129
653,0.0527713072613058
654,0.051978090536636
655,0.0523952687487658
656,0.0518717019865335
657,0.0525122383427974
658,0.0530347411016912
659,0.0544168553984451
660,0.0548154492402907
661,0.0551747756669143
662,0.0554932350871684
663,0.0551340134232056
664,0.0547349667890483
665,0.0549436557123147
666,0.0552155779690882
667,0.0553131640823675
668,0.0555151196574464
669,0.0544296291771496
670,0.0545955723666521
671,0.0545955172304999
672,0.054395854914524
673,0.054589053690609
674,0.0547937716385329
675,0.0547189907111848
676,0.0548961567213035
677,0.0552144736204257
678,0.0546210362877959
679,0.0547029028186073
680,0.0559392312099166
681,0.0551593007879456
682,0.0542281031405638
683,0.053277146279172
684,0.0515847819492622
685,0.0505219071810576
686,0.0495553630327959
687,0.0487552703306486
688,0.0485557409423338
689,0.049109464443449
690,0.0502463778313238
691,0.0516062175615931
692,0.0523647428791697
693,0.053227137880467
694,0.0546472819786321
695,0.0549551427475063
696,0.0564313520938506
697,0.0574792309631262
698,0.0572279399448218
699,0.0582104705443712
700,0.0596420847291732
701,0.0600920306624464
702,0.0616761897812915
703,0.0626569579817652
704,0.0647290209867859
705,0.065439285532456
706,0.0669374905961311
707,0.0685758642598228
708,0.0694035795529791
709,0.0710492837905673
710,0.0712037430325368
711,0.0720509491741628
712,0.0731884569021887
713,0.0710312043604086
714,0.0701726086442811
715,0.0674425301359981
716,0.064943386123046
717,0.0637358093901501
718,0.0636175101302907
719,0.0647992467704703
720,0.0666166097950878
721,0.06683439994727
722,0.069463980197193
723,0.0700218038609934
724,0.070485495043444
725,0.0715193859699875
726,0.0723678092365433
727,0.0743011672424091
728,0.0760030557641324
729,0.0789089882844872
730,0.0813827008946831
731,0.0847054524225637
732,0.0881306084412213
733,0.0919045865821406
734,0.0944155374207307
735,0.0959401396900257
736,0.0980569712735666
737,0.099708081052215
738,0.101359190830863
739,0.103010300609512
740,0.105600415796362
741,0.106817378756604
742,0.108295972169714
743,0.109774565582825
744,0.111253158995935
745,0.112129350262789
746,0.112554087323352
747,0.113857599095244
748,0.11275516590303
749,0.114177234408044
750,0.114597530190285
751,0.114325539297682
752,0.116431246511685
753,0.1155441354949
754,0.114599649177208
755,0.107493543869938
756,0.100387438562669
757,0.0932813332553994
758,0.0817699790330903
759,0.0712556419331704
760,0.0638094674791797
761,0.0624948008181358
762,0.0647872311015937
763,0.0700915561929926
764,0.0776070834446763
765,0.0850061253016078
766,0.0935433254480317
767,0.101647938720527
768,0.106899415393164
769,0.110409804914852
770,0.113328972087889
771,0.114415627116598
772,0.116159243032961
773,0.117783634260156
774,0.117027070628206
775,0.117146242983297
776,0.118067408286304
777,0.116563690642339
778,0.118453878655258
779,0.11715210744322
780,0.118696297396774
