"wavelength","measurement"
380,0.00777308778220226
381,0.0075241395934997
382,0.00756126529286326
383,0.00756426300548476
384,0.00800482732433084
385,0.00841498653704618
386,0.00915438973655092
387,0.00968291505204982
388,0.0102416483215731
389,0.0108869230209867
390,0.0112610634872367
391,0.0116376426901733
392,0.011541396632536
393,0.0116939261422332
394,0.011819722154767
395,0.0135703974394345
396,0.0151364709169608
397,0.0172522074842548
398,0.0193679440515488
399,0.0214836806188428
400,0.0227300785093004
401,0.0245880401114167
402,0.0258744222504044
403,0.0268158555958469
404,0.0273406473765254
405,0.0282069686459242
406,0.0292042053944961
407,0.0302854606317538
408,0.030951205041446
409,0.0325138197894643
410,0.0345588637763144
411,0.0351307015554074
412,0.0366336648173323
413,0.0382035245068682
414,0.0383090780288916
415,0.0390450687209829
416,0.0394874676176702
417,0.0394571181227899
418,0.0400666177553485
419,0.0401489825938261
420,0.040887682119493
421,0.0413904800340155
422,0.0417183314213169
423,0.0423444463872102
424,0.0429430499879542
425,0.0423945221260639
426,0.0421226705122666
427,0.0410882941433255
428,0.0401030997005295
429,0.0401799987645519
430,0.0405497125985251
431,0.042039479046711
432,0.0437758757317062
433,0.0452466620844977
434,0.0470280064975752
435,0.0484612745763044
436,0.0491846464821341
437,0.0501535665339976
438,0.0511224865858612
439,0.0520914066377247
440,0.0524024440033759
441,0.0536623449531015
442,0.0549854318276761
443,0.0561504439881754
444,0.0572850527152027
445,0.05841966144223
446,0.0595542701692574
447,0.0607050545079527
448,0.0615001346145523
449,0.0641248794593031
450,0.0636219763698823
451,0.0635240732324826
452,0.0636191248562568
453,0.063714176480031
454,0.0638092281038052
455,0.0638771137223556
456,0.0639152606939603
457,0.0652840862553127
458,0.0658705629522762
459,0.0667859578042102
460,0.0670592737515602
461,0.066566918538358
462,0.0692789820614642
463,0.0668818292610566
464,0.0666895827501413
465,0.0663428159011464
466,0.0656202931131005
467,0.0659173503132951
468,0.0653050054762035
469,0.0653992071719813
470,0.0662180823434308
471,0.0667055700256471
472,0.0674282928338399
473,0.0680458675943403
474,0.068804944028997
475,0.0697267151326553
476,0.0684393766782086
477,0.0686499975999863
478,0.0688606185217641
479,0.0690712394435419
480,0.068958374893558
481,0.067603907113107
482,0.066699156095677
483,0.0664128694970416
484,0.0648915962106434
485,0.0636475104398477
486,0.0642906775047531
487,0.0650322062599794
488,0.06545773428987
489,0.0673848785169943
490,0.0681308438167335
491,0.068771886387375
492,0.0705074298858935
493,0.0699057708382298
494,0.0711542199512558
495,0.0701260581643114
496,0.0709346064372822
497,0.0696915244826887
498,0.0702860318045297
499,0.0685061261049039
500,0.0690877186265405
501,0.0686615811367608
502,0.0697417476430992
503,0.0705110935263024
504,0.0696856502120964
505,0.0721083896594037
506,0.0718540762101444
507,0.072205944074871
508,0.0727732109778841
509,0.072782572533241
510,0.0715544062097293
511,0.0726817800480954
512,0.0724249297331538
513,0.0704218412459715
514,0.069916139529622
515,0.0687146420897478
516,0.0682524857596492
517,0.0680906281988472
518,0.0679066475038988
519,0.0689067017031627
520,0.0703634465986418
521,0.0712230898366509
522,0.0720827330746601
523,0.0729423763126693
524,0.0723401312884043
525,0.072487250458003
526,0.0727061272767151
527,0.0723498924676805
528,0.0727504728955156
529,0.0737923277470998
530,0.0736948914706691
531,0.0740101774069969
532,0.0738549949743569
533,0.0743350560775532
534,0.0741531447952458
535,0.0736280280270363
536,0.0744078083592976
537,0.0740165205705535
538,0.0734149483317146
539,0.0728339058086857
540,0.0732967739318903
541,0.0729789747485171
542,0.0726063445430062
543,0.0730126273769279
544,0.0732559413860648
545,0.0728762713306445
546,0.0733133297469664
547,0.0731955541735749
548,0.0730777786001834
549,0.0729600030267919
550,0.072089225005554
551,0.072824545246001
552,0.0737009471447519
553,0.0728165789976397
554,0.0724654059121476
555,0.0731692957880412
556,0.0721917010820015
557,0.071995301213879
558,0.0714511287069649
559,0.0711588814051131
560,0.0720328096823717
561,0.0702667113915419
562,0.0719132148867525
563,0.0706847866469518
564,0.0712384970704788
565,0.0702512731970237
566,0.0700352477816562
567,0.0690679233548519
568,0.0696676143879701
569,0.0689797928471756
570,0.068776734353674
571,0.0691049564487309
572,0.0689721755694734
573,0.0689069248450451
574,0.0694206650618695
575,0.0685583245365115
576,0.0687636731003111
577,0.0689690216641106
578,0.0691743702279102
579,0.0693797187917097
580,0.0695850673555093
581,0.0702994440415317
582,0.070034626403604
583,0.0704281892076919
584,0.0689674892354999
585,0.0688286847487345
586,0.0668296295070351
587,0.0657022396596875
588,0.065002687829749
589,0.0643031359998104
590,0.0636035841698719
591,0.0638491935852513
592,0.0647429076581712
593,0.0644006399490108
594,0.0655325241235412
595,0.0652889861375124
596,0.0656899996717432
597,0.0657365553872202
598,0.0658854862171749
599,0.0658094241488251
600,0.0662024884067593
601,0.0665031576214038
602,0.0668159893671431
603,0.0666030278138037
604,0.0667419225709798
605,0.0663286339595643
606,0.0667528171209833
607,0.0664051379540145
608,0.0655888953891038
609,0.0653202772377059
610,0.0649171885292051
611,0.0646323664083686
612,0.0639186964333922
613,0.0635061526080212
614,0.0628134491091129
615,0.0636090385218582
616,0.0626565752356742
617,0.0628587606174644
618,0.0628695537052093
619,0.0628809369716056
620,0.062804557643071
621,0.0628253228715742
622,0.0616284946857369
623,0.0613334345128576
624,0.0609504421829629
625,0.0605674498530682
626,0.0601844575231735
627,0.0598671980888133
628,0.0596115207531332
629,0.0592044620260545
630,0.0597091119276109
631,0.0587824118421813
632,0.0588132320562144
633,0.059076701788305
634,0.0590326819005221
635,0.0590881928479585
636,0.0585923836937037
637,0.0592136711413653
638,0.0586811369701848
639,0.0589185770953983
640,0.0584605178657977
641,0.0581035319581054
642,0.0577813874451189
643,0.0572493248218273
644,0.0567172621985357
645,0.0561851995752441
646,0.0561264607146272
647,0.0560421174253902
648,0.0549964423999564
649,0.0557778929000774
650,0.0548151443606555
651,0.0552111492558999
652,0.0544323368167348
653,0.0533656240068242
654,0.0526002787102962
655,0.0529570836605904
656,0.0517801232130276
657,0.0525890683763088
658,0.0529733212588814
659,0.0543163839328229
660,0.0544005943091117
661,0.0546272257622034
662,0.054838549527909
663,0.0546698160771787
664,0.0540742411767999
665,0.0538655361302582
666,0.0538733162727526
667,0.054078694964977
668,0.0538589531389506
669,0.0527907839191595
670,0.0527542110188454
671,0.0526666458623896
672,0.0523526983223355
673,0.0523881204543844
674,0.0524101735132056
675,0.0518601684999542
676,0.0516668859626768
677,0.0519703824607501
678,0.0513185845965552
679,0.0510594937157025
680,0.0520098820609256
681,0.0507223783845385
682,0.0499544111041345
683,0.0485374488602587
684,0.0468433731900224
685,0.0452250903141941
686,0.044117959448726
687,0.0428511304199782
688,0.0425523056545801
689,0.0423956003588012
690,0.0428443935578476
691,0.0435082468507035
692,0.0436628358515107
693,0.043729144767586
694,0.0442708971173634
695,0.0440516951991378
696,0.0443246170561148
697,0.0444659323757574
698,0.0436377337591163
699,0.0436831509477338
700,0.0442035618807367
701,0.0435498003736994
702,0.0440562504817489
703,0.043962604514276
704,0.044538637649506
705,0.0444469653142677
706,0.0445054831235585
707,0.0451785164868934
708,0.0449517202223191
709,0.0451660699229048
710,0.0446534265929412
711,0.0442703204798612
712,0.0443041287513433
713,0.0419745272416747
714,0.0412951960265733
715,0.0389592300822276
716,0.0369505656100035
717,0.0353658594677078
718,0.0348014097939702
719,0.0345694486788372
720,0.0347298651220032
721,0.0342363202650027
722,0.0350734500064984
723,0.0344637166185175
724,0.0343403729289166
725,0.0342770226651279
726,0.0336602098779541
727,0.0340799141833374
728,0.0342451408182282
729,0.0351079175857766
730,0.0355080291010065
731,0.036364465359433
732,0.0371408092125869
733,0.0380814099854478
734,0.0384185385714458
735,0.0388846194326911
736,0.0389578952175048
737,0.0391292808254149
738,0.0393006664333251
739,0.0394720520412352
740,0.0397497042773896
741,0.0397850215494001
742,0.0397100513189071
743,0.039635081088414
744,0.039560110857921
745,0.0396340736384352
746,0.0394669710726102
747,0.0392473985810904
748,0.0390722994386511
749,0.0388219107510968
750,0.038905748608693
751,0.0379856358660876
752,0.0385247505450982
753,0.038088160439872
754,0.037447879826067
755,0.0351023140179354
756,0.0327567482098038
757,0.0304111824016722
758,0.0259131674352549
759,0.0230975413169898
760,0.0201387001885605
761,0.0197642658252004
762,0.0203331705473559
763,0.0219614617175453
764,0.0241425017557785
765,0.0259592928462128
766,0.0282600263989662
767,0.0306320636062445
768,0.0320819698828283
769,0.0330227703827874
770,0.0336610859417898
771,0.033761299595867
772,0.034147586609194
773,0.0343484319651975
774,0.0339716495329894
775,0.0340021905929293
776,0.0337315603237289
777,0.0332367532485614
778,0.0335169518769384
779,0.033027201447555
780,0.033504997518745
