"wavelength","measurement"
380,0.0334703669589714
381,0.0323879518982963
382,0.0315567751888894
383,0.0307944470402642
384,0.0306847151096511
385,0.0320635784830993
386,0.0335324181573119
387,0.0350562896166047
388,0.0364259297722942
389,0.0368255358351132
390,0.03722900012471
391,0.0364420587464982
392,0.0363963829101386
393,0.036414862219371
394,0.0369690883469833
395,0.0390106724467455
396,0.0424777952206008
397,0.0469471727299248
398,0.0514165502392488
399,0.0558859277485728
400,0.0576506666618879
401,0.0611626127034113
402,0.0630327563021343
403,0.0637408326503496
404,0.0642565977246656
405,0.0645514998311582
406,0.0659908402294392
407,0.067086053893657
408,0.0678606365195852
409,0.0701988704852827
410,0.0736543340931666
411,0.0744458042337999
412,0.0779653920604546
413,0.0806030460110486
414,0.0825052273076
415,0.0846149000409534
416,0.085632880385855
417,0.0865833950262423
418,0.0895220329139726
419,0.0895994824020388
420,0.0933477377627025
421,0.0940239536651107
422,0.0966741382146687
423,0.0976438631294781
424,0.0996376449544015
425,0.0982670471698784
426,0.0986426273533666
427,0.0966001628216638
428,0.094529101612272
429,0.0949839997317401
430,0.0957768942063215
431,0.0992303388879435
432,0.103042438196653
433,0.106389323141988
434,0.110573040640425
435,0.112976107735602
436,0.114432697551176
437,0.116164347149813
438,0.11789599674845
439,0.119627646347087
440,0.120202990763136
441,0.121919454563888
442,0.124321199567402
443,0.124654403839001
444,0.125816917844694
445,0.126979431850388
446,0.128141945856081
447,0.129188431863152
448,0.12931971841496
449,0.133309922580598
450,0.131776911759147
451,0.130410008258972
452,0.129771055149251
453,0.129132102039531
454,0.128493148929811
455,0.128044217207413
456,0.128236623854908
457,0.128863913925289
458,0.129312052999348
459,0.130765828248717
460,0.13095316359821
461,0.129726499480493
462,0.133653405098881
463,0.129614992582862
464,0.128199362826207
465,0.127281124109304
466,0.12545409826661
467,0.125180053911578
468,0.123768833060829
469,0.122867379480149
470,0.125405858985274
471,0.124801076395564
472,0.125545213272831
473,0.126567887383816
474,0.127335185768971
475,0.128079319429188
476,0.125956261308433
477,0.125669927400821
478,0.125383593493208
479,0.125097259585595
480,0.124198264086805
481,0.121056821259113
482,0.118978767599048
483,0.118152960002629
484,0.11506678637407
485,0.112187717361588
486,0.113097301699412
487,0.113661473900148
488,0.114446464671251
489,0.117468756755946
490,0.117898075803023
491,0.118767480649558
492,0.121141900665609
493,0.11981520962854
494,0.121709089622623
495,0.119969006465459
496,0.120568746288433
497,0.118372177633598
498,0.119124738768368
499,0.116356889103496
500,0.11704775172379
501,0.116000984966844
502,0.118263896840969
503,0.11853473058247
504,0.117201831430059
505,0.121044432264905
506,0.120489376911373
507,0.120762948629181
508,0.121429214587792
509,0.121313404265368
510,0.11949699317204
511,0.12116175890778
512,0.120474391915058
513,0.117100344522633
514,0.116228476952308
515,0.114353622460014
516,0.113389285394761
517,0.113166645132766
518,0.112839340401547
519,0.115313509485576
520,0.117087409082616
521,0.118525183792714
522,0.119962958502812
523,0.12140073321291
524,0.121144966187392
525,0.120982543873808
526,0.12174039619199
527,0.120826287322084
528,0.121942550837053
529,0.123611080166425
530,0.123507060207715
531,0.123807941557311
532,0.123620099376294
533,0.124652862696983
534,0.125101363456834
535,0.123452964812352
536,0.124849769354871
537,0.124172371304234
538,0.123246673768787
539,0.122413657387056
540,0.123177607899042
541,0.122376822536398
542,0.121519605935759
543,0.122212845242166
544,0.123257839860526
545,0.121926763659898
546,0.122931947555988
547,0.122950637336163
548,0.122969327116337
549,0.122988016896511
550,0.121737491862911
551,0.123024677506785
552,0.124265785237179
553,0.122893359226029
554,0.122565002828432
555,0.123697199243942
556,0.121994647311592
557,0.121915468203756
558,0.121039901845412
559,0.119960830796039
560,0.121279482661146
561,0.119231424348434
562,0.121466369125455
563,0.119679664733076
564,0.120179404994149
565,0.118801400293487
566,0.118299501234694
567,0.116706136311039
568,0.117706999868995
569,0.116046702260198
570,0.116162838174564
571,0.116374649018421
572,0.116366581958145
573,0.1162233443289
574,0.116982362324328
575,0.115327638468493
576,0.115699896744092
577,0.11607215501969
578,0.116444413295289
579,0.116816671570888
580,0.117188929846487
581,0.118620081107658
582,0.117882817504299
583,0.118495788630427
584,0.116892753726775
585,0.11666384861012
586,0.113112516876848
587,0.11198848069686
588,0.110907187705295
589,0.109825894713729
590,0.108744601722163
591,0.109349236229809
592,0.11066706763718
593,0.110765878590074
594,0.112881986024786
595,0.112942667420266
596,0.113467037895833
597,0.114156626093992
598,0.114251423305436
599,0.114774128291911
600,0.115770542847681
601,0.11650614787947
602,0.117206497644031
603,0.116918448933815
604,0.118111675480398
605,0.117525552733093
606,0.117923825036285
607,0.117174797015993
608,0.116120699842704
609,0.116310375727811
610,0.115521414058699
611,0.115301148292246
612,0.113975779972878
613,0.113955084329055
614,0.112847360311208
615,0.114514532073418
616,0.112791652531576
617,0.113954796997261
618,0.113929011173404
619,0.114653808912088
620,0.11434815448688
621,0.115233930914052
622,0.113267544857353
623,0.113259810341935
624,0.112783646948671
625,0.112307483555408
626,0.111831320162144
627,0.111629227995383
628,0.111311977232583
629,0.111134685390642
630,0.111958689797226
631,0.111023544229631
632,0.111567615318633
633,0.112501369739645
634,0.112632800723424
635,0.113053798849799
636,0.11209584231685
637,0.113593434180611
638,0.112950916445554
639,0.113269738762453
640,0.112720614003377
641,0.11255578719658
642,0.112112547571166
643,0.11141343003784
644,0.110714312504513
645,0.110015194971187
646,0.110468831981998
647,0.110286505831481
648,0.108368488617779
649,0.110212981277305
650,0.109211820608621
651,0.110259725062986
652,0.108780539240477
653,0.107423007452301
654,0.105446482825674
655,0.106700355308566
656,0.104977603194185
657,0.106919928312501
658,0.108085025302502
659,0.11060551906293
660,0.111847887243975
661,0.112239153300051
662,0.112773104015728
663,0.112534126108021
664,0.112001149556779
665,0.112435418733106
666,0.112646042726284
667,0.112975065298245
668,0.11283963424067
669,0.111177383461282
670,0.111742333531017
671,0.111759350482242
672,0.111376871376797
673,0.111457812142737
674,0.111935071448956
675,0.111814903111175
676,0.112168121616132
677,0.112853014015886
678,0.111391632995571
679,0.11188688331914
680,0.113884680179535
681,0.112452368030319
682,0.110242276905509
683,0.10807626962774
684,0.105007691816497
685,0.102153364071131
686,0.100314096342276
687,0.0983385190410418
688,0.0983078717734274
689,0.0987864882478152
690,0.100152604485309
691,0.102416553557878
692,0.103362548801737
693,0.104678671728102
694,0.106079468259172
695,0.106787020129338
696,0.109128886264476
697,0.110321581150889
698,0.109566746302795
699,0.110426485809138
700,0.112653146071867
701,0.112586099084188
702,0.115097091111998
703,0.116011020113458
704,0.118571722915604
705,0.119209631141529
706,0.122007435671931
707,0.123548994397919
708,0.124600219289816
709,0.126731939941461
710,0.126367635293314
711,0.127098002570169
712,0.128124308350803
713,0.124135171370794
714,0.12210711736474
715,0.116635198862396
716,0.111970989069811
717,0.108950699012212
718,0.108658027826241
719,0.110197399545165
720,0.111934768799846
721,0.111874510625912
722,0.115708565940289
723,0.116222789046692
724,0.116332937816937
725,0.117493102381721
726,0.117616904905515
727,0.120044048316695
728,0.122106909294555
729,0.12623525947279
730,0.129468183615764
731,0.133930365292363
732,0.138908094303763
733,0.143737212092594
734,0.146961824284515
735,0.148670938536945
736,0.151212136108498
737,0.152879497220822
738,0.154546858333147
739,0.156214219445471
740,0.159678909669516
741,0.161414682711272
742,0.162931823242538
743,0.164448963773803
744,0.165966104305068
745,0.167288610216881
746,0.167024768441545
747,0.168765494134718
748,0.167303371616743
749,0.169015040112818
750,0.169281487455934
751,0.168374093980165
752,0.171580011346618
753,0.170398735636392
754,0.168208351293146
755,0.157923701358662
756,0.147639051424178
757,0.137354401489695
758,0.120050686827517
759,0.105046199426249
760,0.0950824857940101
761,0.0930436359209916
762,0.0962635504216589
763,0.104138637765737
764,0.114458431391201
765,0.124516298040516
766,0.137043782467465
767,0.148812964193132
768,0.155625617165331
769,0.160873402007916
770,0.164873550592597
771,0.166389185842713
772,0.168940633038743
773,0.170775800594484
774,0.169600850423208
775,0.170566061587345
776,0.170328242010451
777,0.16920355806904
778,0.17131071529728
779,0.169923599921193
780,0.172452509198242
