"wavelength","measurement"
380,0.00816918799271751
381,0.00858922261604155
382,0.00805086582697784
383,0.0085940887499074
384,0.00884007941929449
385,0.00912676949456314
386,0.0101406450286931
387,0.0111158125395066
388,0.0116228982630949
389,0.0124814400016573
390,0.0126347063792711
391,0.0126325636765313
392,0.0133877344641525
393,0.0131056305167043
394,0.0140765107699585
395,0.0152786546402938
396,0.0174295708218436
397,0.0197414291386107
398,0.0220532874553778
399,0.0243651457721448
400,0.0262032856283521
401,0.0285635573202848
402,0.0304192354522518
403,0.0314830324595907
404,0.0325345626152742
405,0.0331705110165428
406,0.0344926742185268
407,0.035670355886472
408,0.0371970019839127
409,0.0389111600389587
410,0.0414437147573152
411,0.0422727645737739
412,0.0441894229403401
413,0.0460596116143141
414,0.046783470277657
415,0.0479404324783513
416,0.0478371870159004
417,0.0480969631746022
418,0.0492990508900556
419,0.0491168979351969
420,0.0504113542731498
421,0.0508025036568915
422,0.0513785782987103
423,0.0523425836085247
424,0.0525074813600569
425,0.0520259828192452
426,0.0518898203350522
427,0.0508278119791697
428,0.0495432201632511
429,0.0493263990560024
430,0.0495367086553627
431,0.0517799852031404
432,0.0537827322997994
433,0.0558587540699826
434,0.0581508127999988
435,0.0598657129956938
436,0.060591460658209
437,0.0618290915025234
438,0.0630667223468378
439,0.0643043531911523
440,0.0650764527729382
441,0.066629416572733
442,0.0685914047055136
443,0.0695755835065479
444,0.0710396706807306
445,0.0725037578549133
446,0.073967845029096
447,0.0755071269715513
448,0.0761847879376947
449,0.0792479473053943
450,0.0789761244022525
451,0.0791684962835113
452,0.0793970354335115
453,0.0796255745835117
454,0.0798541137335119
455,0.0800115698541467
456,0.0804630612278614
457,0.0810336915068815
458,0.082012244957275
459,0.0837039413709246
460,0.0839240845675109
461,0.0837237998675838
462,0.0858426553236699
463,0.0841330005977116
464,0.0837379426499711
465,0.0833537894354495
466,0.08225906190734
467,0.0826297247281504
468,0.0822438276337774
469,0.0816463170714991
470,0.0837700183383115
471,0.0840710692850123
472,0.0847140233560186
473,0.0859941090634478
474,0.0866686598390904
475,0.0880772698010586
476,0.0868141990276628
477,0.0870746304247701
478,0.0873350618218775
479,0.0875954932189848
480,0.087383048394548
481,0.0858142011964614
482,0.0845504622468042
483,0.084265429347487
484,0.082214717822621
485,0.0804416348816392
486,0.081505397900554
487,0.0822388898944554
488,0.0832791636922717
489,0.0856849575310163
490,0.0862645444560121
491,0.0872824569269396
492,0.0895865752806386
493,0.0887325481627685
494,0.0902305758486034
495,0.0893772187117826
496,0.0901748159532801
497,0.0886712021860732
498,0.0895448853754094
499,0.0875316701013281
500,0.0881893931629929
501,0.0877105496316959
502,0.0892152773436391
503,0.0899607922377503
504,0.089089333735007
505,0.0919773699347207
506,0.0917255987407953
507,0.09244710022682
508,0.0928271174125086
509,0.0929250515743054
510,0.0915514132404707
511,0.0927555410676308
512,0.0924126018958983
513,0.0896556510604079
514,0.0894315389452543
515,0.087954398253714
516,0.087369412936122
517,0.0869932375397155
518,0.0869794192476661
519,0.0885323643234011
520,0.0900826833994267
521,0.0911937107592629
522,0.0923047381190991
523,0.0934157654789353
524,0.0929101504769784
525,0.093187933446835
526,0.0932822609737233
527,0.0932240792525414
528,0.0933486659346839
529,0.0947451002057354
530,0.0947537211331582
531,0.094760102020013
532,0.0946530026651276
533,0.0955525380521706
534,0.0958792008860882
535,0.0948390327357992
536,0.0956529243155457
537,0.0950946523622505
538,0.0942925041028126
539,0.0938536327674805
540,0.0944605493530089
541,0.0936754170499939
542,0.093434484581688
543,0.0937786562423626
544,0.0942613188652312
545,0.0934847360654434
546,0.0942553543438056
547,0.094233650440067
548,0.0942119465363283
549,0.0941902426325897
550,0.0932224592806976
551,0.0940792887959542
552,0.0951535816589444
553,0.0938171731701572
554,0.0937216821588371
555,0.0946794260360014
556,0.0930748357713561
557,0.0928679649485512
558,0.0925398630625592
559,0.0918313484855736
560,0.0929348854103925
561,0.0916357970239411
562,0.0930560098846295
563,0.0919584106083278
564,0.0924561037652849
565,0.0914319797655484
566,0.0909204343357633
567,0.0899203083561889
568,0.0906736471506271
569,0.0894826512605619
570,0.0894971351552154
571,0.0897567843072708
572,0.0897913537334324
573,0.0898032562019864
574,0.0904164523596021
575,0.0894660072936339
576,0.0896853083447707
577,0.0899046093959075
578,0.0901239104470443
579,0.090343211498181
580,0.0905625125493178
581,0.0917082489803592
582,0.0911568423059673
583,0.0917689139733616
584,0.0900303376157003
585,0.0896415646530449
586,0.0876433207318167
587,0.0861810641343277
588,0.0851520858770949
589,0.084123107619862
590,0.0830941293626292
591,0.0833479772426052
592,0.0841548853545011
593,0.0841356371988828
594,0.0856528340704434
595,0.085095059138238
596,0.0854031811489801
597,0.0861547871922149
598,0.086134149771365
599,0.0860840132434232
600,0.086791730332916
601,0.0868827705303915
602,0.087411692339488
603,0.0868748810009579
604,0.0877251455860896
605,0.0870836058613785
606,0.0871771074392421
607,0.086655557900905
608,0.0855203742671597
609,0.0854603443158966
610,0.0850000678320163
611,0.0843475928442624
612,0.0835727436734619
613,0.0833064146322732
614,0.0821749735116476
615,0.0831464625989354
616,0.0817714460441585
617,0.0825754512194398
618,0.0823806948000903
619,0.0826006564901144
620,0.0823549101707176
621,0.0825103527076803
622,0.0807495181390169
623,0.0804982263402452
624,0.079889519997326
625,0.0792808136544068
626,0.0786721073114876
627,0.078395695585622
628,0.0781638856764789
629,0.0778569690640174
630,0.078301084474554
631,0.0771629266434751
632,0.0774406444979701
633,0.0778019485952066
634,0.0781777948023596
635,0.0779834344351144
636,0.077136316617686
637,0.0780144224883945
638,0.0771755835747442
639,0.0770034780317957
640,0.0766777614812855
641,0.0762719872841489
642,0.0759048666705466
643,0.075318350239046
644,0.0747318338075453
645,0.0741453173760447
646,0.074254182701435
647,0.0737486386707416
648,0.0723014336587306
649,0.0733404163957715
650,0.0725164730098424
651,0.0728910455236086
652,0.0719043423605126
653,0.070732775897532
654,0.0692245740907877
655,0.0700892650992865
656,0.0683973823968908
657,0.0695573855950067
658,0.069729847963714
659,0.0715793388483143
660,0.0720376893453927
661,0.0723774087716481
662,0.0723993089182173
663,0.0720801238788095
664,0.0713173187245398
665,0.0713626318345841
666,0.0713966545426116
667,0.0713338509959148
668,0.0714789144122719
669,0.0697233437066413
670,0.0697202195247333
671,0.0697813142915245
672,0.0690596711667775
673,0.0692161127328959
674,0.0690696734369017
675,0.0689449428200908
676,0.0687029793680083
677,0.0687760218671055
678,0.0677839825391698
679,0.0678345823289136
680,0.0688631971687096
681,0.0672913421776709
682,0.0656338958671869
683,0.0642075690737595
684,0.0619571220503336
685,0.0597876921274574
686,0.0584259597248149
687,0.0570067541889986
688,0.0562512295527767
689,0.0562360726179026
690,0.0567830903677686
691,0.0575699564267296
692,0.0578393124121212
693,0.0580593800427572
694,0.0585320674970796
695,0.0581619806080048
696,0.0588273152552759
697,0.0589278633593371
698,0.0578866372432014
699,0.0576288334209916
700,0.0580918051928399
701,0.0576213798506346
702,0.0582956680319929
703,0.0576863455107016
704,0.0588815542766448
705,0.0584606316434118
706,0.0589651295618398
707,0.0591228071236085
708,0.0588532600307024
709,0.0593795401306619
710,0.0583103263116299
711,0.0584779896539927
712,0.0577418858657949
713,0.0555989207110571
714,0.0537583753614705
715,0.0509661159060723
716,0.0481304442561449
717,0.0463395273386952
718,0.0453600478828742
719,0.045136951580442
720,0.0455143162648249
721,0.0448955901107985
722,0.0457752967364527
723,0.0453155863902507
724,0.0448013383528689
725,0.0447363999109811
726,0.0444114544841852
727,0.0446556915317026
728,0.044815428751562
729,0.045718249704566
730,0.0464509939013455
731,0.0473127537278167
732,0.0487201565001974
733,0.0498468040066015
734,0.0505705521231909
735,0.0504326801360439
736,0.0508396904677603
737,0.050932223380823
738,0.0510247562938856
739,0.0511172892069483
740,0.0518874969481829
741,0.0515574399468444
742,0.0516365068651482
743,0.051715573783452
744,0.0517946407017559
745,0.0517022615187735
746,0.0511141264757681
747,0.0511950648192756
748,0.0507697080392761
749,0.0505132334520161
750,0.050133646443252
751,0.0497331879799356
752,0.0498199488113224
753,0.049482368403121
754,0.0483687705261588
755,0.0454267971693247
756,0.0424848238124907
757,0.0395428504556567
758,0.0339126876537275
759,0.029319095840918
760,0.0265805532662258
761,0.0257988607906735
762,0.0262900716646402
763,0.0282638793244933
764,0.0309269260098687
765,0.0337114564335213
766,0.0368647379075655
767,0.0396434195457451
768,0.0413227218256907
769,0.0424903736160888
770,0.0435901185981458
771,0.0434863529114315
772,0.0440168420914036
773,0.044318514195364
774,0.0435921889051909
775,0.0441540443225453
776,0.0438051310975347
777,0.0431476116224485
778,0.043191042960684
779,0.0428801336581896
780,0.0430862298246184
