"wavelength","measurement"
380,0.0524222479927462
381,0.0500748420521111
382,0.0490198189579351
383,0.0483149696374336
384,0.0474067946472738
385,0.0496238007418706
386,0.0519340945263581
387,0.0541498936170259
388,0.0560430705900984
389,0.0572721590732999
390,0.0563595841831063
391,0.0554231673529531
392,0.0550625626726713
393,0.0549451292584703
394,0.0555852561873022
395,0.0582852745382562
396,0.0637337520801047
397,0.069922714368785
398,0.0761116766574653
399,0.0823006389461457
400,0.0856050741908496
401,0.0900629171135113
402,0.0928783353113522
403,0.0934949060964883
404,0.0926770300698513
405,0.0925149037901142
406,0.0932672169952112
407,0.0937937518839199
408,0.0935031502777331
409,0.0956391922588107
410,0.0990260800964061
411,0.0990655476750933
412,0.101409958353765
413,0.103606959880806
414,0.103620909698211
415,0.104639815630528
416,0.104178176420404
417,0.103780255620505
418,0.105351395582428
419,0.103045997834013
420,0.105753509196561
421,0.105411159059053
422,0.106241468880913
423,0.10687450143999
424,0.107316012704574
425,0.105212793581775
426,0.104556376053025
427,0.101918429264507
428,0.0989514477173134
429,0.0983964392715054
430,0.0985553011331763
431,0.102363083949636
432,0.105383490903426
433,0.10879208666189
434,0.11288129059119
435,0.115516751210475
436,0.116230856087715
437,0.11784506445111
438,0.119459272814505
439,0.121073481177901
440,0.121445343626407
441,0.123251895888002
442,0.125589473965636
443,0.126329770551462
444,0.127874200891895
445,0.129418631232328
446,0.130963061572761
447,0.132589263896885
448,0.132315108787968
449,0.137111333517865
450,0.135733166527533
451,0.134514328523919
452,0.133881673968856
453,0.133249019413794
454,0.132616364858732
455,0.13283546401339
456,0.132357417049375
457,0.133489204136429
458,0.134114129433572
459,0.135783102056708
460,0.135769181961992
461,0.134021940951959
462,0.13774125860549
463,0.133563904519509
464,0.132196091695058
465,0.13106008036953
466,0.129358108499265
467,0.128844130388703
468,0.127720709126524
469,0.126428290465259
470,0.128984652316378
471,0.128434736997338
472,0.128967887050676
473,0.130487405001701
474,0.130354994742798
475,0.132541529252896
476,0.128845158965917
477,0.128827805020051
478,0.128810451074184
479,0.128793097128317
480,0.128197955107336
481,0.12498322398362
482,0.123087501747476
483,0.122048433890041
484,0.118833255173772
485,0.11549895370214
486,0.116843848369095
487,0.117341564897693
488,0.11826172652518
489,0.121699483105054
490,0.121878142757407
491,0.122697458252427
492,0.125448868105474
493,0.124023691879159
494,0.125814804138526
495,0.124096009789219
496,0.124551381751214
497,0.122290820900105
498,0.122888627678061
499,0.120344928236362
500,0.120634467782854
501,0.119887291092116
502,0.121542844085791
503,0.122107893992177
504,0.120390572420633
505,0.124501651743384
506,0.123735678246772
507,0.124362063707184
508,0.124748606456346
509,0.124933634381864
510,0.122452079062839
511,0.124134364760599
512,0.123317626662797
513,0.119822198622217
514,0.118803300069133
515,0.116885160096375
516,0.115990633885275
517,0.115619687045272
518,0.115314956896914
519,0.11751449472781
520,0.119576580572564
521,0.12085722944625
522,0.122137878319936
523,0.123418527193622
524,0.122873154994132
525,0.122714306553673
526,0.123291920865691
527,0.122558404631463
528,0.123417783880104
529,0.124716108065933
530,0.124670001401676
531,0.124971320362943
532,0.124745985176868
533,0.125709409511369
534,0.126082654928083
535,0.124548886508207
536,0.125614578543345
537,0.12507116197073
538,0.123873108538118
539,0.123061882291644
540,0.123778232792088
541,0.122723348583275
542,0.122007259953489
543,0.122589497362002
544,0.123196680677151
545,0.122510058599938
546,0.123273195691248
547,0.123252004505146
548,0.123230813319044
549,0.123209622132943
550,0.122119612589167
551,0.123328789799195
552,0.124597499165695
553,0.12310955072172
554,0.122901781440745
555,0.124162621583262
556,0.122304420661994
557,0.122025095876537
558,0.121141880281568
559,0.12037543706853
560,0.12188941690473
561,0.119848133431576
562,0.122012203758133
563,0.120197389465342
564,0.120827668509441
565,0.119283289271495
566,0.118843940753253
567,0.117496577824975
568,0.118198614699127
569,0.116838507660164
570,0.117077535892617
571,0.117420088634583
572,0.117297364879205
573,0.117460156111538
574,0.117885896091005
575,0.116756008324251
576,0.117049143386677
577,0.117342278449103
578,0.117635413511529
579,0.117928548573955
580,0.118221683636381
581,0.119924531167255
582,0.119215227343354
583,0.119963210538234
584,0.117808079517626
585,0.117378376697521
586,0.114283868420935
587,0.112461921765435
588,0.11127817958756
589,0.110094437409685
590,0.10891069523181
591,0.109417998666896
592,0.110583262463769
593,0.110541404332901
594,0.112371401932329
595,0.112002332838175
596,0.11295332417428
597,0.113565647714402
598,0.113735286437883
599,0.113861125622367
600,0.115180520916925
601,0.115388859224444
602,0.116148466735928
603,0.115586799192115
604,0.116854595043687
605,0.116203260124244
606,0.116563445110495
607,0.116133646385179
608,0.11451273898926
609,0.114654479695926
610,0.113753234371085
611,0.113070927912988
612,0.112280914325719
613,0.112111317190402
614,0.11076406039274
615,0.112568319564435
616,0.110775225441198
617,0.111763006789071
618,0.111533993194368
619,0.112278827674977
620,0.111777906044453
621,0.112567449487057
622,0.110509262944676
623,0.110298376703047
624,0.109672881447409
625,0.10904738619177
626,0.108421890936132
627,0.108621945857191
628,0.108060740733039
629,0.107835157328753
630,0.108419824260899
631,0.107251123710547
632,0.108006308925329
633,0.108642714049045
634,0.108973142746005
635,0.109457515125905
636,0.108442704669125
637,0.109775880200021
638,0.109133585199477
639,0.109651944026367
640,0.108867268322895
641,0.1085364337109
642,0.107926246637181
643,0.107364951824501
644,0.106803657011821
645,0.10624236219914
646,0.106426454209039
647,0.10609253993203
648,0.104094156971246
649,0.106209969148978
650,0.104996799710189
651,0.106010338972363
652,0.104779222966687
653,0.103177346620528
654,0.101616816581287
655,0.10236448535838
656,0.101474605273535
657,0.102857833931719
658,0.103608053086242
659,0.106705536838302
660,0.107287750840991
661,0.107909056099821
662,0.108584542245707
663,0.108145074153388
664,0.107514362807243
665,0.107920563546957
666,0.108283888293485
667,0.108484839517392
668,0.108669051872776
669,0.106654977787005
670,0.106881076807871
671,0.107321754836602
672,0.106584181120873
673,0.106871996915483
674,0.107174138694255
675,0.107093757969444
676,0.106822444772576
677,0.107807886867032
678,0.106561348226508
679,0.106603327230808
680,0.109080715322137
681,0.107295515634184
682,0.104906750679007
683,0.102785328648373
684,0.0994790533426523
685,0.0964733034124385
686,0.0948012501129653
687,0.0926838735256175
688,0.0922383763342697
689,0.0924850920462991
690,0.0938478895691204
691,0.0957007304527364
692,0.0959620836580428
693,0.096864826136354
694,0.0982456344951703
695,0.0984023406751356
696,0.100134721785834
697,0.100689331575018
698,0.0997844025290478
699,0.0997421789798525
700,0.101736140149601
701,0.100978809021032
702,0.102896299712953
703,0.103365825665987
704,0.105022380211649
705,0.104997747590103
706,0.106698536126824
707,0.108269882670007
708,0.108684803046868
709,0.109736598500859
710,0.109092997507037
711,0.108830743432971
712,0.109489603735938
713,0.105285986956487
714,0.103129636504171
715,0.0980449284745021
716,0.0935774864669353
717,0.0909468652906776
718,0.0897404679520103
719,0.0905061139995748
720,0.092302932445635
721,0.0913612084897536
722,0.0939618102753648
723,0.0936118238715189
724,0.0934651398106411
725,0.0937351688363083
726,0.0940507481794665
727,0.0955110888925407
728,0.0966644303555112
729,0.0994005450649924
730,0.101971659572715
731,0.105129612603962
732,0.108829756502985
733,0.111973902162873
734,0.114351092632014
735,0.1153652299567
736,0.117274110483814
737,0.118430894201977
738,0.119587677920139
739,0.120744461638302
740,0.122826168581381
741,0.12357920467925
742,0.124593287093332
743,0.125607369507414
744,0.126621451921495
745,0.127327086940819
746,0.127361150091615
747,0.127880055110141
748,0.126564864195017
749,0.127553960943529
750,0.127999374015375
751,0.127054681706414
752,0.129070403622453
753,0.128444771192146
754,0.126927926682688
755,0.119041933428837
756,0.111155940174987
757,0.103269946921136
758,0.0901283723481876
759,0.0792847591617246
760,0.071179313273982
761,0.0696277956911392
762,0.0721154517075357
763,0.077370230493237
764,0.0852530673987583
765,0.0926109659023277
766,0.102125329433918
767,0.110484537415465
768,0.115483793672108
769,0.119825545108913
770,0.122202411510254
771,0.123530501847411
772,0.125024669453754
773,0.126579287401242
774,0.125652752218739
775,0.126494511126634
776,0.126931512355865
777,0.125534484763988
778,0.127600042160959
779,0.125929679094681
780,0.128060224931048
