"wavelength","measurement"
380,0.00508631530801861
381,0.00542509856463014
382,0.00454249138597633
383,0.00501785562556626
384,0.00521675446308032
385,0.0055298395972508
386,0.00599605672808659
387,0.00656691770255812
388,0.0068653615979136
389,0.00703525608801879
390,0.00756562105351104
391,0.00756039514216094
392,0.00757038159751979
393,0.00768698738860778
394,0.0079511741203715
395,0.00880616452169739
396,0.00998552378085893
397,0.0113497224201726
398,0.0127139210594862
399,0.0140781196987998
400,0.0152842157826507
401,0.0162726787441236
402,0.0172386527599345
403,0.0176831986707858
404,0.0181156920631884
405,0.0186183638158975
406,0.0192292354948928
407,0.0198186696668693
408,0.0202115703682799
409,0.0209805536079712
410,0.0221429481579963
411,0.0222611435552855
412,0.0233974719977659
413,0.023940112594829
414,0.0241836679842535
415,0.0242614867247539
416,0.024321164316501
417,0.0243642118712137
418,0.0248088227711783
419,0.0245662615059239
420,0.0250001175523828
421,0.0252546415682709
422,0.0255199346480485
423,0.0256902121005658
424,0.0256909453789065
425,0.0254743176074007
426,0.0253545648939571
427,0.0245822551602898
428,0.023872109953866
429,0.0239915820415928
430,0.0240513652595293
431,0.0252116360960529
432,0.0258058865671202
433,0.0270202154469464
434,0.0283408106286457
435,0.0288762599735076
436,0.0296527481605142
437,0.029921915199733
438,0.0301910822389518
439,0.0304602492781706
440,0.0306499611455282
441,0.0310842883981939
442,0.0320650244803854
443,0.0324724973902666
444,0.0330413411100601
445,0.0336101848298535
446,0.0341790285496469
447,0.0348579648176508
448,0.0350693807124452
449,0.0363385965010459
450,0.0362036257437195
451,0.0362910280620438
452,0.0363988170111183
453,0.0365066059601928
454,0.0366143949092673
455,0.0362130000521276
456,0.0363001383249521
457,0.0369178155363082
458,0.0370167681147123
459,0.0379112555557087
460,0.0380928801311213
461,0.0376762934356574
462,0.0385999076300394
463,0.0377581978906109
464,0.0373896002499662
465,0.0373260881023793
466,0.0367947377434565
467,0.036952595381386
468,0.0367183456594783
469,0.0363102955800857
470,0.0372631092649745
471,0.0371448455441721
472,0.0376706454130071
473,0.0380316040930943
474,0.0382807721275613
475,0.038744880272096
476,0.0381477422152472
477,0.0382139391563972
478,0.0382801360975472
479,0.0383463330386972
480,0.0383088787275018
481,0.0374890637905334
482,0.0368492623058304
483,0.0367707108049765
484,0.0359175185497067
485,0.0351768022046259
486,0.0356015784824428
487,0.0358434648340633
488,0.0362589010758177
489,0.0371207549691754
490,0.0375349763788769
491,0.037804482384929
492,0.0387134812405195
493,0.0382384413274888
494,0.0389228247551039
495,0.0384073961411097
496,0.0386450518423708
497,0.0379910250345247
498,0.0382136458034072
499,0.0372610260704979
500,0.0375404584334179
501,0.0372689016562929
502,0.0377698193742795
503,0.0379524452479702
504,0.0378326885643335
505,0.0390589456222462
506,0.038542326851506
507,0.0388692096499197
508,0.0392858136675231
509,0.0392636209859554
510,0.0385846933465922
511,0.0390579635904092
512,0.0389991095948497
513,0.0378401568015322
514,0.0376144101832714
515,0.0368556683882582
516,0.0367790182118872
517,0.0365014492602863
518,0.0365279466953932
519,0.037288630125963
520,0.0378186171787461
521,0.0382492266663365
522,0.0386798361539269
523,0.0391104456415173
524,0.0389825513407916
525,0.0390162863247136
526,0.0391865028500586
527,0.0388567909186564
528,0.0391961681760805
529,0.0396258526334687
530,0.0396315869624954
531,0.0398085393600662
532,0.0396958692005316
533,0.0399385203921322
534,0.0400690858423845
535,0.0396501767032212
536,0.0400268563849801
537,0.0398769404552569
538,0.0398053435525802
539,0.0396569265653954
540,0.0401176604576677
541,0.0401245830338321
542,0.0399797725958925
543,0.0404361927680303
544,0.0406916817408885
545,0.0401206257455147
546,0.0403920636855173
547,0.0400924556308007
548,0.039792847576084
549,0.0394932395213674
550,0.038958278599479
551,0.039359818851669
552,0.0395189894466766
553,0.0391018581961788
554,0.0388010257373465
555,0.0391285349411717
556,0.0384197071995309
557,0.0383697590786806
558,0.0381556597170147
559,0.0377269872067552
560,0.0380857895801746
561,0.0376182507003131
562,0.0379976039773948
563,0.0375547543852851
564,0.0376648059814586
565,0.0371442243800064
566,0.0367483897813313
567,0.036366923165212
568,0.03664571998134
569,0.0361102652345951
570,0.0361081186012664
571,0.0360956545331041
572,0.0359915938382705
573,0.0361475642393989
574,0.036309657099768
575,0.0357605308217997
576,0.0358191547143124
577,0.0358777786068252
578,0.0359364024993379
579,0.0359950263918506
580,0.0360536502843634
581,0.0365283308551102
582,0.0363067486067277
583,0.036440740136265
584,0.0357815193715508
585,0.0355512501712465
586,0.0345846973910499
587,0.0339789442272344
588,0.0335014051383653
589,0.0330238660494962
590,0.0325463269606271
591,0.0325077170574783
592,0.0329004225470492
593,0.032801719679763
594,0.0330642298410877
595,0.0328903281223258
596,0.0332054824731437
597,0.0331537193058031
598,0.033187390390298
599,0.0332236963949117
600,0.0332654567202707
601,0.0333879874311877
602,0.0334910060854527
603,0.0333841515010334
604,0.0336617262267694
605,0.0332227540364986
606,0.0334931058795348
607,0.0333646726770874
608,0.0330570359855927
609,0.0334072058841721
610,0.0331736200066252
611,0.0331619790743956
612,0.0326017603760367
613,0.0323693896545346
614,0.0316188604024254
615,0.0317360374784721
616,0.0311244520933822
617,0.0312584920498882
618,0.0310811785353711
619,0.0311142216003714
620,0.0308975410580614
621,0.0309424135365839
622,0.0304031437062986
623,0.0301929724719065
624,0.0299042692387302
625,0.029615566005554
626,0.0293268627723777
627,0.0291554289741333
628,0.0290240227843157
629,0.0289805306035085
630,0.0290162769411863
631,0.0284941130361113
632,0.0285197887763606
633,0.0287041598690004
634,0.028695685582815
635,0.0285631158789955
636,0.0282400821848034
637,0.028413430244238
638,0.0282096223394727
639,0.0281596158529147
640,0.0280338050747298
641,0.027811001712231
642,0.0274380935535299
643,0.0272220842102475
644,0.027006074866965
645,0.0267900655236826
646,0.02673885524759
647,0.0266077529290319
648,0.0260454767558991
649,0.0264081733279795
650,0.0261587663829991
651,0.0263505004313577
652,0.0258075747844919
653,0.0252094102744598
654,0.0248168697478661
655,0.0249627209200361
656,0.0244769884138936
657,0.0248748439828095
658,0.0250278886880511
659,0.0255678973027593
660,0.025757827131596
661,0.0256524816668044
662,0.025717152970162
663,0.0255085579122109
664,0.0253738102146076
665,0.0253431637098513
666,0.0253718641138876
667,0.0253064385200465
668,0.0252078901065778
669,0.0246835023019212
670,0.0247191946066006
671,0.0245112456128689
672,0.0244264424242126
673,0.0243851849758154
674,0.0243423115263301
675,0.0241911851437087
676,0.0239976832852773
677,0.0241944625258023
678,0.0236856703040767
679,0.0236447390407081
680,0.0241514548385581
681,0.023784215179916
682,0.0230495905948254
683,0.0224759190138452
684,0.0217930992598223
685,0.0209441482039321
686,0.0203419722655345
687,0.0199102719601687
688,0.0196639172836684
689,0.0195032948685103
690,0.0197418490935496
691,0.0201090878572616
692,0.02018475136188
693,0.0201760962764807
694,0.0204621387531092
695,0.0204550252938224
696,0.0205908855432316
697,0.0205885725636573
698,0.0203141151543782
699,0.0202887723304804
700,0.020483619080669
701,0.0201907308495101
702,0.0205444806884416
703,0.0205894779803856
704,0.0210442942113751
705,0.0207513334551069
706,0.0210570768517385
707,0.0214197196294182
708,0.0212614197296206
709,0.0212536551438437
710,0.0211532797971655
711,0.0209508413563759
712,0.0210042683764552
713,0.0201933339435094
714,0.0195915624686687
715,0.0184717513687455
716,0.0173649026772985
717,0.016850222620762
718,0.0165412384601617
719,0.0163907721856756
720,0.0166802791455074
721,0.0165404961694781
722,0.0168011971707931
723,0.0167104996828982
724,0.0165604063079833
725,0.016667826085686
726,0.0165609928191616
727,0.0166750706203191
728,0.0170340302093097
729,0.0171309827909318
730,0.0176506993134864
731,0.0180211713437773
732,0.0185015179087964
733,0.0189652275679191
734,0.0192978872878929
735,0.019347646891242
736,0.0196204558205863
737,0.0197003599654467
738,0.019780264110307
739,0.0198601682551674
740,0.0202267143537789
741,0.0202781171307546
742,0.020295077376941
743,0.0203120376231274
744,0.0203289978693139
745,0.020353690719376
746,0.0201911237848907
747,0.0201990139978301
748,0.0198988845253408
749,0.0198086345549275
750,0.0198468272015832
751,0.0197504876777015
752,0.0197748823743958
753,0.0195781442348621
754,0.0193735851642546
755,0.0181902017316916
756,0.0170068182991286
757,0.0158234348665656
758,0.0138083609798869
759,0.0120223854392442
760,0.0107139068495283
761,0.0103589704434509
762,0.0106000435981315
763,0.0114550822413195
764,0.0122841707344305
765,0.013406000679293
766,0.0147091958271516
767,0.0159161188009466
768,0.0167220756658926
769,0.0171308471869532
770,0.0177096547765299
771,0.0174668848625455
772,0.0178781416982861
773,0.0178117590815817
774,0.0177098344436462
775,0.017665206620042
776,0.0175914067665958
777,0.017310215255486
778,0.0176022101107017
779,0.0172071706501512
780,0.0173352414902457
