"wavelength","measurement"
380,0.00597758401387474
381,0.00570494554709743
382,0.00565073654395479
383,0.0059300803748151
384,0.00602177706009983
385,0.00638372856543738
386,0.00676869655317261
387,0.00754694138945142
388,0.00765070576375829
389,0.00839622790138674
390,0.00827486009794751
391,0.00833339903294801
392,0.00852675064839606
393,0.00878829199506816
394,0.00910054217880748
395,0.00992265013067427
396,0.0111487230388422
397,0.0126534860960395
398,0.0141582491532367
399,0.015663012210434
400,0.0167562827679227
401,0.0179525348349137
402,0.018912302464348
403,0.019566183789942
404,0.020043151427511
405,0.0205327996929993
406,0.0212950040393446
407,0.0218775183746406
408,0.0224056243950487
409,0.0232534376208275
410,0.0250709726605908
411,0.0250612982203226
412,0.0263753806388848
413,0.0274168584377879
414,0.0277769616183214
415,0.0283683924836491
416,0.0282974193287873
417,0.0283930960829042
418,0.0291885352096825
419,0.0288179948323131
420,0.0297768786265769
421,0.0297988956334205
422,0.0301555984201631
423,0.0306295238122925
424,0.0307044867113556
425,0.0304777965698862
426,0.0303016438283017
427,0.02982783812857
428,0.0289245272130365
429,0.0288748726041077
430,0.0291842424234981
431,0.0304070509617451
432,0.0316262195514821
433,0.0325062000128683
434,0.0341573665109383
435,0.0349923437978272
436,0.0353756763227653
437,0.0360112185663815
438,0.0366467608099977
439,0.0372823030536139
440,0.0377703234677749
441,0.0386877398224407
442,0.0396856854409617
443,0.0402071587910608
444,0.0409869041931918
445,0.0417666495953229
446,0.042546394997454
447,0.0434554815627394
448,0.0437638030779708
449,0.0457108113175698
450,0.045504245906725
451,0.0455127165429193
452,0.0456417880263335
453,0.0457708595097476
454,0.0458999309931618
455,0.045846438936949
456,0.0460439925856506
457,0.0465893137722746
458,0.0471267066676913
459,0.048037616081653
460,0.0481842287957864
461,0.0478571010691799
462,0.0493096422615456
463,0.0480039465355071
464,0.0477673281680175
465,0.0474606550844693
466,0.0471163695741719
467,0.0471495100192315
468,0.0467495031956646
469,0.0467065064076013
470,0.0475285739681872
471,0.0478152780009137
472,0.047988256749523
473,0.0487512969977817
474,0.0491055299079048
475,0.0499640794806134
476,0.0491266632017229
477,0.049232484616279
478,0.0493383060308351
479,0.0494441274453912
480,0.0494955243217325
481,0.0483708991538743
482,0.0476682444608182
483,0.0477266357449009
484,0.0464411090532772
485,0.0455000893953226
486,0.0460941018927396
487,0.0464975530674367
488,0.0470429328054035
489,0.0484260589021184
490,0.0486142101021974
491,0.0490919719626266
492,0.0503426812081599
493,0.0498854460209226
494,0.0507813701418033
495,0.0501610367839965
496,0.0503419803958522
497,0.0496095365420475
498,0.0500510977076318
499,0.0490365782976356
500,0.0492313777544489
501,0.0488637349355102
502,0.0497038725878669
503,0.0500528254185153
504,0.0497886994142909
505,0.0513790541510009
506,0.0511697209667384
507,0.0514572889145062
508,0.0518775055792646
509,0.0519274870687335
510,0.0511524332446073
511,0.0518342624781005
512,0.051637359086201
513,0.0502963026156932
514,0.0500250357098271
515,0.0491511174658757
516,0.0488428370568546
517,0.048898342572046
518,0.0488095522533543
519,0.049824419796544
520,0.0506628986408795
521,0.0513333457156051
522,0.0520037927903307
523,0.0526742398650564
524,0.0523374371674004
525,0.0525741989802268
526,0.0527813193653589
527,0.0526766873472628
528,0.0528286410393123
529,0.0536320403731762
530,0.0536550687621101
531,0.0538549494084383
532,0.0537793672771286
533,0.0542877879400744
534,0.0543151056023998
535,0.0537332406737516
536,0.0544261767372689
537,0.0542693556038442
538,0.0538478553399239
539,0.0535710454141311
540,0.0541461156623186
541,0.0539482428951975
542,0.0539550659599481
543,0.0542830965030102
544,0.054663544806438
545,0.0542583595127303
546,0.05452219094663
547,0.0543131738234742
548,0.0541041567003185
549,0.0538951395771627
550,0.0532780590580923
551,0.0535323455220322
552,0.054069296127237
553,0.053495062422883
554,0.0532282937087125
555,0.0536854200018861
556,0.0528592803289546
557,0.0527705808845666
558,0.0524643937176018
559,0.0518691830706569
560,0.0527234324559759
561,0.0516716716854823
562,0.0525430875114393
563,0.0517651617935792
564,0.0520143415538855
565,0.0514471507456872
566,0.0511338268229422
567,0.0503914108919206
568,0.0509865376218874
569,0.0500985072307703
570,0.0500873052629487
571,0.0502059582387348
572,0.0501061058890339
573,0.0501559503114529
574,0.0504479377269107
575,0.0497184333679214
576,0.0498357739792468
577,0.0499531145905722
578,0.0500704552018976
579,0.050187795813223
580,0.0503051364245484
581,0.0510624056858447
582,0.0506228972899703
583,0.0508361854651795
584,0.0499547293919602
585,0.0497899485890377
586,0.0483414250387642
587,0.047485386385023
588,0.0469118337506044
589,0.0463382811161858
590,0.0457647284817672
591,0.0458112427688288
592,0.0461498323412319
593,0.0461793399825293
594,0.0469107740724388
595,0.0466610790347066
596,0.0468809754626898
597,0.0471397266489222
598,0.0470430120562474
599,0.0470445783647888
600,0.0473522528619975
601,0.0475647092230356
602,0.0477925044655323
603,0.0474340613558353
604,0.0477688298454739
605,0.047502448713802
606,0.0476623445790068
607,0.0475410630352039
608,0.0470816727568732
609,0.0471255856029538
610,0.0468702260227016
611,0.0466728132247532
612,0.0460629569641235
613,0.0457320651211945
614,0.044942058083342
615,0.0453962439858034
616,0.0446639420290601
617,0.0448887012903506
618,0.0446996288089374
619,0.0446763757613681
620,0.0445386831447121
621,0.0447566583302628
622,0.0438614707386444
623,0.0436348943061283
624,0.0432372531657339
625,0.0428396120253396
626,0.0424419708849452
627,0.0424532349553999
628,0.0420915105334005
629,0.0418362588061042
630,0.0421348448764415
631,0.0416040798834941
632,0.0416351405438385
633,0.041793448331002
634,0.0417965509281587
635,0.0418940895407773
636,0.0413891065508101
637,0.0417324930965619
638,0.0412126192557205
639,0.0414089814599672
640,0.0410380210083729
641,0.0407400025641007
642,0.0404220125807502
643,0.040038767482673
644,0.0396555223845957
645,0.0392722772865185
646,0.0393628290482447
647,0.0391850190902671
648,0.038217322506502
649,0.0389523439737201
650,0.0383489811669141
651,0.0385310060638578
652,0.0381023188392987
653,0.0373102929514778
654,0.0365487501802972
655,0.0367292076744867
656,0.0362750682430264
657,0.0366196808640335
658,0.0369569949281514
659,0.0376832558707373
660,0.0379040625029077
661,0.0380396881451502
662,0.0379673945477555
663,0.037751999797888
664,0.0374684951494328
665,0.0374330751213149
666,0.0374969947309912
667,0.0373126427215057
668,0.0373337004557159
669,0.0364780087571891
670,0.0366825624740428
671,0.0363669783715838
672,0.0361418772725535
673,0.0360737121347931
674,0.0361572601957865
675,0.0360654268971189
676,0.0357594240787223
677,0.0358563671191429
678,0.035360482264489
679,0.0352056395108444
680,0.0358414143460077
681,0.0352294676313421
682,0.0341730616276596
683,0.0335738761583884
684,0.0323931391098312
685,0.0314435298163377
686,0.0307275018740148
687,0.0299445703847257
688,0.0296949063907895
689,0.0296501484319425
690,0.0302347015084416
691,0.0306213835896372
692,0.0307197527193703
693,0.0310086553080645
694,0.031421184840509
695,0.0314549962938135
696,0.0319974644879196
697,0.0322464991126655
698,0.0317125083925565
699,0.0318044568070151
700,0.0322002748061967
701,0.0320503520466289
702,0.0326163057324999
703,0.0324985022346009
704,0.0333153546480403
705,0.0330058585376787
706,0.0337040332181193
707,0.0338978239341555
708,0.0339898506679233
709,0.0344853463209516
710,0.0339779969564272
711,0.0340274456126639
712,0.0339792771101729
713,0.0327044291238331
714,0.0318612889939433
715,0.0301583953768465
716,0.0287533198410125
717,0.0275205275443258
718,0.0272390997517211
719,0.0271653174934133
720,0.0274698404251299
721,0.0271391197273526
722,0.0280933787273712
723,0.027839911899183
724,0.0276365236085326
725,0.027606602208681
726,0.0274126951934808
727,0.0277854649602193
728,0.0280192045472771
729,0.0285763791305639
730,0.0292131134340984
731,0.0300046743378535
732,0.0308170316975841
733,0.0316836296391875
734,0.0320927129424966
735,0.03229907813094
736,0.0325643230991546
737,0.0326928738349842
738,0.0328214245708138
739,0.0329499753066434
740,0.0333733721877188
741,0.0334580766800973
742,0.0335394216456369
743,0.0336207666111766
744,0.0337021115767163
745,0.033791603397689
746,0.0334945962966966
747,0.0335616215558666
748,0.0330115488314377
749,0.0331347339266159
750,0.0331107017729394
751,0.0327613815240256
752,0.032995174165948
753,0.0324429733533838
754,0.0320736416212291
755,0.0299698992760434
756,0.0278661569308578
757,0.0257624145856722
758,0.0224995164473318
759,0.0197263399836545
760,0.017470819308899
761,0.0169656301932619
762,0.0174045337185507
763,0.0187063616104796
764,0.0201419099566064
765,0.0223588021139454
766,0.0242069052751991
767,0.0263394303979673
768,0.0276443436198625
769,0.0282994783136807
770,0.0290345730068942
771,0.0289326653556469
772,0.0293401104797026
773,0.0294557532331968
774,0.0292305629841713
775,0.0291942833540478
776,0.029201868065953
777,0.0287292292771902
778,0.0289896623522476
779,0.0286315230285024
780,0.028804799008054
