"wavelength","measurement"
380,0.00785077424141279
381,0.00819977684800426
382,0.00847674935803585
383,0.00849637602951764
384,0.00845461587704186
385,0.00923050318168508
386,0.0099725293231442
387,0.0111947265880743
388,0.011790609885887
389,0.0117484241542924
390,0.0123596254927159
391,0.0123946245092119
392,0.0125952674684098
393,0.0130798244167743
394,0.0136951715527936
395,0.0148286510068235
396,0.0163297776669988
397,0.018643867328482
398,0.0209579569899653
399,0.0232720466514485
400,0.0250163597429763
401,0.0269774993330325
402,0.0281771840813927
403,0.0292855878640461
404,0.0299220778982721
405,0.0306682917252267
406,0.0317752114960588
407,0.0330588528994244
408,0.0335629548491754
409,0.0351851711594638
410,0.0373204638645159
411,0.0380681551028933
412,0.0396394447614899
413,0.0408664423465866
414,0.0410008550380236
415,0.0422892158628575
416,0.0424745708876155
417,0.0419716545789033
418,0.0433587122266503
419,0.0435816687111233
420,0.0441092285184487
421,0.044506124223093
422,0.0452548681850156
423,0.0456437930183526
424,0.0458814071507046
425,0.0449945580849537
426,0.0455074436285462
427,0.0442530487975132
428,0.0430227406295615
429,0.0429228150135543
430,0.0433108873826314
431,0.0450237257635292
432,0.0468463760885976
433,0.0483237995624372
434,0.0508074796862903
435,0.0518839544599881
436,0.05266593705816
437,0.0536992491690449
438,0.0547325612799298
439,0.0557658733908148
440,0.0562948282405705
441,0.0576353598619463
442,0.0590646068519035
443,0.0600589165802288
444,0.0612222001228578
445,0.0623854836654869
446,0.0635487672081159
447,0.0649531983665088
448,0.0656518489924823
449,0.0681167684661848
450,0.0680051507240021
451,0.0680668042308025
452,0.0681221136684225
453,0.0681774231060425
454,0.0682327325436625
455,0.0685499493890609
456,0.0685229909330497
457,0.0695819325312117
458,0.0701562210857385
459,0.0715601106054548
460,0.0718536049439721
461,0.0712072603218167
462,0.0738353883457596
463,0.0716386009606195
464,0.0712970102243155
465,0.0709453214168722
466,0.0703672716682628
467,0.0702770436714092
468,0.0701312115366461
469,0.0697811946698327
470,0.0714266165281918
471,0.0712320563419003
472,0.0718359522091266
473,0.0729213264926693
474,0.0737123085220843
475,0.0748858786252814
476,0.0734315331839575
477,0.0736184011872335
478,0.0738052691905095
479,0.0739921371937855
480,0.0740952623086209
481,0.0723846644145696
482,0.0712310512276523
483,0.0712783735682306
484,0.0694153920869119
485,0.0681072101548204
486,0.0687273201659714
487,0.0692540665466373
488,0.070146479322021
489,0.0719212996683368
490,0.0729011137611192
491,0.0736099370011164
492,0.0753899161650159
493,0.0745804950922767
494,0.0759467409470006
495,0.0748867523434469
496,0.0758936986493751
497,0.0742994254865056
498,0.0751111554204838
499,0.0734782958814216
500,0.0737959143433975
501,0.0732663601527226
502,0.0747142341702086
503,0.0752154574880764
504,0.0745048450552072
505,0.0770748533048613
506,0.0766578456272492
507,0.0771259566665629
508,0.0779011124219444
509,0.0777588761141673
510,0.0765183798306403
511,0.0777134150130615
512,0.0773074315428332
513,0.0750318273217094
514,0.07473866996613
515,0.0733776262285594
516,0.0729894220809998
517,0.0727639002535753
518,0.0725304025817408
519,0.0738004006311883
520,0.075197063650073
521,0.0761541975534196
522,0.0771113314567661
523,0.0780684653601127
524,0.0774696721676206
525,0.0775102464479085
526,0.0779486871691052
527,0.0774513021114865
528,0.0777252017094283
529,0.0790647629116067
530,0.0789386817308713
531,0.0792772893715916
532,0.0789629377085034
533,0.0794757189535047
534,0.079752866250919
535,0.0788305756740846
536,0.0795630917512483
537,0.0793648071295915
538,0.0786270949279398
539,0.0783422389890225
540,0.0787049111833936
541,0.0782431112414498
542,0.0776369223712925
543,0.0780242088665495
544,0.0787006719443419
545,0.077770319984169
546,0.0786181878435066
547,0.0784647480746939
548,0.0783113083058813
549,0.0781578685370686
550,0.0774129360678388
551,0.0778644586398583
552,0.0788423462118249
553,0.0778164899699144
554,0.0777633514831521
555,0.0783963704618682
556,0.0772661723346389
557,0.077034208968212
558,0.0768454696257314
559,0.0760659756133648
560,0.0769059298085566
561,0.0757395431220319
562,0.0771163724044494
563,0.0758406369107384
564,0.0762945741637031
565,0.0754681415986096
566,0.0746955939600523
567,0.0740739867061658
568,0.0743991695060271
569,0.0736540633110685
570,0.0737559312652279
571,0.0740211332440277
572,0.0737731354225244
573,0.0737727435800648
574,0.0743125909352868
575,0.073445667439281
576,0.0736024438487324
577,0.0737592202581837
578,0.073915996667635
579,0.0740727730770864
580,0.0742295494865377
581,0.0752844008033105
582,0.0747132870362761
583,0.0752728880871573
584,0.0736348269285228
585,0.0734776540655069
586,0.071438053509403
587,0.0705162840712645
588,0.0696255353610382
589,0.0687347866508118
590,0.0678440379405855
591,0.0682745095535502
592,0.0688809774850686
593,0.0688122591482672
594,0.070083647166706
595,0.0696136411564687
596,0.0697327730379071
597,0.0702114928872509
598,0.0700696028415207
599,0.0700327188511687
600,0.0707473958077309
601,0.07081122865441
602,0.0711679012754653
603,0.070703488101185
604,0.0715202064715714
605,0.0708202645634023
606,0.0709610936700473
607,0.0707549689370269
608,0.0697083040824488
609,0.0697893615589068
610,0.0690156342157516
611,0.0688480013001694
612,0.0680615148095576
613,0.0679185563223264
614,0.0666268823211396
615,0.0677778582361003
616,0.0665492908478815
617,0.0669313717110714
618,0.066653979923062
619,0.0668535789812297
620,0.0666453719726753
621,0.0669662260548539
622,0.0656126814365454
623,0.065259333553046
624,0.0647683757446257
625,0.0642774179362055
626,0.0637864601277852
627,0.0635271553053371
628,0.0633205908884327
629,0.0631377558624379
630,0.0631884898338065
631,0.0623449467638311
632,0.0626774234436994
633,0.0626969825000855
634,0.0629404303556857
635,0.0629756446644264
636,0.0623367014866635
637,0.0630396775338702
638,0.0621624683533545
639,0.0624349118347032
640,0.0620237724856187
641,0.0615760953006795
642,0.0613344682503433
643,0.0606721271849909
644,0.0600097861196385
645,0.0593474450542861
646,0.0596996714730497
647,0.0592153298060409
648,0.0579822412526414
649,0.0589226189390225
650,0.0581079955888483
651,0.0585093114831689
652,0.0577023254930881
653,0.0567775127340399
654,0.0556569480159605
655,0.0561629946170071
656,0.0552013955516451
657,0.0555466454003767
658,0.0558818980499847
659,0.0576027706242884
660,0.0576321067896437
661,0.0576419904778298
662,0.058097443411767
663,0.0577637645248154
664,0.0573185787487338
665,0.0571755373584978
666,0.0571243387712691
667,0.0571751870484594
668,0.0572649327522495
669,0.055658247600154
670,0.0558469962544425
671,0.0557938880716862
672,0.0552865660642702
673,0.0552713816032761
674,0.0551309054192919
675,0.0547569155248676
676,0.0548678801332583
677,0.0551584324411864
678,0.0540218798733795
679,0.0539262136340532
680,0.0550760858699501
681,0.0537606966885597
682,0.0525199924005268
683,0.051247160883405
684,0.0494608415345602
685,0.0479681174101087
686,0.0464546286544629
687,0.0453910572228202
688,0.0450551156411166
689,0.0449743343899591
690,0.045252260719801
691,0.0460479729774092
692,0.0462260755013894
693,0.0465250155657002
694,0.0470445534550282
695,0.0469408135915964
696,0.0474230688093946
697,0.0471634645703643
698,0.0465367417320741
699,0.0463958171512819
700,0.0469098774372484
701,0.0464312505912026
702,0.0471767002417666
703,0.047070354591375
704,0.0474107609259406
705,0.0469275592559214
706,0.0475730700737109
707,0.0481088414837219
708,0.0480704550136542
709,0.0481059834486829
710,0.0477799478933842
711,0.0474476731497754
712,0.0474848427399461
713,0.0453393897049213
714,0.0441847170760717
715,0.0418068929483382
716,0.0393250877751697
717,0.0378276432083741
718,0.037049423249634
719,0.036981054363488
720,0.0375185021977998
721,0.0368240111006273
722,0.0378070953721711
723,0.0369937459262413
724,0.0369098689241711
725,0.0369340561067178
726,0.0366114544322462
727,0.036942831274593
728,0.0369778212147381
729,0.0379157671955539
730,0.0385953038733981
731,0.0392012536112979
732,0.0403696155923503
733,0.0412466001553073
734,0.0418203006384845
735,0.0420408080124376
736,0.0421970417127354
737,0.0421821014759148
738,0.0421671612390942
739,0.0421522210022736
740,0.0428875209711832
741,0.0427777123096189
742,0.0429380695507963
743,0.0430984267919737
744,0.0432587840331511
745,0.0431902954645847
746,0.0427561217702957
747,0.0427941098155746
748,0.0424121020276315
749,0.0421972875447194
750,0.0419661901709413
751,0.0414390795076729
752,0.0422129703855829
753,0.0413820631612677
754,0.0407973701695238
755,0.0381609854309292
756,0.0355246006923346
757,0.0328882159537401
758,0.0286178552063114
759,0.0250092003405509
760,0.0223419787063541
761,0.0213660736445935
762,0.0223839922186957
763,0.0234532889321006
764,0.026108634098375
765,0.0283439158136386
766,0.0310252210183817
767,0.0337115041376111
768,0.0348224790027909
769,0.0357827315290542
770,0.0363290975039059
771,0.0365525877105235
772,0.0371442459694639
773,0.0376806049171425
774,0.0368444943672581
775,0.0367637610887655
776,0.0369766637933089
777,0.0364151411530432
778,0.0365657326478369
779,0.0359768214778226
780,0.0361605955810308
