"wavelength","measurement"
380,0.00605701282050499
381,0.00602947262920324
382,0.00616116669289631
383,0.00597965452597132
384,0.00645059346760087
385,0.00665721263264903
386,0.00716523468003196
387,0.00772480242732178
388,0.00794356047151431
389,0.00861619024614643
390,0.00885785211554431
391,0.00889831484616953
392,0.00905600061398021
393,0.00928328071396434
394,0.00958967380354856
395,0.0102685675409641
396,0.0117117017880093
397,0.0132881515158846
398,0.01486460124376
399,0.0164410509716353
400,0.0172703850762091
401,0.018678038766487
402,0.0196553271861957
403,0.0204829016488036
404,0.0210396102265472
405,0.021167716043733
406,0.0220317310079158
407,0.0226256060861851
408,0.0233854299514557
409,0.0241886998843808
410,0.0257902201506803
411,0.0261915888666838
412,0.0272632169644988
413,0.0282930815594736
414,0.028635090174835
415,0.0291463761624602
416,0.0293663114709017
417,0.0296374072769246
418,0.0299829150799687
419,0.0298706193085296
420,0.0309370606500056
421,0.0307305224592224
422,0.0311295927844068
423,0.031631288881582
424,0.0320276575273078
425,0.0315253534662067
426,0.031298488204069
427,0.030755921320604
428,0.02977548128823
429,0.0298174424647574
430,0.0302989263926434
431,0.0313490332768996
432,0.0325416888761664
433,0.0337259077392778
434,0.0352261025862805
435,0.0359612797625733
436,0.036635961409936
437,0.0372511843718437
438,0.0378664073337515
439,0.0384816302956592
440,0.0391120386884189
441,0.0398253380658982
442,0.0411655656569576
443,0.0414189713748788
444,0.0422750364887281
445,0.0431311016025774
446,0.0439871667164267
447,0.044806032916807
448,0.0452735563102375
449,0.0472385214090331
450,0.046988716321902
451,0.0470067712939865
452,0.0470869357351922
453,0.0471671001763978
454,0.0472472646176034
455,0.0473425684580461
456,0.0476097095263336
457,0.0481329243137013
458,0.0487405105349958
459,0.0495184510590786
460,0.0497021847139898
461,0.0494984094099777
462,0.0511475580136696
463,0.0497860454655885
464,0.0492739692452395
465,0.0492156902001788
466,0.0486019416371524
467,0.0487158236858081
468,0.0485133882153953
469,0.048120287755389
470,0.0493772491471917
471,0.0494657667400738
472,0.0497492866653631
473,0.0504183104539939
474,0.0508701126379111
475,0.0516303217833632
476,0.0506982555973578
477,0.0508238607703846
478,0.0509494659434113
479,0.0510750711164381
480,0.0513126005695742
481,0.0501814205972853
482,0.0493427491220939
483,0.0492895067620917
484,0.0482258152164935
485,0.0472170809402189
486,0.0476413662327145
487,0.0483553535624133
488,0.0486025723223707
489,0.0501044193307063
490,0.0502501570903517
491,0.0511131284660612
492,0.0521696539254361
493,0.0516749810736774
494,0.0525186687278769
495,0.0520150365940512
496,0.0523315563289207
497,0.051408160189181
498,0.0517092245382294
499,0.0507386241539982
500,0.0511747579229585
501,0.050694728667269
502,0.0515907887162494
503,0.051979203489258
504,0.0516086215856248
505,0.053244290768651
506,0.053164369069902
507,0.0533904421192403
508,0.0537396116810731
509,0.0538195671711947
510,0.0531395304701179
511,0.0537845463061785
512,0.0536203251324486
513,0.0522074963075447
514,0.0519453363568539
515,0.0509609044774177
516,0.050693385037125
517,0.0507192516362039
518,0.0506120867501902
519,0.0516219417958741
520,0.0525929855925605
521,0.0532475964801113
522,0.053902207367662
523,0.0545568182552127
524,0.0544592108368853
525,0.0546563133287868
526,0.0548436040534565
527,0.0547294244210636
528,0.0548813781131131
529,0.0556150064194238
530,0.0556697622650977
531,0.0558418813867784
532,0.0557742311196537
533,0.0562112650049346
534,0.0563972199509598
535,0.0558153550223116
536,0.0564063703032111
537,0.0560971499667738
538,0.0558639075418691
539,0.055634909130747
540,0.0562255309737601
541,0.055937818828266
542,0.0559073694756658
543,0.0562644100775527
544,0.0566928902252118
545,0.0561173213280997
546,0.056463074046785
547,0.0562322871389796
548,0.0560015002311741
549,0.0557707133233687
550,0.0551040402923453
551,0.05552063619933
552,0.0561915104558434
553,0.0554529200796099
554,0.055208468913858
555,0.0558247741342348
556,0.0549395585978422
557,0.0548202654759119
558,0.0545278167750962
559,0.0540207012308356
560,0.0546736244800703
561,0.0537061948489324
562,0.0547125258092211
563,0.0538155486853992
564,0.0542198037348408
565,0.05332700255753
566,0.0529590369037327
567,0.0524536955800182
568,0.0527677185121326
569,0.052199900415891
570,0.0520068163957164
571,0.0523635354618326
572,0.0521828497045519
573,0.0521103836795907
574,0.0523942280817011
575,0.0517529565313715
576,0.0518659052401204
577,0.0519788539488693
578,0.0520918026576182
579,0.0522047513663671
580,0.0523177000751159
581,0.0529561382600112
582,0.0526223146100831
583,0.0528786404928146
584,0.0518682181834023
585,0.0517927442957478
586,0.050165753801312
587,0.049334098285621
588,0.0487661732353985
589,0.0481982481851759
590,0.0476303231349534
591,0.0477029372945589
592,0.0481644707618293
593,0.0481174322415822
594,0.048777332667453
595,0.0485360835962141
596,0.0488375019616541
597,0.0490521872357477
598,0.0489424731989919
599,0.0489970287668803
600,0.0493243125949908
601,0.0494190946098215
602,0.0496955826852315
603,0.0494798580484743
604,0.0498476392506235
605,0.0495423332298957
606,0.0496779928434241
607,0.0493890772255263
608,0.0489276672595559
609,0.0489820457597695
610,0.0486884773615337
611,0.0484074953972936
612,0.0479216571381397
613,0.0474847867765167
614,0.0467640917462993
615,0.0470971331119723
616,0.0464508882094768
617,0.0467506696861837
618,0.0465051561156393
619,0.0465959511569243
620,0.0462820407937049
621,0.0465086914557078
622,0.0455752307833172
623,0.0453645731615613
624,0.0449853723813439
625,0.0446061716011265
626,0.0442269708209091
627,0.0439766761616247
628,0.0437898475088247
629,0.0435964165840999
630,0.0439094893230528
631,0.043257047330212
632,0.0434167253716117
633,0.0435687537662954
634,0.0434648129185481
635,0.0435245282899143
636,0.0431297468018876
637,0.0433869477678145
638,0.0430918468004746
639,0.0431119086345725
640,0.0428706855726337
641,0.0425752376399029
642,0.0421549734285977
643,0.0417807939739031
644,0.0414066145192086
645,0.0410324350645141
646,0.0410979243387114
647,0.0410077871850933
648,0.0398299512828162
649,0.0405986097296336
650,0.0399894449110627
651,0.0402829565657176
652,0.0397129279279731
653,0.0388834460148343
654,0.0382649705717311
655,0.0385176043578446
656,0.0377672501928277
657,0.0380938692330448
658,0.0385013215406504
659,0.0394755266822041
660,0.0395636949188366
661,0.0397056550359491
662,0.0397366409201298
663,0.0395084854165388
664,0.0391070126491285
665,0.0392054244683357
666,0.0390132844068918
667,0.0390292854112642
668,0.0390566776203444
669,0.0383326328343324
670,0.0382281927031093
671,0.0379786891080617
672,0.0377304166835651
673,0.0377544961885486
674,0.037691258860128
675,0.0375234577650126
676,0.037423665054629
677,0.0374552436587104
678,0.0369914718375276
679,0.0367904516801209
680,0.0377121041202849
681,0.0367155905182244
682,0.0359114618615367
683,0.035054711135814
684,0.0338969434439591
685,0.0328309083384355
686,0.0319160421479844
687,0.0313164891159815
688,0.0308781862964976
689,0.0310156041627512
690,0.0314753405431171
691,0.0322072056027335
692,0.032132799635289
693,0.032595395360997
694,0.0326697741001662
695,0.0326951763085708
696,0.0334899585712652
697,0.0336302789186053
698,0.0330397185837881
699,0.0331408932986007
700,0.0335193328036826
701,0.0333836213007796
702,0.0338416135019105
703,0.0340259369141133
704,0.0345034083608968
705,0.0344713255282459
706,0.0349435706049913
707,0.0353283136069625
708,0.0354031913565896
709,0.0358500676198914
710,0.0354419950832564
711,0.0353219368641324
712,0.0355222083021208
713,0.0338653088575373
714,0.0331863693327549
715,0.0313229472698956
716,0.0298322736997319
717,0.0286544352676417
718,0.0282617961292766
719,0.0282109648668744
720,0.0285803014110285
721,0.0282429708264304
722,0.0290504903390267
723,0.0288486907928214
724,0.0286589675251331
725,0.0285869585889898
726,0.0285645046936031
727,0.0288091252796028
728,0.0290638053553249
729,0.0296427742043238
730,0.0301817923476904
731,0.0311739816772542
732,0.0320390161627875
733,0.0327802465843559
734,0.0334220346253515
735,0.0335020775323302
736,0.033673131613348
737,0.0338512197787404
738,0.0340293079441327
739,0.0342073961095251
740,0.0345762614243287
741,0.0346917936944076
742,0.0347648885419524
743,0.0348379833894972
744,0.034911078237042
745,0.0350560747465129
746,0.0348925873593011
747,0.0348573429807157
748,0.0343205267515218
749,0.0342088221742033
750,0.0343073666994597
751,0.0335652172046249
752,0.034280429936664
753,0.0336223240485928
754,0.0332640822376597
755,0.0310943511890462
756,0.0289246201404327
757,0.0267548890918191
758,0.023371140189438
759,0.0202876754415148
760,0.0179516518535206
761,0.0176211106363271
762,0.0179415870227428
763,0.0193468780042142
764,0.0210618225940981
765,0.0229792134352667
766,0.0252409486251303
767,0.0274159239099256
768,0.0284705794724656
769,0.0292143968144632
770,0.0298460467789309
771,0.0302362084799006
772,0.0304036596299701
773,0.0305613669687602
774,0.0304000172099459
775,0.0302334126446718
776,0.0302376740523698
777,0.0297131476520636
778,0.0300258722761924
779,0.0297158749614588
780,0.0298073535916028
