"wavelength","measurement"
380,0.0346587043746386
381,0.0341211573979478
382,0.0338428825780712
383,0.0334777940998198
384,0.0327518482332966
385,0.0355438531952339
386,0.0370992949649469
387,0.0390324897823155
388,0.0413791775192362
389,0.0426296427284575
390,0.0430348860508528
391,0.0421672193314251
392,0.0433058664473032
393,0.0437992358392728
394,0.04445435786866
395,0.0487275684618325
396,0.0542018818978297
397,0.0614935133283084
398,0.0687851447587871
399,0.0760767761892659
400,0.079327925799002
401,0.0853907910085289
402,0.0887251367168094
403,0.091779924181744
404,0.0934442318259254
405,0.0951509597790081
406,0.0987318987632184
407,0.100918157713821
408,0.102865509732627
409,0.106760779730969
410,0.112758782562071
411,0.11448961287973
412,0.119356111470516
413,0.122154863432943
414,0.124561708777209
415,0.127338623443008
416,0.127326180419614
417,0.127904989541665
418,0.131037802690232
419,0.130222563015334
420,0.133470344999507
421,0.134474988985538
422,0.136210111296459
423,0.13901413967987
424,0.139172555122916
425,0.137073427548437
426,0.136434745909823
427,0.133611948845836
428,0.129898159351299
429,0.12952997534808
430,0.130109816897423
431,0.135297316562794
432,0.139792788881112
433,0.144698705732084
434,0.150551609268144
435,0.153779098626114
436,0.155589573213623
437,0.158009451579642
438,0.160429329945662
439,0.162849208311681
440,0.163042635948339
441,0.166349071006427
442,0.169362440461725
443,0.171380440637635
444,0.173559021606939
445,0.175737602576243
446,0.177916183545548
447,0.179297313366503
448,0.180366901444009
449,0.186619263478104
450,0.184116089693036
451,0.182846615914872
452,0.182437887141014
453,0.182029158367157
454,0.181620429593299
455,0.180108747791079
456,0.180536481643243
457,0.181935354822699
458,0.18319430531268
459,0.186396640772867
460,0.185661356951033
461,0.184749781876365
462,0.189510176938288
463,0.184694938416657
464,0.182306521396171
465,0.18166550988131
466,0.179631588187788
467,0.17904121154954
468,0.178241254139839
469,0.176903451332195
470,0.180966185735563
471,0.180738104147234
472,0.182076553860852
473,0.184241132084292
474,0.184952897697902
475,0.187817331068433
476,0.184146240195035
477,0.184510889529455
478,0.184875538863874
479,0.185240188198294
480,0.184798973937115
481,0.180460535683723
482,0.177366349806488
483,0.177516072154232
484,0.172400224991764
485,0.168652321473219
486,0.170128981139559
487,0.171229326129082
488,0.172657819591616
489,0.176928534726102
490,0.177940616190703
491,0.178838836921423
492,0.183475086624594
493,0.181494911983374
494,0.183900711618966
495,0.181421035092442
496,0.182316406953012
497,0.179527408773867
498,0.179818249459766
499,0.175667079949835
500,0.176872767912213
501,0.175175252071274
502,0.177835648767905
503,0.179130536252394
504,0.176946758690409
505,0.182472005861193
506,0.181116380624761
507,0.182043399585138
508,0.182972937560522
509,0.182747072916333
510,0.17961656351326
511,0.181336306995353
512,0.180436803924081
513,0.174981708399089
514,0.174008882254998
515,0.170404372653376
516,0.169043388673158
517,0.168660806392879
518,0.167606215877193
519,0.171181983489704
520,0.173170336242
521,0.175166547850085
522,0.177162759458169
523,0.179158971066254
524,0.178511732253313
525,0.178586578760235
526,0.179097468790286
527,0.178257821161945
528,0.178303588204685
529,0.180929359820322
530,0.180446680011363
531,0.180876495138565
532,0.180394924856123
533,0.181416528233158
534,0.18186934444797
535,0.179867289538592
536,0.181427956042332
537,0.180211625717571
538,0.178703241864001
539,0.177371654857661
540,0.178601625517582
541,0.17727267504728
542,0.175688961452294
543,0.176575591524455
544,0.178020613494461
545,0.176877224847117
546,0.178072296814233
547,0.178123034772637
548,0.17817377273104
549,0.178224510689444
550,0.176087251376048
551,0.177397842764814
552,0.179417169407239
553,0.176982263049092
554,0.177040908022405
555,0.178265357135032
556,0.175685303616213
557,0.17503355885061
558,0.173884184664614
559,0.172372811426351
560,0.174294310966441
561,0.171200843973553
562,0.174551573676979
563,0.171868863999082
564,0.172704130096958
565,0.170573318994756
566,0.169072104878922
567,0.167343317716323
568,0.168374659232463
569,0.166837527649503
570,0.16672444655137
571,0.16689963825618
572,0.167045855195686
573,0.166717254417977
574,0.168706778793079
575,0.166151781589325
576,0.166775834321976
577,0.167399887054626
578,0.168023939787277
579,0.168647992519927
580,0.169272045252578
581,0.171658832230466
582,0.170951746370527
583,0.172324830793955
584,0.169763645426352
585,0.168901248659264
586,0.165098270560112
587,0.162855138486604
588,0.161519960427955
589,0.160184782369307
590,0.158849604310659
591,0.160034923045958
592,0.161899026433276
593,0.161919731006809
594,0.164573261733308
595,0.16490971852479
596,0.166382538686257
597,0.167058737370326
598,0.167504122510259
599,0.168054440205778
600,0.16969248307015
601,0.170500071677818
602,0.171079974544667
603,0.171285828158634
604,0.173365253597925
605,0.172202558059323
606,0.173288363303463
607,0.172311550067794
608,0.170369010300135
609,0.170256038654215
610,0.16947236642241
611,0.16887820775018
612,0.167148994151601
613,0.16733146535439
614,0.165365170128627
615,0.167891598645215
616,0.165542634609714
617,0.167133878528454
618,0.167419819152403
619,0.168212491179875
620,0.167784772049962
621,0.169096464265295
622,0.166075951140087
623,0.165731393517085
624,0.164980804949289
625,0.164230216381492
626,0.163479627813696
627,0.163746920412152
628,0.163076205491215
629,0.163100340213061
630,0.164302569498252
631,0.162523426979815
632,0.163655745564533
633,0.164465879485934
634,0.165033044261658
635,0.165959881804788
636,0.164166421526076
637,0.166475686111796
638,0.16560384780948
639,0.165825234546858
640,0.165512368335355
641,0.16504672574382
642,0.164141458790129
643,0.163206730579519
644,0.162272002368909
645,0.161337274158299
646,0.161730718680188
647,0.161862609727724
648,0.158585930605343
649,0.162139874938639
650,0.160183015432888
651,0.161666907453504
652,0.160346805300296
653,0.157889439434319
654,0.154896800746677
655,0.15710992282949
656,0.155008306995894
657,0.157238320314744
658,0.158356789105472
659,0.162900746607952
660,0.163818582691787
661,0.16525583496678
662,0.166059892250061
663,0.165432380914426
664,0.164587284395173
665,0.165504165683819
666,0.166181006446024
667,0.165496144618664
668,0.166885379128091
669,0.164081340322809
670,0.164321101557437
671,0.164389448472659
672,0.163575921364738
673,0.164177504101508
674,0.164719598461281
675,0.164685537467305
676,0.164724917655615
677,0.166362150470599
678,0.164413302178538
679,0.164115719915894
680,0.167770984128236
681,0.165208174010201
682,0.161996577980144
683,0.159444374647281
684,0.154055806495348
685,0.150023333874621
686,0.147207791555078
687,0.144778888879381
688,0.143927658359038
689,0.144396518274068
690,0.147165741632289
691,0.150433470550508
692,0.151162499954878
693,0.152643555174834
694,0.155044110521337
695,0.156102703023821
696,0.159280167941511
697,0.160638668393838
698,0.15952029753406
699,0.160184680975981
700,0.163769202849146
701,0.163354194125527
702,0.166914587976189
703,0.167472600434109
704,0.170863244093023
705,0.171511504878145
706,0.174783388798553
707,0.177486944987976
708,0.178451249632074
709,0.18168662061465
710,0.180016454619624
711,0.181054665996388
712,0.18228557258207
713,0.175441017297775
714,0.17288032975379
715,0.164810567150048
716,0.157970854335779
717,0.153409461441482
718,0.15272431382758
719,0.153659758358969
720,0.156679481863352
721,0.155363264633015
722,0.160600162683686
723,0.159897027906719
724,0.160578168709742
725,0.161529229003777
726,0.162158751854546
727,0.164763315320658
728,0.167505236286989
729,0.1721087405877
730,0.176343780268066
731,0.182318041946163
732,0.187740988684427
733,0.193608034604501
734,0.198298887014759
735,0.200787574524316
736,0.20317773798334
737,0.2052275422056
738,0.207277346427861
739,0.209327150650122
740,0.21371903631652
741,0.215837074682832
742,0.217867140907508
743,0.219897207132184
744,0.221927273356859
745,0.223387645483301
746,0.223580206013379
747,0.225159799320578
748,0.224084223222286
749,0.224558992518343
750,0.225739922412745
751,0.224507174770718
752,0.228036485647799
753,0.227755337032191
754,0.223791611993421
755,0.210114563149935
756,0.196437514306449
757,0.182760465462963
758,0.160400715139557
759,0.140647087981765
760,0.126716607743552
761,0.124373704883767
762,0.129448982629497
763,0.138605195671282
764,0.152907149508748
765,0.166934196158859
766,0.183840158894482
767,0.199311279544667
768,0.208038816196677
769,0.215330815668236
770,0.220818258075596
771,0.222583489865078
772,0.22577094370324
773,0.228923927721522
774,0.227280086802866
775,0.22811097166175
776,0.22956733774109
777,0.225977832949497
778,0.229771404514668
779,0.227208795703353
780,0.230302729980147
