"wavelength","measurement"
380,0.00577737359310405
381,0.00564828307077458
382,0.00556820703969985
383,0.0054446465392116
384,0.00553743483753951
385,0.00576085574877889
386,0.0060498838750651
387,0.00645196917227098
388,0.0068210074617456
389,0.00688800060276076
390,0.00702037439309069
391,0.00697582978115325
392,0.00703220407226324
393,0.00715344934465309
394,0.00737474485828624
395,0.00791366815228571
396,0.00890865521000783
397,0.0100100511028186
398,0.0111114469956294
399,0.0122128428884402
400,0.0128818891563836
401,0.0137912919370138
402,0.0145498019345989
403,0.0148666532054528
404,0.0150548614036234
405,0.0153782627944062
406,0.0159463102380509
407,0.016253837485289
408,0.0166094853655085
409,0.0172249262217344
410,0.0182010141884849
411,0.018484737379885
412,0.0193201305603487
413,0.0199710690095616
414,0.0202840899936489
415,0.0207956359750634
416,0.0209505863541591
417,0.0210965365381285
418,0.0217155198810957
419,0.0215759530300683
420,0.0224319235319225
421,0.0226446555906241
422,0.0230547482256918
423,0.0232850679776893
424,0.0235661864782239
425,0.0234356377555558
426,0.0232729275897434
427,0.0228216957080116
428,0.0222933340559098
429,0.0223228747677573
430,0.0225220384267441
431,0.0234477939219357
432,0.0242302255930093
433,0.0250872531259128
434,0.0262538043831381
435,0.0267723972686099
436,0.0270992431827837
437,0.0275600220059662
438,0.0280208008291488
439,0.0284815796523313
440,0.0286270874456116
441,0.0290710958333762
442,0.0298386314550214
443,0.0298080835991388
444,0.030264512132565
445,0.0307209406659912
446,0.0311773691994174
447,0.0316505340954393
448,0.0316537137863914
449,0.0327031550161963
450,0.0325496464643429
451,0.0322111770174669
452,0.0321102674081589
453,0.032009357798851
454,0.031908448189543
455,0.0319555239753803
456,0.0318798173013706
457,0.0320975199058001
458,0.0321776220156112
459,0.0327226494993316
460,0.0326750335527285
461,0.0323409382640004
462,0.0332933334596343
463,0.0322142466818837
464,0.0319480877302301
465,0.0317852232288098
466,0.0313597012806475
467,0.0313111265877059
468,0.0310352129424317
469,0.0308202213598328
470,0.0314110760309471
471,0.0313500681641527
472,0.0314635134091647
473,0.0318977646448999
474,0.0319162881323391
475,0.0323820182743935
476,0.0316237504867542
477,0.0316571606799643
478,0.0316905708731744
479,0.0317239810663845
480,0.0314904012404694
481,0.0307914791660805
482,0.0302150257951505
483,0.0299426384489673
484,0.0293747933789068
485,0.0286770950389861
486,0.0289333003020274
487,0.0291080515657711
488,0.0293920467330915
489,0.0302244296907856
490,0.0303341473844999
491,0.0305641753917114
492,0.0313025746695607
493,0.0310016646184401
494,0.031498501950492
495,0.0310745944807644
496,0.0312682390542693
497,0.0307459697875096
498,0.030931620551581
499,0.0303085072106277
500,0.0304744798101307
501,0.0302333385554544
502,0.0307755667323885
503,0.030970631692097
504,0.0306835107364913
505,0.031693879047648
506,0.0316083003069969
507,0.0317644959536077
508,0.0319784497677317
509,0.0320081856744139
510,0.0315766873670696
511,0.0320475520802226
512,0.0318485883825086
513,0.0309038967553552
514,0.0308608736064502
515,0.0303092177655065
516,0.0302510581986318
517,0.0301433882958433
518,0.0301345949878659
519,0.0308767146568098
520,0.031405987009965
521,0.0318327507827376
522,0.0322595145555101
523,0.0326862783282826
524,0.0326073060849559
525,0.0327425805622198
526,0.0329242174362335
527,0.0328300818596369
528,0.033050028265943
529,0.0335476549435904
530,0.0335646177865034
531,0.0337654882408623
532,0.0336635801906346
533,0.0339705422137292
534,0.034182822066694
535,0.0338385359365699
536,0.03419887071489
537,0.0339428089037317
538,0.0337580272416287
539,0.0336424341893313
540,0.033816292359311
541,0.0336364482861604
542,0.0335162770067771
543,0.0337358444041748
544,0.033935273369596
545,0.033700938345055
546,0.0340366906429594
547,0.0340262155766443
548,0.0340157405103293
549,0.0340052654440142
550,0.0337856697317509
551,0.0341659869989178
552,0.0344825892266132
553,0.0340775910069938
554,0.034109485003114
555,0.0343599567340689
556,0.0339677358991577
557,0.0339219234179788
558,0.0337562521851076
559,0.0334982704490593
560,0.0338352774937823
561,0.0333748793316707
562,0.033974330318797
563,0.0334881641315153
564,0.0336725669206641
565,0.0332593456114608
566,0.0330958509316042
567,0.0326890707334897
568,0.032905298148751
569,0.0325252910522167
570,0.0325490791481355
571,0.0326979617855588
572,0.0326489579609838
573,0.0326589478997606
574,0.0328843808817437
575,0.0324508376492743
576,0.0325406384029383
577,0.0326304391566023
578,0.0327202399102663
579,0.0328100406639302
580,0.0328998414175942
581,0.0333972914730824
582,0.0332191344686386
583,0.0334004500406319
584,0.0328831372964183
585,0.0327093831058991
586,0.0318740160680451
587,0.03137280912045
588,0.0310563185027258
589,0.0307398278850016
590,0.0304233372672774
591,0.0305744367149205
592,0.0309007860951734
593,0.0310541190805908
594,0.0315023496832528
595,0.0313592908185102
596,0.031688582972218
597,0.0318238415887208
598,0.0319319875462863
599,0.0319813029509453
600,0.0322881341125987
601,0.0324329791588644
602,0.0326523430280949
603,0.0325311126533673
604,0.0328596674992677
605,0.0326326641292225
606,0.0327793787986438
607,0.0325800088488854
608,0.0322410091115982
609,0.0322643351812463
610,0.0319724066307817
611,0.0318912609465361
612,0.0315619402739084
613,0.0315173870955583
614,0.0311568383454866
615,0.0315139059096726
616,0.0311437463483812
617,0.0314392795465471
618,0.0314500629846518
619,0.0315526392154764
620,0.0314807441451213
621,0.0316630845511642
622,0.0311765111965331
623,0.0310480563094546
624,0.0308967756597999
625,0.0307454950101451
626,0.0305942143604904
627,0.0305490630433515
628,0.0304339145666414
629,0.0304362638938635
630,0.0306457615466103
631,0.0302892020444279
632,0.0305225892636659
633,0.0306365060850766
634,0.0307277658932756
635,0.0308988329954081
636,0.0306200880812127
637,0.0308897919492554
638,0.0306791390160205
639,0.0308684307210322
640,0.0306507887838036
641,0.0305723074196672
642,0.0304491348786241
643,0.0302273543719639
644,0.0300055738653037
645,0.0297837933586435
646,0.0299311927421597
647,0.0298801558870609
648,0.0292907845476037
649,0.0298486860895493
650,0.0295158113509567
651,0.0298049404952622
652,0.0293935824637257
653,0.0289538395474138
654,0.0284639857254455
655,0.0287979260297719
656,0.0283760851422315
657,0.0287160202736053
658,0.0290663430697545
659,0.0298819845239353
660,0.0300758371956939
661,0.0301944040915082
662,0.0303926874470443
663,0.0302243751384082
664,0.0301010412025079
665,0.0302329671710501
666,0.0302544358528174
667,0.0303014665686957
668,0.0303683888869858
669,0.0298854390935277
670,0.0300310413366255
671,0.0299341590597789
672,0.0297863930483468
673,0.029916060841817
674,0.030005793765375
675,0.0300254770709421
676,0.0299591524899157
677,0.0301969536582446
678,0.029901583048158
679,0.0299137028390915
680,0.0306027920185125
681,0.0300768873858154
682,0.0294759439667059
683,0.0289839513969578
684,0.0280366957757011
685,0.0272641914393656
686,0.0267470282246554
687,0.0262360176215635
688,0.0260828038059412
689,0.0262751052988181
690,0.0267004035555224
691,0.0274266782479011
692,0.0275613038047573
693,0.0279265980882386
694,0.0284184940699961
695,0.0286295790827122
696,0.0291670559387447
697,0.0295224109435425
698,0.0293578663173394
699,0.0295842355681326
700,0.0302945417150352
701,0.0302576214896793
702,0.030969046321858
703,0.0313467142326642
704,0.0320738240936445
705,0.0322960646990293
706,0.0329936871930408
707,0.0335755996848457
708,0.0339854173548792
709,0.0346039231264305
710,0.034526385283979
711,0.0348609917351318
712,0.0353148777512326
713,0.034172584141658
714,0.0336756082175652
715,0.0322534229809189
716,0.031051896848219
717,0.0302723153102615
718,0.0302650345421257
719,0.0307609845870105
720,0.0314902817404756
721,0.0314873097521895
722,0.0327098421388193
723,0.0328830838222568
724,0.0331982822082033
725,0.0336211721778716
726,0.0338448022279823
727,0.0347442788721555
728,0.0355787070164454
729,0.036763694828559
730,0.0380796841703935
731,0.0397214806137427
732,0.0412331433488883
733,0.0428787269235517
734,0.0440427539508648
735,0.0449350009394503
736,0.0458853475995674
737,0.0465786633118148
738,0.0472719790240621
739,0.0479652947363094
740,0.0492946799061144
741,0.0497948199702537
742,0.050489321386362
743,0.0511838228024703
744,0.0518783242185785
745,0.0523680097916695
746,0.0525185848652565
747,0.0530433508092069
748,0.052681150892395
749,0.0533764243716553
750,0.0535658833192054
751,0.0535145299911426
752,0.0541668247798131
753,0.0539881394010327
754,0.0535701514691925
755,0.0502349488878838
756,0.0468997463065751
757,0.0435645437252663
758,0.038104406088369
759,0.0332434027161688
760,0.0298824539389745
761,0.029230800517155
762,0.0303927435648052
763,0.0329450431596199
764,0.0364161123764059
765,0.0397268117320611
766,0.0438292101143895
767,0.047881936338304
768,0.0500192572877432
769,0.0516414639353177
770,0.0530122463257485
771,0.0534879771708831
772,0.0543423294256118
773,0.0550077165800614
774,0.0547221929781865
775,0.0548384773177077
776,0.0550136801748656
777,0.0545221910167376
778,0.0553349848788111
779,0.0547208609048808
780,0.0554492124953557
