"wavelength","measurement"
380,0.00543471017976298
381,0.00526643073292238
382,0.00522028674463527
383,0.00515166819633418
384,0.00515538000288419
385,0.0053967400878865
386,0.00560548826507339
387,0.00590591739318782
388,0.00605881354684147
389,0.00626185573061027
390,0.00610579695033653
391,0.00612946277490186
392,0.00611941645523166
393,0.00615984534426799
394,0.00639245784870629
395,0.00680349988311712
396,0.00749090900999302
397,0.00825406662625489
398,0.00901722424251677
399,0.00978038185877864
400,0.0102409293386664
401,0.010719714938181
402,0.0111257500857228
403,0.0112409402788385
404,0.0112400126211483
405,0.0111550192821967
406,0.0113546739510673
407,0.011431450482216
408,0.0115338550376692
409,0.0116828397699875
410,0.012173013543303
411,0.0122491341383101
412,0.0124594341206022
413,0.0126303644788859
414,0.0125843549959262
415,0.0126724863048985
416,0.012413634630646
417,0.012369267250764
418,0.0124527773751591
419,0.012191760477085
420,0.0124525968685392
421,0.0123414443128237
422,0.012436876825785
423,0.0124728838824939
424,0.0124572714749922
425,0.0121277132002486
426,0.0119662361851219
427,0.0116146830465671
428,0.0112626303425983
429,0.0112169193389558
430,0.0112926225450914
431,0.0116161218143153
432,0.0120794079012673
433,0.0124411843012285
434,0.012943568056658
435,0.0131449379338479
436,0.013284957665113
437,0.0134511662867268
438,0.0136173749083407
439,0.0137835835299545
440,0.0138426029915046
441,0.0140344815892063
442,0.0143114442459567
443,0.0144646264652118
444,0.0146751500283937
445,0.0148856735915757
446,0.0150961971547577
447,0.0153278712897914
448,0.0153811382413189
449,0.0158760308841447
450,0.0157130841215943
451,0.0156019790153778
452,0.0155383741353994
453,0.0154747692554209
454,0.0154111643754425
455,0.0153819369512415
456,0.0154342595845591
457,0.0155929826010756
458,0.0156580911263659
459,0.0158961262668402
460,0.015845750176807
461,0.0156886300305068
462,0.016035397484989
463,0.0155409708818678
464,0.0153715580578289
465,0.0152647380478905
466,0.0150546234350972
467,0.0150099113290413
468,0.0149162814987326
469,0.0147590372083828
470,0.0151051474682679
471,0.0150172692478041
472,0.0151375507781326
473,0.0153218772148942
474,0.0153446889229499
475,0.0154898991743599
476,0.0152034717085496
477,0.0151825666046167
478,0.0151616615006838
479,0.0151407563967508
480,0.0150634337873632
481,0.0146469624299966
482,0.0143709879205946
483,0.0143968384843908
484,0.0140254151685519
485,0.0137512184786364
486,0.0139318015231891
487,0.0140469683357224
488,0.0142140429920385
489,0.0145610811801292
490,0.0146468611853519
491,0.0147601821025828
492,0.0151044731825607
493,0.0148777202789228
494,0.0150771523555189
495,0.0148492144728443
496,0.0149021529118423
497,0.0145959531436869
498,0.0146371272438866
499,0.0142844296614012
500,0.0143822874365019
501,0.0142023912927987
502,0.0144142214008727
503,0.0145254100100349
504,0.0143298652978316
505,0.0148047211747296
506,0.0147078734431476
507,0.0147410752159808
508,0.0148098490374024
509,0.0147852110418563
510,0.0145616500078582
511,0.0147300840927933
512,0.0145556988169693
513,0.0141277048064354
514,0.0140162074546999
515,0.0137893070322321
516,0.0137219604624188
517,0.0137084178418513
518,0.0136642810475392
519,0.013878412267669
520,0.0141720387390308
521,0.0142779804486129
522,0.0143839221581951
523,0.0144898638677772
524,0.0144120257287101
525,0.0143839063089613
526,0.0143702677654805
527,0.0143159999204162
528,0.0143437089951865
529,0.0144900734092457
530,0.0144745187636608
531,0.014476657085425
532,0.0144009610033389
533,0.014551596501663
534,0.0145634638485461
535,0.0144233895698438
536,0.014528155995464
537,0.0144203144302205
538,0.0143050390741008
539,0.0141805202291597
540,0.0142339306895708
541,0.0140916799439401
542,0.0140423808719687
543,0.0140916993649653
544,0.0141083074471085
545,0.0139861662179653
546,0.0140925103055855
547,0.0140592750602464
548,0.0140260398149073
549,0.0139928045695682
550,0.0139699604594004
551,0.0140421125585763
552,0.0141332165919679
553,0.013978272555011
554,0.0139114003180258
555,0.014026646828911
556,0.0138073359544237
557,0.0137730889440733
558,0.0136723991176785
559,0.0135138923385683
560,0.0136674354077711
561,0.0133719568981661
562,0.0136090123108043
563,0.0133176376036994
564,0.0133438285226553
565,0.0131255400190022
566,0.0130102600171634
567,0.0128014527528699
568,0.0128691941714515
569,0.0126805395095242
570,0.0126651881933677
571,0.0126627991242875
572,0.0126580499988897
573,0.012608452999417
574,0.0126690957584704
575,0.0125140443518649
576,0.0125830716136975
577,0.0126520988755302
578,0.0127211261373628
579,0.0127901533991955
580,0.0128591806610281
581,0.0130315568609226
582,0.012985518071547
583,0.0130865177382138
584,0.0128273781008309
585,0.0127530346940296
586,0.0123640101800785
587,0.0121639421187078
588,0.0120134302610458
589,0.0118629184033838
590,0.0117124065457218
591,0.0117770178714809
592,0.0119004169104444
593,0.0119067655770389
594,0.0120608934060667
595,0.0120688343809624
596,0.0121702565294722
597,0.0122768394149957
598,0.0123072627303751
599,0.0123268199367229
600,0.0124464043871759
601,0.0125533684079983
602,0.0126374512146012
603,0.0125713205349273
604,0.0126914567045477
605,0.0126375172949433
606,0.0126610056550808
607,0.0125544483634943
608,0.0124613942747852
609,0.0124826398349113
610,0.0124074382427268
611,0.0123121501534951
612,0.0122226477312542
613,0.0121755920296262
614,0.0120571137618607
615,0.0122200313930503
616,0.0121049286599836
617,0.0122440877288721
618,0.0122178712846858
619,0.0122418665563108
620,0.0121996354654225
621,0.0122660037029224
622,0.0120138257284624
623,0.0120274448961267
624,0.0119026341070322
625,0.0117778233179377
626,0.0116530125288431
627,0.0116156264025335
628,0.0115838021312476
629,0.0115475134742974
630,0.0116985925830087
631,0.0115711157487666
632,0.0117043360827821
633,0.0118156521220411
634,0.0118553019329007
635,0.0119735865060723
636,0.0118736662024815
637,0.0119983253161701
638,0.0119491321336636
639,0.0120223497333723
640,0.0119515536880529
641,0.0119537671936457
642,0.0119125953207724
643,0.011799479545188
644,0.0116863637696036
645,0.0115732479940192
646,0.0116345970753116
647,0.0116192803969622
648,0.0114537169469894
649,0.0116840009197476
650,0.0115400691178959
651,0.0116041795938904
652,0.0115021604459073
653,0.0113362087880128
654,0.011172869214673
655,0.0113235484567094
656,0.0112646930489163
657,0.0114270005830183
658,0.0115795226761078
659,0.0118691484203062
660,0.0119671622495889
661,0.0120062413415749
662,0.0120949882125977
663,0.0120590289012836
664,0.0119404630838385
665,0.012010861210366
666,0.0120303557241212
667,0.0120968415535173
668,0.0120970758379234
669,0.0118990313553401
670,0.0119963008209224
671,0.0119496113850627
672,0.0119368977812664
673,0.011968635243703
674,0.0120523705314381
675,0.0120029513407855
676,0.012021844703304
677,0.0121402173879738
678,0.0119967441255056
679,0.0120162655206078
680,0.0122534511714111
681,0.012037115588244
682,0.0116897312410967
683,0.0114030353467371
684,0.0108786027796054
685,0.0104721055111419
686,0.010141067853934
687,0.00998363036829846
688,0.00993853991120853
689,0.0100216981094062
690,0.0102229409418378
691,0.0105567974181557
692,0.0107309117530575
693,0.0108493205290696
694,0.0111249545555929
695,0.0111807994132964
696,0.0114227129521142
697,0.0115042554235492
698,0.0114357502087965
699,0.0115655145692925
700,0.0118392511375954
701,0.0118308458938632
702,0.0121230748942014
703,0.0122086323719876
704,0.0125418906232289
705,0.0126271603970153
706,0.012905410563332
707,0.0131512092573497
708,0.0132290637069894
709,0.0134494072011164
710,0.0133806587504744
711,0.0134049554661883
712,0.0134088084167046
713,0.012826658242773
714,0.0124575672391274
715,0.0118240912426816
716,0.0112601996010048
717,0.0109632528425953
718,0.0109173480852865
719,0.0110768039131346
720,0.0112763016362057
721,0.0111841468268296
722,0.0115236071583821
723,0.0115216808286241
724,0.0115388245126422
725,0.0116348006782149
726,0.0116921646600366
727,0.0120152640052236
728,0.0123147930996539
729,0.0126699483152583
730,0.0131598147316919
731,0.0137434916532513
732,0.0142312358400306
733,0.0147702337969949
734,0.015134204837015
735,0.0152949713659698
736,0.0155947635343826
737,0.0158196763092709
738,0.0160445890841591
739,0.0162695018590473
740,0.0166214066950717
741,0.0167907212056605
742,0.0169369963519029
743,0.0170832714981454
744,0.0172295466443878
745,0.0173410401281994
746,0.0173210921474258
747,0.0174598869553739
748,0.0172961043860838
749,0.0173743130874371
750,0.0173677183161456
751,0.0173689809813346
752,0.0175742635908719
753,0.0174277384922218
754,0.0169570745331853
755,0.0155596950616918
756,0.0141623155901984
757,0.012764936118705
758,0.0106563023697845
759,0.00895135441042444
760,0.00804069689976609
761,0.00786180198677794
762,0.00829866803162673
763,0.00929400999270262
764,0.0106059393529881
765,0.0118566136385057
766,0.01334261421171
767,0.0147460036705676
768,0.0155529992381262
769,0.0161027818683359
770,0.0165897155088483
771,0.016866733259724
772,0.0170900091585701
773,0.0172736472573445
774,0.0172033772051691
775,0.0173290423491175
776,0.0173395710747815
777,0.0171551682764726
778,0.0173722334924124
779,0.0172106977408457
780,0.0174395385574847
