"wavelength","measurement"
380,0.03197059189578
381,0.0307963793327355
382,0.0301445093671838
383,0.0295434664046418
384,0.029690992413003
385,0.0311160646795795
386,0.0323718467897035
387,0.0337471928530065
388,0.0351780239306918
389,0.0360446931426846
390,0.0356144764059522
391,0.034947166287613
392,0.0349890251319223
393,0.0350784002381294
394,0.0352810206116438
395,0.0373371788791814
396,0.0409581697892841
397,0.0451571521861217
398,0.0493561345829594
399,0.0535551169797971
400,0.0556282134840833
401,0.058384261114465
402,0.0601425467556445
403,0.0603025266858886
404,0.0598725567907495
405,0.0597837313587545
406,0.0602051119174905
407,0.0605917920134947
408,0.0602246635266106
409,0.0612088965843196
410,0.0636200632221463
411,0.0634036867413412
412,0.0648504741362423
413,0.0655184736156344
414,0.0655010505878494
415,0.0660535602936628
416,0.0652397878584924
417,0.0644983783521849
418,0.0652646807311823
419,0.0638030278060637
420,0.0652587523860027
421,0.0650329734952726
422,0.0652244345715788
423,0.0655253248997496
424,0.0660658729997882
425,0.0646290512084789
426,0.063976960991817
427,0.0621761426280028
428,0.0599562625526878
429,0.0598310072416522
430,0.0600214398551785
431,0.062137047509292
432,0.0643172536019306
433,0.0665207012090139
434,0.0693846256154045
435,0.0706858164300469
436,0.0712541098242589
437,0.0724362632210769
438,0.073618416617895
439,0.074800570014713
440,0.0753523518937907
441,0.0764977602275519
442,0.0783662245875243
443,0.0790539739859549
444,0.0802499891136564
445,0.0814460042413579
446,0.0826420193690594
447,0.0842364693978607
448,0.084253184240163
449,0.0878742024324944
450,0.0872578287284965
451,0.08686812026238
452,0.0866496736721155
453,0.086431227081851
454,0.0862127804915865
455,0.0860724608177333
456,0.0865300326424017
457,0.0872647317183362
458,0.0880955266788671
459,0.0894343087962752
460,0.0896412906368355
461,0.0888635939675715
462,0.0913043474989179
463,0.0890988764011431
464,0.0878795448557906
465,0.0870520175954836
466,0.0864839133713766
467,0.0858502134993111
468,0.0851565352039904
469,0.0846796129381097
470,0.0863445848068939
471,0.086237877791707
472,0.0867617298171041
473,0.0878806465203019
474,0.0882008595792009
475,0.0892545113819112
476,0.0876612998414836
477,0.0876833884015997
478,0.0877054769617158
479,0.0877275655218319
480,0.0876089557052082
481,0.0854411728641912
482,0.0839030959037739
483,0.0834221289802358
484,0.0815551366498934
485,0.0799477597826328
486,0.0805687144671847
487,0.0812749466460478
488,0.0818855418385561
489,0.0843783333848918
490,0.0849598725982797
491,0.0859379201264498
492,0.0880483255636194
493,0.0870081275442076
494,0.0884094909912926
495,0.0871329640994816
496,0.0876820761945146
497,0.0860241473892148
498,0.0865679158971811
499,0.0845045125428492
500,0.0852459572615999
501,0.0843133398778855
502,0.0857267149261902
503,0.0861456606834465
504,0.0852716440331752
505,0.0881518376033747
506,0.087505342379513
507,0.0881344701522338
508,0.0886082711261833
509,0.0886517894909758
510,0.0874102333841501
511,0.0886476919011786
512,0.0878392731156506
513,0.0854412029639859
514,0.0847301373939568
515,0.0833867816240138
516,0.0828151899401312
517,0.082686311136096
518,0.082375894838679
519,0.0840142716547609
520,0.0855925998710957
521,0.0865880685185337
522,0.0875835371659717
523,0.0885790058134097
524,0.0880261533763057
525,0.0881017494302343
526,0.0885451819678444
527,0.0877853545841535
528,0.0883800057561134
529,0.0895658412085522
530,0.0895055159655797
531,0.0897341275115355
532,0.0894560846666738
533,0.090378168561508
534,0.0906441931787172
535,0.0895953149660919
536,0.0905849483627817
537,0.0898649401341207
538,0.0891882993640425
539,0.0886665262244772
540,0.0892869359406261
541,0.088471738123088
542,0.0880857844245279
543,0.0883591844869249
544,0.0888833646704363
545,0.0882130937053458
546,0.0888700334849755
547,0.088837745862873
548,0.0888054582407705
549,0.088773170618668
550,0.0885571836794191
551,0.0891670590187183
552,0.0899018020408198
553,0.088877956296684
554,0.0888884815757711
555,0.0896302689811121
556,0.0884868480886721
557,0.0882929506019347
558,0.0878580932123194
559,0.0870944853172226
560,0.0883000872763757
561,0.0867669218698784
562,0.0882805036887844
563,0.0869284054078715
564,0.0874166741874819
565,0.0861948018547142
566,0.0855107884458545
567,0.0844672535229849
568,0.0852591467720779
569,0.0839256219141796
570,0.0840148478827162
571,0.0841813592342186
572,0.0841838897197634
573,0.0842351973328148
574,0.0848024831993539
575,0.0836879416362523
576,0.0840227129114586
577,0.0843574841866649
578,0.0846922554618712
579,0.0850270267370775
580,0.0853617980122838
581,0.0865693573218382
582,0.0861070216119492
583,0.0865940868416669
584,0.0851178758070415
585,0.0845424835537415
586,0.0819829476679163
587,0.080547926696992
588,0.0794271514725896
589,0.0783063762481871
590,0.0771856010237847
591,0.0775590864419189
592,0.0782236634528838
593,0.0785947094743274
594,0.0797551252911144
595,0.0798454581269573
596,0.0806618660101235
597,0.0811299583556103
598,0.0813981906347827
599,0.0816383653647587
600,0.0825570377825631
601,0.0832296947303255
602,0.0837431994803368
603,0.0833309298536675
604,0.0841993129370542
605,0.0838257001908067
606,0.0839757374700715
607,0.0835885500992416
608,0.0827174888529692
609,0.0825586424318321
610,0.0820038437924593
611,0.0815144668446638
612,0.0808606470451798
613,0.080447817576294
614,0.0795562812646202
615,0.0809266757104395
616,0.0798461363267936
617,0.0804237972940339
618,0.0804180714979089
619,0.08064294531535
620,0.0803894144108061
621,0.0809341178272532
622,0.0793019944332051
623,0.0792889228379345
624,0.0785393906680984
625,0.0777898584982622
626,0.0770403263284261
627,0.0770631902704237
628,0.0768128417896511
629,0.0764330950842493
630,0.0772130857866127
631,0.0763113221450219
632,0.076826848860411
633,0.0775061968930873
634,0.0778719161116273
635,0.0782509976959768
636,0.0776445472159867
637,0.0785863811396356
638,0.0780476419897571
639,0.078476265426021
640,0.0780409180350763
641,0.0778535302641303
642,0.0772356895865532
643,0.0766064246752576
644,0.075977159763962
645,0.0753478948526664
646,0.0753974780232411
647,0.0750099445541825
648,0.0738529312225298
649,0.0749368274492628
650,0.0741980243721605
651,0.0751526757057259
652,0.0742328823490054
653,0.0731774386896279
654,0.0718739759686216
655,0.072518093457037
656,0.0722786236317498
657,0.0728511658974803
658,0.0738555445907586
659,0.0758322186623421
660,0.0766427398286845
661,0.076853438263907
662,0.0773551738263149
663,0.0771219442374388
664,0.0767114386855881
665,0.0768764725367365
666,0.0770332651948187
667,0.0770555635123961
668,0.0773273856574383
669,0.0758957260019309
670,0.0763639260604551
671,0.0760488553842024
672,0.0756908581895953
673,0.0761071346987897
674,0.0763568622757223
675,0.0760885356305984
676,0.0760071904025225
677,0.0767336777740317
678,0.0758545552142811
679,0.0758424943321628
680,0.0772327659654399
681,0.0759053360436737
682,0.074194611093774
683,0.0728470460339312
684,0.0696357935337959
685,0.0674057720508978
686,0.0655968718774384
687,0.0637337569801592
688,0.0635310239430237
689,0.0637579553722144
690,0.0647138813998006
691,0.0662634964315206
692,0.0664309274592352
693,0.0675897119470618
694,0.0687543417972738
695,0.0692138496537055
696,0.0703847003496699
697,0.0712413170247621
698,0.0702608473260504
699,0.0706801191588798
700,0.0721489745032308
701,0.0718009670873208
702,0.0733943042577254
703,0.0737121993349122
704,0.075470175831999
705,0.0758872262612455
706,0.077194728475843
707,0.0785645053609546
708,0.0788912305836155
709,0.0801620962075183
710,0.0792478595655706
711,0.079720693380635
712,0.0794728173463924
713,0.0763630799395919
714,0.0742627097947888
715,0.0698207962190493
716,0.0659570842593147
717,0.0634023567047885
718,0.0627467206808729
719,0.0629982469622303
720,0.0640587392672558
721,0.0636711660296104
722,0.0656813210069666
723,0.0654029403769885
724,0.0652746214282622
725,0.0656031192292439
726,0.0652097100650627
727,0.0666353384619327
728,0.0679652871412753
729,0.0700255380423871
730,0.0720378981876508
731,0.0751297281887244
732,0.0777496692886585
733,0.0809379810069643
734,0.0828631212213966
735,0.0838562796998364
736,0.0857211506437979
737,0.0865652783097645
738,0.087409405975731
739,0.0882535336416976
740,0.090494723427217
741,0.0910154198152719
742,0.0918057866844808
743,0.0925961535536897
744,0.0933865204228986
745,0.0938300537374524
746,0.093920330935518
747,0.0943318288464674
748,0.0934581252357616
749,0.0940049099602627
750,0.0940400188877935
751,0.0939746359831729
752,0.0950831723055466
753,0.0942078066957779
754,0.0932155967626254
755,0.0865630122743258
756,0.0799104277860262
757,0.0732578432977267
758,0.062620347559109
759,0.053308798318524
760,0.0469250071746475
761,0.045378138666119
762,0.0470520335635731
763,0.0515176453796193
764,0.0578564529784278
765,0.0642101743220687
766,0.0721255337711449
767,0.0790783757329549
768,0.0836604094435408
769,0.0868119751392819
770,0.0894639260001577
771,0.0904054186739254
772,0.0919625588950674
773,0.0932141257347407
774,0.0927927682619221
775,0.0930999642463961
776,0.09353344291991
777,0.0926117806256941
778,0.0938267292186056
779,0.092930491614684
780,0.0942296911713708
