"wavelength","measurement"
380,0.00766767671331943
381,0.00736327150473892
382,0.00740345729039503
383,0.0073515476580049
384,0.00735960238604175
385,0.00791629753808319
386,0.00842607625565635
387,0.00879769603042842
388,0.00945954468575777
389,0.00982972774080873
390,0.00989540006219542
391,0.0101421760760111
392,0.0103749422120039
393,0.0106676058374956
394,0.0111936691954995
395,0.0121626023426598
396,0.013675534627764
397,0.015571107554065
398,0.017466680480366
399,0.019362253406667
400,0.0205542809784112
401,0.0221648282461132
402,0.0235364460797163
403,0.0242583077161226
404,0.0249084594344159
405,0.0254916451257771
406,0.0265023529681383
407,0.0271849108989682
408,0.0279786722090235
409,0.0289308708753188
410,0.0308154773440399
411,0.0314303103826678
412,0.0327246460811543
413,0.0338387097930175
414,0.034276919479733
415,0.0350741400877078
416,0.03514150685189
417,0.03529123891333
418,0.0361240640560604
419,0.0358050606431067
420,0.036786943686853
421,0.0369071035894446
422,0.0373538092297877
423,0.037619750992936
424,0.0378846555183244
425,0.0373275525254046
426,0.0370115813561304
427,0.0360571269334278
428,0.0349178288991629
429,0.0346343260375243
430,0.0348705614365664
431,0.0360454248775897
432,0.0371397663677477
433,0.0382805801451693
434,0.0397740489116083
435,0.0404889133729411
436,0.0407774657656194
437,0.041283427461509
438,0.0417893891573986
439,0.0422953508532882
440,0.0423470013098953
441,0.042843900862743
442,0.0435481851303388
443,0.0437384936739644
444,0.0441273470079818
445,0.0445162003419993
446,0.0449050536760167
447,0.045187179358914
448,0.0451023802088576
449,0.0462169204386995
450,0.0458755897690735
451,0.0451591737716861
452,0.0447909999042151
453,0.0444228260367441
454,0.0440546521692731
455,0.0437432040372709
456,0.0435303020157271
457,0.0439450822098851
458,0.0439643093713927
459,0.0444051260402433
460,0.0443211845068068
461,0.0437707391042625
462,0.0448031914509517
463,0.043480395937089
464,0.0428849528658609
465,0.0425024914160475
466,0.041864709487525
467,0.0417603447047744
468,0.0412765553840399
469,0.0408975425133739
470,0.0417064641517612
471,0.0416754131701391
472,0.0418366044333702
473,0.0421773193874447
474,0.042365596406906
475,0.0428848853240123
476,0.0419396079794905
477,0.0418529575429011
478,0.0417663071063117
479,0.0416796566697222
480,0.0415987687580547
481,0.0404035989630695
482,0.0397024809359696
483,0.0394882995339643
484,0.0383744473974987
485,0.0373934811897616
486,0.0377563524026201
487,0.0378174045600922
488,0.0381196002100733
489,0.0388735809689394
490,0.0391062029685978
491,0.0392751235035673
492,0.0401132985826081
493,0.0394956690699851
494,0.0400233357347445
495,0.0393100747301789
496,0.0393392310303386
497,0.0386122295067981
498,0.0386280953909545
499,0.0375426303688101
500,0.0375996444343646
501,0.0371534278236169
502,0.0376197833721449
503,0.037657412178169
504,0.0370116118222787
505,0.0381706490982291
506,0.0378016170441059
507,0.037812636075026
508,0.0379722970610629
509,0.0378022197600756
510,0.0370050430006539
511,0.0373410687566995
512,0.0369782886278698
513,0.0358694213960258
514,0.0354562358809782
515,0.0347820477631065
516,0.0344042852875294
517,0.0341527579891591
518,0.0338891013704916
519,0.0344107707158525
520,0.0349105490113894
521,0.0351720852989208
522,0.0354336215864523
523,0.0356951578739838
524,0.035400310000423
525,0.0352744412210613
526,0.0352439255391332
527,0.0348711101452342
528,0.0349872211557315
529,0.0352698747932054
530,0.0351891004602163
531,0.0351721284902918
532,0.0349094630886251
533,0.0351805146646958
534,0.0351815271308995
535,0.0347739119029208
536,0.0349556559217253
537,0.0346609576766343
538,0.0342322866505992
539,0.0339714745150286
540,0.0340381804088827
541,0.033692395110671
542,0.0334190215480356
543,0.0334941870326629
544,0.0335909255877384
545,0.0333223016465813
546,0.0335517846796222
547,0.0334424695097044
548,0.0333331543397866
549,0.0332238391698689
550,0.0328744104958029
551,0.0331776003536214
552,0.0332643546344242
553,0.0328816116169747
554,0.0326231751472006
555,0.032918232771629
556,0.0323503371870464
557,0.032165463136132
558,0.031860476738055
559,0.0314457813060095
560,0.0317570587250389
561,0.0311624050817533
562,0.0314655621845844
563,0.0309005990049978
564,0.0309318398132815
565,0.0304421804084435
566,0.0300709101665321
567,0.0296469221627909
568,0.0297598532259946
569,0.0293196819686278
570,0.0291915990880565
571,0.0291726725806989
572,0.029157482221296
573,0.0290391707067209
574,0.029159534102702
575,0.0287764535303136
576,0.028882841783118
577,0.0289892300359225
578,0.0290956182887269
579,0.0292020065415314
580,0.0293083947943358
581,0.0297012308084134
582,0.0294951336643937
583,0.0297036686222595
584,0.0292298203546514
585,0.0290914331400846
586,0.0281119228702683
587,0.0277120968824726
588,0.0273218209211784
589,0.0269315449598843
590,0.0265412689985901
591,0.0267110492596792
592,0.0269929893220502
593,0.0269422487421978
594,0.0275142680244281
595,0.0274772728314609
596,0.027728486893141
597,0.0279199608194151
598,0.0279577584670334
599,0.0279780026390801
600,0.0282829863209983
601,0.0285499469439768
602,0.0285834969972037
603,0.0284907081565388
604,0.0288944557754515
605,0.0285919042451258
606,0.0286743675598754
607,0.0285088558858261
608,0.0281681451297191
609,0.0280855204033951
610,0.0278720777262292
611,0.0276844464675317
612,0.0275353032703402
613,0.0273571972473223
614,0.0270852011504412
615,0.0272907080567636
616,0.0269999015474731
617,0.0272274072368913
618,0.0270337489863712
619,0.0272234412779583
620,0.0270327264837882
621,0.0272884910008099
622,0.0266733993876959
623,0.0266410202676198
624,0.0263766704789506
625,0.0261123206902813
626,0.025847970901612
627,0.0258451058920146
628,0.0256949946173075
629,0.0256792188633042
630,0.0259248468681151
631,0.0255768096419713
632,0.0257099561182803
633,0.0259247973069327
634,0.0260364511246464
635,0.0262149244961324
636,0.0259478656699369
637,0.0262412687705259
638,0.0260070096764934
639,0.0261602852779203
640,0.0259996385076437
641,0.0259952912152474
642,0.0257451838806497
643,0.0255132618447666
644,0.0252813398088836
645,0.0250494177730005
646,0.0250050867120855
647,0.0249627668964984
648,0.0244979561495918
649,0.0249454378887164
650,0.0246392608711498
651,0.0248941365986048
652,0.0246382434584211
653,0.0242988411118161
654,0.0238366248566845
655,0.0240505778732238
656,0.0239843584788363
657,0.0242124249071268
658,0.0244992912043729
659,0.0251713458335684
660,0.0253498107946136
661,0.0255149141229135
662,0.0255675184485472
663,0.0254312522003542
664,0.0253380354380129
665,0.0253564920808463
666,0.0254041028133419
667,0.0253937827418844
668,0.0254784024732221
669,0.025086399004176
670,0.0251253672047962
671,0.0250674403634488
672,0.0249898507425829
673,0.025002258302385
674,0.0251712583822746
675,0.0250427919545792
676,0.0250045777017887
677,0.0251973798753158
678,0.02492120845434
679,0.0250085072302773
680,0.0254927438365409
681,0.0250050322334629
682,0.0244049600535459
683,0.0238278440968688
684,0.0229385134090684
685,0.022198075112779
686,0.0216216239852424
687,0.0210459638934313
688,0.0209974123999942
689,0.0211525157786341
690,0.0215942008579244
691,0.0221358102020357
692,0.0223897817786494
693,0.0227285560261337
694,0.0232747273663596
695,0.0235098609036303
696,0.0240628260441835
697,0.0243751364759202
698,0.0243048609428334
699,0.0244919109747621
700,0.0251890920831107
701,0.0253411290474685
702,0.0259753890712615
703,0.0262589262200463
704,0.0270834698232768
705,0.0273851839735146
706,0.0281508218971217
707,0.028811817181146
708,0.0291984222277831
709,0.0297097991387091
710,0.0296863326965445
711,0.0300291382092502
712,0.0301231799233061
713,0.0290478318071256
714,0.0284449538813355
715,0.0269444092761686
716,0.0257649709537466
717,0.0249756486388016
718,0.0249508844705364
719,0.0253999274813905
720,0.0257739012159262
721,0.0258996547468382
722,0.0269203516476533
723,0.0269212290111023
724,0.027087581419448
725,0.0273409276676687
726,0.0275648124326145
727,0.0283403568313955
728,0.029015071221457
729,0.030082406173011
730,0.0312075190790566
731,0.0326930850937764
732,0.0340741487608212
733,0.0355728621337649
734,0.036667788773264
735,0.0372314379170048
736,0.0382371027049196
737,0.0388672585569208
738,0.0394974144089221
739,0.0401275702609233
740,0.0413329552072108
741,0.0417709975216544
742,0.0423137392237312
743,0.0428564809258081
744,0.0433992226278849
745,0.0437650969030624
746,0.0439936601219543
747,0.0444090201258144
748,0.0439842684165159
749,0.0445673046479988
750,0.0445131091122698
751,0.0444989974960991
752,0.0453004663984742
753,0.0451656069864551
754,0.0445284183022467
755,0.0413540207431464
756,0.0381796231840461
757,0.0350052256249458
758,0.0299702345931787
759,0.0254563924863415
760,0.0224428432095645
761,0.0219034325925549
762,0.022750815344544
763,0.0248873213108709
764,0.0281246843302837
765,0.0313074261198508
766,0.0350965515748026
767,0.038749314090606
768,0.0408374134060532
769,0.0424108031760862
770,0.0438056270711323
771,0.0444751532695335
772,0.0452304522117575
773,0.0457550522739798
774,0.0456209430716156
775,0.0458101049376477
776,0.0458402129522108
777,0.0453195579239253
778,0.0460952676435553
779,0.0454972388807284
780,0.0461499179820963
