"wavelength","measurement"
380,0.00658149261742451
381,0.00644281944541137
382,0.00642742881196645
383,0.00630919883302139
384,0.00653613069985395
385,0.00685400758270117
386,0.0069939862266659
387,0.00754757487277315
388,0.0079837962784577
389,0.00839043302707165
390,0.0083543507565823
391,0.0084151361307786
392,0.00865483273278232
393,0.00899541600876727
394,0.0092551838851406
395,0.00994459190622073
396,0.0111997721869991
397,0.0127115717073712
398,0.0142233712277433
399,0.0157351707481153
400,0.0165352160932895
401,0.0178307179559321
402,0.0189581517584683
403,0.019416430540524
404,0.019830610081036
405,0.0199984700737166
406,0.0207417720415043
407,0.0212420788968923
408,0.0215854915866502
409,0.0222986503066408
410,0.0234203764945834
411,0.0237430077545318
412,0.0245739230784987
413,0.0252262254555044
414,0.0253698614333406
415,0.0256614902416445
416,0.0254241219488054
417,0.0253410520931872
418,0.0257790108257426
419,0.025324458601012
420,0.0258281682114971
421,0.0257828732799833
422,0.0259368726059455
423,0.0260899272271438
424,0.0261630080920495
425,0.0255420131539042
426,0.0252485349326182
427,0.0244331702085796
428,0.0236322162276578
429,0.0235155251846088
430,0.023431224947495
431,0.0243566436182352
432,0.0250292936142405
433,0.0257701811496539
434,0.0269770988550722
435,0.0274072640178861
436,0.0275304828144695
437,0.0279046971341669
438,0.0282789114538643
439,0.0286531257735617
440,0.0286870539169752
441,0.0291453964482229
442,0.0297211082034232
443,0.029829910382328
444,0.0302001291180466
445,0.0305703478537653
446,0.0309405665894839
447,0.0312788665804462
448,0.0312412385042594
449,0.0322549136933081
450,0.0319842644752664
451,0.0317087380950724
452,0.031508649519117
453,0.0313085609431616
454,0.0311084723672061
455,0.0309687548009046
456,0.0309263223436263
457,0.0311906965097975
458,0.0312110612139675
459,0.0316430116645057
460,0.0316829465674583
461,0.0313431002064194
462,0.0320056676369204
463,0.0311432718513327
464,0.030659976699585
465,0.0304495404142727
466,0.0299767098193856
467,0.0300019962635382
468,0.0297128181719665
469,0.0294806378676621
470,0.0300009929095067
471,0.0299521477880247
472,0.0301688981654219
473,0.0304211310729891
474,0.0305833625301661
475,0.0309580138689328
476,0.030407614048241
477,0.0303582557035445
478,0.030308897358848
479,0.0302595390141515
480,0.030238967074172
481,0.0294393021630844
482,0.0289967175393002
483,0.0287523719899535
484,0.0281384934221352
485,0.027407715912457
486,0.027700090046066
487,0.0277315996512585
488,0.0279675174677551
489,0.0286264978662055
490,0.0287988033312547
491,0.0290525545792712
492,0.0296829537202762
493,0.029248459647624
494,0.0295977415080341
495,0.0292279000188322
496,0.0292103735893573
497,0.0286595570978095
498,0.0286656914545044
499,0.0280068963387065
500,0.0281455177559777
501,0.0277875927361563
502,0.0281698646819027
503,0.0282269631491563
504,0.0278734442448194
505,0.0287570721601738
506,0.028513265794203
507,0.0286058616722662
508,0.0287812849421083
509,0.0287115996090476
510,0.0281738855489803
511,0.0286541658875953
512,0.0282528966828846
513,0.0274653570985394
514,0.0272685910758261
515,0.0267446502672139
516,0.0265624042003591
517,0.0264535994424164
518,0.0263391410232372
519,0.026743805241205
520,0.0272982994207055
521,0.0275947826353221
522,0.0278912658499387
523,0.0281877490645553
524,0.0279722443710469
525,0.0279811079421368
526,0.02812923265804
527,0.0278148250100321
528,0.0280356333286292
529,0.0283357463947364
530,0.0283007435187788
531,0.0283507051739752
532,0.02818468342247
533,0.0284744947402271
534,0.0285007210521805
535,0.0282327588572114
536,0.0283970546113252
537,0.0282465814376176
538,0.0280136230999707
539,0.0277595797869696
540,0.0278655383936454
541,0.0276316391855556
542,0.027378712328583
543,0.027576355850687
544,0.0276408091551444
545,0.027417783288314
546,0.0276342250501473
547,0.0275775482009725
548,0.0275208713517978
549,0.027464194502623
550,0.0272206307213371
551,0.0275130753813546
552,0.0276587228902017
553,0.0273255625693509
554,0.0272304394824012
555,0.0273430344681411
556,0.0270270020475938
557,0.0268780582445391
558,0.026668536841881
559,0.0263034042756896
560,0.0265460387060951
561,0.026033955852861
562,0.0263624152886896
563,0.0258938807770952
564,0.0259946899811501
565,0.0254798328750259
566,0.0252234969716619
567,0.0248942713308416
568,0.0248912332762235
569,0.0245006551655346
570,0.0244454448329168
571,0.0244067222803657
572,0.0243349318905878
573,0.0242712768632786
574,0.0244007560593505
575,0.0240721708657246
576,0.0241503891467353
577,0.024228607427746
578,0.0243068257087568
579,0.0243850439897675
580,0.0244632622707782
581,0.0247422451569613
582,0.0245625198721537
583,0.0247958645028403
584,0.0243009424544903
585,0.0241993600585728
586,0.0234273952393553
587,0.0229781899955032
588,0.0226829293998744
589,0.0223876688042457
590,0.0220924082086169
591,0.0221435645446615
592,0.0223797085430182
593,0.0223995025482489
594,0.0227188123294678
595,0.0228606474006577
596,0.023009516478026
597,0.0231590300474967
598,0.0231741109116936
599,0.0232387849191298
600,0.0235272752709816
601,0.0236495507428412
602,0.0237423063851057
603,0.0235958369575349
604,0.0238766369299166
605,0.0237858430090145
606,0.0237569675054597
607,0.0236671502034496
608,0.0233478671920698
609,0.0232893449953015
610,0.0231451875662291
611,0.0229515066363617
612,0.0227254170581147
613,0.022631123886267
614,0.0223527251257775
615,0.0226622976879783
616,0.0223951084406473
617,0.0224860250693317
618,0.0224757626042183
619,0.0225222252998621
620,0.0224065305322492
621,0.0225897347757006
622,0.0221257992511036
623,0.0220377691543739
624,0.0218289067292734
625,0.0216200443041728
626,0.0214111818790723
627,0.0213550342951655
628,0.0212395439243478
629,0.0212971121423831
630,0.0214940262165698
631,0.0212416324026047
632,0.0213665244973759
633,0.0214956922512044
634,0.0215570857070886
635,0.021687184133093
636,0.0215103780393925
637,0.0217438180762527
638,0.0216075295506916
639,0.0216482934620597
640,0.021497640608378
641,0.021479274544475
642,0.0212440290644196
643,0.0210483579603908
644,0.0208526868563619
645,0.0206570157523331
646,0.0206061184949116
647,0.0205996814792605
648,0.020243416149769
649,0.0205249047426554
650,0.0202673342912191
651,0.0204777478582729
652,0.0203338194484805
653,0.0200001942791826
654,0.0196509150964552
655,0.0197507890750659
656,0.0197451991732693
657,0.0199121293501881
658,0.0201197921313383
659,0.0206470386955926
660,0.0208116941135309
661,0.0208905256925502
662,0.0209589111327253
663,0.0208792639339789
664,0.020725575077606
665,0.0208030945480516
666,0.0208559602871609
667,0.0208093407789704
668,0.020771934411529
669,0.0204816992084665
670,0.0205045793913999
671,0.0205284490360131
672,0.020456378406402
673,0.0204376260076773
674,0.0205722069005059
675,0.0204847429149976
676,0.0204734208451257
677,0.02060295654315
678,0.0204202806122745
679,0.0203674914980431
680,0.0209922108291797
681,0.0204501784228018
682,0.0200050599227883
683,0.019619479156165
684,0.0188844716972556
685,0.0183270565335049
686,0.0178539738150779
687,0.0174754930169325
688,0.0174631652568148
689,0.0175335238224238
690,0.0181476298868439
691,0.0186138104916116
692,0.0188503102604008
693,0.019348138324842
694,0.0197130469503258
695,0.0199768086563583
696,0.0206501865412121
697,0.0210539445287796
698,0.020964665564662
699,0.0214353410871883
700,0.0220316296357958
701,0.0222356109615031
702,0.0229799200643159
703,0.0234313210829187
704,0.0243418007205093
705,0.0246747404623137
706,0.025402098141812
707,0.0261114138421368
708,0.0266463320775074
709,0.0272404870012415
710,0.0273906841606104
711,0.0277575926945104
712,0.0280461737763496
713,0.0271523210964264
714,0.0267068217153254
715,0.0254125372285599
716,0.0244180421912834
717,0.0237310948761935
718,0.0238669110991395
719,0.0244781090084604
720,0.0249233473640769
721,0.0251430705686437
722,0.026202032131815
723,0.0263672091960214
724,0.0265815026332634
725,0.0270290160890287
726,0.0272196824776802
727,0.0280651555400292
728,0.0289857886325759
729,0.0300898568814553
730,0.0312846921051329
731,0.0329945529880526
732,0.0342911158222373
733,0.035897972607283
734,0.0371559033929616
735,0.0378061080814851
736,0.038772814562525
737,0.0395317890783877
738,0.0402907635942504
739,0.0410497381101131
740,0.0421899941035406
741,0.0426162959084663
742,0.043218015006765
743,0.0438197341050637
744,0.0444214532033623
745,0.0448175488590077
746,0.0450164405830308
747,0.0454996209120289
748,0.0452229691762073
749,0.0456618150168651
750,0.0458190280360137
751,0.0456927158732977
752,0.0464738410991186
753,0.0462717091747194
754,0.0456168875119897
755,0.0423680929052472
756,0.0391192982985046
757,0.0358705036917621
758,0.0306497880648118
759,0.0259258869720501
760,0.0230021148562982
761,0.0223410874731418
762,0.0232709840412627
763,0.025659844505697
764,0.028997690557168
765,0.0322212235831525
766,0.0360860255110957
767,0.0400179704054222
768,0.0420535900045709
769,0.0436112091066783
770,0.0450439292862047
771,0.0456642403415703
772,0.0463993644989439
773,0.046973391989333
774,0.0469476810926804
775,0.047030212035571
776,0.0472403612172274
777,0.0466999968329655
778,0.0474374875690958
779,0.0469830791768265
780,0.047381099784999
