"wavelength","measurement"
380,0.0086442631550021
381,0.00847092399258612
382,0.00846887951437337
383,0.00816545460349608
384,0.00819993521021302
385,0.00868100689463041
386,0.00909819128471245
387,0.00951872615108953
388,0.0102327874887929
389,0.0105271461635928
390,0.010708768594499
391,0.0106872674090316
392,0.0110761824358957
393,0.0111849836764817
394,0.0114972321253636
395,0.0126078019118831
396,0.0141712836792973
397,0.0160588273899272
398,0.0179463711005572
399,0.0198339148111871
400,0.0208097309365912
401,0.0224245694826067
402,0.0236727240934283
403,0.0242395075914645
404,0.0247545718707332
405,0.0250704892673718
406,0.0259904024152963
407,0.0264930129295914
408,0.0268397919040973
409,0.0276966414732522
410,0.0293068572390839
411,0.0296632180452631
412,0.0306408462358888
413,0.0313035366851198
414,0.0313930641191137
415,0.0317156520129116
416,0.031583800846585
417,0.031394960793474
418,0.031785267283904
419,0.031289172528332
420,0.0318751233243289
421,0.0316860682009347
422,0.0319606116321353
423,0.0319429012183256
424,0.0321940001056165
425,0.0312782626125296
426,0.0309971323348613
427,0.0300518696664853
428,0.0290455982745182
429,0.0288537470131627
430,0.0286153537075197
431,0.0298148942039931
432,0.0306599929667592
433,0.031600206910587
434,0.0328502160617486
435,0.0334448514373228
436,0.0335460183953653
437,0.0339776551965093
438,0.0344092919976533
439,0.0348409287987973
440,0.0349763830444019
441,0.0353810097383281
442,0.0359671027460236
443,0.0362604850620795
444,0.0366677809093022
445,0.037075076756525
446,0.0374823726037478
447,0.0379287867253623
448,0.0378746656725155
449,0.0392112204568623
450,0.0387528666500776
451,0.0383751912711925
452,0.0380917495589181
453,0.0378083078466437
454,0.0375248661343693
455,0.0374553414550318
456,0.0373470576125169
457,0.0375358632698059
458,0.0376339788372977
459,0.0381848828551623
460,0.038111208379584
461,0.0376844766399022
462,0.0385091858485683
463,0.0373745462325001
464,0.0369338587256465
465,0.0365494846636736
466,0.0361475507189595
467,0.0358935235829834
468,0.0355673609465903
469,0.0351670180066653
470,0.0360228915682619
471,0.0358839261532337
472,0.0360494175581209
473,0.0364618027012778
474,0.0365760556685205
475,0.0370884187000523
476,0.0362143718097818
477,0.036243705789692
478,0.0362730397696022
479,0.0363023737495124
480,0.0361266260996946
481,0.0351502532568163
482,0.0346099868057059
483,0.0344460091137838
484,0.0333934575475088
485,0.0327061789599772
486,0.0328505020814144
487,0.0331386958520861
488,0.0333733337507217
489,0.0342041579416757
490,0.0343509764762436
491,0.0344992664910502
492,0.0351868651205909
493,0.0347155412288638
494,0.0352295259411503
495,0.0345189141762473
496,0.0345861121996879
497,0.0339083745261653
498,0.0340654876861807
499,0.0331371746096211
500,0.0332311823810962
501,0.0328359051017487
502,0.0332685191812136
503,0.0332961859465644
504,0.0328548450333193
505,0.0337695661906334
506,0.0335588112063318
507,0.0336512419179935
508,0.0337801197588361
509,0.0336975914088411
510,0.0329626551558694
511,0.0333980651088212
512,0.0330392861380382
513,0.0320773571262093
514,0.0317981237891515
515,0.0312222134316438
516,0.0308831980319721
517,0.0307524816033796
518,0.0306226005252643
519,0.0309982507678584
520,0.0316788545065547
521,0.031938901177628
522,0.0321989478487012
523,0.0324589945197744
524,0.0322387956670873
525,0.0321040276743528
526,0.0322101950261908
527,0.0319219272897836
528,0.0320333945111086
529,0.0324170733864563
530,0.0322892224022819
531,0.0323794728359362
532,0.0321163179879408
533,0.0324068453437002
534,0.032463775808446
535,0.0320209305655398
536,0.0322576048082295
537,0.0320365909477806
538,0.031720310260871
539,0.0314531343262072
540,0.031577783156815
541,0.0312625655610575
542,0.0310768232790155
543,0.0311402174833788
544,0.0311499363742576
545,0.0308981969951601
546,0.031169464469405
547,0.0310919606061736
548,0.0310144567429421
549,0.0309369528797107
550,0.0306789311856564
551,0.0309705594759878
552,0.0310928103288459
553,0.0307286563557894
554,0.0305442143753073
555,0.0307320850153348
556,0.0302037175735264
557,0.030124710519496
558,0.0298119970619019
559,0.0294890088136714
560,0.0297238164916378
561,0.029072732065861
562,0.0294979405932743
563,0.0289839221378314
564,0.0290447546584803
565,0.0285099502865608
566,0.0282175955104926
567,0.0278523105438195
568,0.0279010624201987
569,0.0274483511977717
570,0.0273368740993412
571,0.0272916227053787
572,0.0272088628429022
573,0.0271287897559606
574,0.0272774064567408
575,0.0268655290729712
576,0.02695862216679
577,0.0270517152606088
578,0.0271448083544276
579,0.0272379014482464
580,0.0273309945420653
581,0.0276255933865551
582,0.0275069559596921
583,0.0277405502504609
584,0.0271801568136762
585,0.0270517109002417
586,0.0261414056270128
587,0.0256559043026993
588,0.025328002874654
589,0.0250001014466087
590,0.0246722000185634
591,0.0247461920670403
592,0.0249503815272984
593,0.0250888020929838
594,0.025401685653067
595,0.0254980515758544
596,0.0256262503041929
597,0.0258623106982731
598,0.0258787595515511
599,0.0259074355800874
600,0.026205142484899
601,0.0263920253695822
602,0.0265353184445992
603,0.0263659556513656
604,0.0267134143791659
605,0.0264661868422499
606,0.0264861661824065
607,0.0263762426867968
608,0.0259940760684724
609,0.0259668470516484
610,0.0258095196223835
611,0.0255568369530737
612,0.0253931373357853
613,0.0251532885264509
614,0.0249407281393628
615,0.0251927226373358
616,0.0249175446136879
617,0.0250319920313648
618,0.0249787730361236
619,0.0250225586767446
620,0.0249039715502433
621,0.0251858614416643
622,0.0246219940091982
623,0.0245948959629157
624,0.0243481260252219
625,0.0241013560875281
626,0.0238545861498343
627,0.02382678549103
628,0.0236504253076342
629,0.0236228075404312
630,0.023845458333761
631,0.0235411995157705
632,0.0237187075592752
633,0.0238787149948027
634,0.0240751610324427
635,0.0240910916123907
636,0.0238527245164223
637,0.0241376083580384
638,0.0239755166003711
639,0.0240580358205604
640,0.0239207591618943
641,0.0237951846071321
642,0.0236477410682295
643,0.0234024166801678
644,0.0231570922921062
645,0.0229117679040446
646,0.0229388800237497
647,0.0228559767092781
648,0.0224508016535734
649,0.0228599622497884
650,0.0225966218011562
651,0.0228372330365445
652,0.0224924966174411
653,0.0221995842462295
654,0.0218038255039578
655,0.0220686134322662
656,0.021785024741748
657,0.0221578024581461
658,0.0224504259193375
659,0.0229676179099693
660,0.0232143904964099
661,0.0232164937970506
662,0.023374309563276
663,0.0232429832262277
664,0.0230584294025794
665,0.0231895651127702
666,0.0231865978959318
667,0.0231423478765914
668,0.0232326797272728
669,0.0228622569258996
670,0.0228947680858622
671,0.0228507394750607
672,0.0227828881926702
673,0.02279638390942
674,0.0228498591948876
675,0.0228255633296059
676,0.0227404372807428
677,0.0230205586066503
678,0.0227486046062308
679,0.0227011350922403
680,0.0231696627070432
681,0.0227697042067756
682,0.0222655918965871
683,0.0217731261355411
684,0.0209757288725222
685,0.0202284723719526
686,0.0197463860756259
687,0.0192581238155899
688,0.0192535978164357
689,0.0193389290094947
690,0.0197543904933002
691,0.0204000193353756
692,0.020713521710008
693,0.0210375724860097
694,0.0215871390095973
695,0.021837277013023
696,0.0222985534719319
697,0.0227752537943745
698,0.0226832305250865
699,0.0229895324555146
700,0.0236946198373483
701,0.0239125178015175
702,0.0246037490817333
703,0.0249075497027833
704,0.0257434012504594
705,0.0261542878161225
706,0.0269343979197423
707,0.0274930204960925
708,0.0280370720669154
709,0.0286138232697735
710,0.0286624325489353
711,0.0291748149991225
712,0.0293266324461305
713,0.0284263810568469
714,0.0278642290153704
715,0.0264220655999377
716,0.0253958483381148
717,0.0246357877029054
718,0.0246598191862094
719,0.0251529492825539
720,0.0259082837439739
721,0.0258521046547733
722,0.0270140785390421
723,0.0270416034526033
724,0.0272868382933577
725,0.0275833161361124
726,0.0277463469295415
727,0.0287354349910778
728,0.0295147585145701
729,0.0307270413143905
730,0.0318573627280965
731,0.0335517884778258
732,0.034911526856029
733,0.0365025403583465
734,0.0377703195357766
735,0.0382432754212283
736,0.0394516542300092
737,0.040138647730537
738,0.0408256412310648
739,0.0415126347315926
740,0.0426339344772292
741,0.0432614798341904
742,0.0438207473204959
743,0.0443800148068014
744,0.0449392822931069
745,0.0453588854588889
746,0.045493390521288
747,0.0461121739368761
748,0.0457234748639417
749,0.0462118486648948
750,0.0462516452118062
751,0.0462745705038294
752,0.0472565200983864
753,0.0467306432773685
754,0.0461375746543606
755,0.0428678606136007
756,0.0395981465728407
757,0.0363284325320808
758,0.0310359841550438
759,0.0264000437200558
760,0.0232188873164913
761,0.0226337474050652
762,0.0234796681392033
763,0.0258673592170949
764,0.0292213522715725
765,0.0325882839988732
766,0.0366819114392044
767,0.0401722971919534
768,0.0425246757462991
769,0.0439870002661131
770,0.0456146581961022
771,0.0460689863504617
772,0.0469851608960373
773,0.0473874822103873
774,0.047405205687136
775,0.0475290977726888
776,0.0477397866062589
777,0.0473149192412543
778,0.0478058991454149
779,0.0474330743193535
780,0.0479055944296651
