"wavelength","measurement"
380,0.00863497880419234
381,0.00850181565551882
382,0.00818189561942087
383,0.0080261043436716
384,0.0082476303161026
385,0.00872894482829289
386,0.00913371871070933
387,0.00970864014358158
388,0.0102823826872178
389,0.010598398396471
390,0.0106067986804107
391,0.0106502970104945
392,0.011064735012358
393,0.0111453202457211
394,0.0118020008496329
395,0.0125066558623014
396,0.0141483133616513
397,0.0160075165692585
398,0.0178667197768657
399,0.0197259229844728
400,0.0210661993597302
401,0.0226478725021635
402,0.0237077952527532
403,0.0244269239960725
404,0.0248917921104862
405,0.0254846870637254
406,0.0264052019649445
407,0.0269110859972863
408,0.0274565107295068
409,0.0284254194718529
410,0.0301097570856982
411,0.0305052552978803
412,0.0316965018107025
413,0.0327405460897777
414,0.0330225174006297
415,0.0335829656338691
416,0.0335928858898494
417,0.0336909983130196
418,0.0344407825901442
419,0.0339708077326566
420,0.0347319402184298
421,0.0349010866082129
422,0.0352384056427475
423,0.0354159224908248
424,0.0356445721405998
425,0.0350046277214202
426,0.0345746833688563
427,0.0336620943671382
428,0.0325738755270826
429,0.0324390505936725
430,0.032642226118714
431,0.0335186183032684
432,0.0346872116024573
433,0.0356308589587928
434,0.0371891142304732
435,0.0377823348565858
436,0.0380109436213696
437,0.0384540781902233
438,0.038897212759077
439,0.0393403473279306
440,0.0395646816850978
441,0.039902460706734
442,0.0405286327222803
443,0.0407267808613905
444,0.0410881432807669
445,0.0414495057001433
446,0.0418108681195197
447,0.0422187548334503
448,0.0419750136166376
449,0.0434266195204912
450,0.0427558344877792
451,0.0422198473190961
452,0.0418608741433542
453,0.0415019009676123
454,0.0411429277918703
455,0.0408649635198442
456,0.0409229687130926
457,0.0409731597699702
458,0.0411172484191357
459,0.0415232240615023
460,0.041505762954068
461,0.0408822874627705
462,0.0419424258764678
463,0.0406919793269034
464,0.0401623786336441
465,0.0396909433355564
466,0.039214008265584
467,0.0389123239263514
468,0.0386128274439732
469,0.0382594534775461
470,0.0390091182054423
471,0.038829316850307
472,0.0389770641936361
473,0.0394698969004553
474,0.0394778622290926
475,0.0399855609433031
476,0.0389285000222558
477,0.0389117177807648
478,0.0388949355392738
479,0.0388781532977827
480,0.0386156910952891
481,0.0376574448170937
482,0.036967088261523
483,0.0367382954999925
484,0.0357102582610578
485,0.0348708060760567
486,0.0350418834394762
487,0.0352414496368366
488,0.0355068822119155
489,0.0362478378265987
490,0.0364167568135355
491,0.0365793785034552
492,0.0373029885775839
493,0.0368384190331273
494,0.0372152662664181
495,0.0365031690970173
496,0.0365944590724398
497,0.03577822706379
498,0.0359362711074395
499,0.0349709876590008
500,0.0349852101824274
501,0.0345644953213112
502,0.0350398725590125
503,0.0350699541043633
504,0.0345579826244537
505,0.035514995847394
506,0.0351540650546479
507,0.0352181656206225
508,0.0354235023449364
509,0.035169900493119
510,0.0345896838981836
511,0.0348955954967811
512,0.0345409841289842
513,0.0334499866951391
514,0.0331728707356551
515,0.0324805465067663
516,0.032103448741165
517,0.0319728992618896
518,0.0317601056998434
519,0.0322508889457052
520,0.032705082973148
521,0.0329666906289456
522,0.0332282982847431
523,0.0334899059405407
524,0.0331598541884749
525,0.0331426053312459
526,0.0330909257882511
527,0.0328109903147701
528,0.0329224674435097
529,0.0331749322924326
530,0.0330935456143647
531,0.0330853561553034
532,0.0328497128028683
533,0.0330850047276492
534,0.0329828594258376
535,0.032738446399322
536,0.0328559247374708
537,0.0325349446896284
538,0.0322793843172067
539,0.0319777258953471
540,0.0320567751470291
541,0.0317331175130327
542,0.0314934981455405
543,0.0315341746564987
544,0.0316927338366843
545,0.0314422220182391
546,0.0316271075032364
547,0.0315388337593346
548,0.0314505600154327
549,0.0313622862715308
550,0.0310061628809461
551,0.0312623545590964
552,0.0314540249907201
553,0.0309938664479993
554,0.0308516291772945
555,0.0311396468929261
556,0.0305208631901719
557,0.0303622999409487
558,0.0301121762801819
559,0.0297157912228222
560,0.0300009370534767
561,0.0293271865947509
562,0.0298348238831439
563,0.0292267693381315
564,0.0292355959251946
565,0.0287745059632481
566,0.028423599409763
567,0.0280560295731599
568,0.0281298250872907
569,0.0276197022295217
570,0.0275784879451187
571,0.0275139203898181
572,0.0274428043827384
573,0.0273663390473889
574,0.027512334916431
575,0.0271048761838156
576,0.0271906240174988
577,0.027276371851182
578,0.0273621196848652
579,0.0274478675185484
580,0.0275336153522316
581,0.0278695483471375
582,0.0277753416554019
583,0.0278661412781369
584,0.0274223438201374
585,0.0272790753101361
586,0.0264729496267604
587,0.025975895431851
588,0.0256335031771131
589,0.0252911109223751
590,0.0249487186676371
591,0.0250627062557494
592,0.0253238783922358
593,0.0253567284369598
594,0.0257041621157238
595,0.0257886118047175
596,0.0259788763746783
597,0.0262406941673245
598,0.026278773141542
599,0.0263157838922629
600,0.0265687611251295
601,0.0267926198391851
602,0.0269262899044697
603,0.0267285033834108
604,0.0270064795920159
605,0.0269112980056429
606,0.0269377627512135
607,0.0267489215279407
608,0.0264835911324563
609,0.0263825844803489
610,0.0261912358685039
611,0.0259608399516669
612,0.0257635463056771
613,0.0256397401478233
614,0.0253175462013362
615,0.0256674408622234
616,0.0253540010322956
617,0.0255177029087382
618,0.0254081090711952
619,0.0254994986112434
620,0.0253727428434381
621,0.0255473640152346
622,0.0250110611106205
623,0.0250172050778599
624,0.0247594881817143
625,0.0245017712855686
626,0.024244054389423
627,0.0242119534937253
628,0.0241193156405447
629,0.0240221559368631
630,0.0242460378743495
631,0.0239946054042719
632,0.0241391552085003
633,0.0242987586330805
634,0.0243993254502686
635,0.0245641132126297
636,0.0243296914183143
637,0.0245786979613197
638,0.024482715025607
639,0.0245259855249016
640,0.0244167465387337
641,0.0243114943038365
642,0.0241311505094165
643,0.0239326249457037
644,0.023734099381991
645,0.0235355738182782
646,0.0233949213400733
647,0.023288554993389
648,0.0229086404167317
649,0.0233607031438467
650,0.0231239109853771
651,0.0233144917123159
652,0.0231197376569633
653,0.0228087180178308
654,0.0223048464970591
655,0.0225947698547414
656,0.0223075303919658
657,0.0226813891009193
658,0.0228784496058446
659,0.0235455009890845
660,0.0237748902442423
661,0.0238662650053749
662,0.0239662527211812
663,0.0238474607392724
664,0.0237324655707968
665,0.0238294270763232
666,0.0237313118471468
667,0.0238671789307291
668,0.0239300119117989
669,0.0235181803243074
670,0.0235688223515668
671,0.0234835012086352
672,0.0233813378603995
673,0.0234449427922968
674,0.023443870428857
675,0.0234188058692317
676,0.0234603689721727
677,0.0236275570199416
678,0.0234259068895595
679,0.0233026311241429
680,0.0238587870999753
681,0.023438440977564
682,0.022965213696934
683,0.0224849946490506
684,0.0214944378419099
685,0.0208426850145736
686,0.0202800815356218
687,0.019794064405451
688,0.0197718914302273
689,0.0199364143464733
690,0.0203275540765976
691,0.0209457610351247
692,0.0211511463568237
693,0.0215228189546369
694,0.0220349775250009
695,0.0223769038690928
696,0.0228169196269569
697,0.0233170397169411
698,0.0231770665638057
699,0.0235349250192438
700,0.0242294500739648
701,0.0243730753792666
702,0.0249426147883519
703,0.0253190508365775
704,0.0261441032190104
705,0.0265660831422928
706,0.027298088700862
707,0.0278776029561828
708,0.0282229519339281
709,0.0289605460738606
710,0.028889642826785
711,0.0292846019925758
712,0.0294746001732978
713,0.0284649792677858
714,0.0278740669899872
715,0.0264553661995116
716,0.0252466616233361
717,0.0245390661187315
718,0.024507761279957
719,0.0249970861869655
720,0.0255706685862468
721,0.0257869992545153
722,0.0266064698672451
723,0.0267858991628775
724,0.0268744996109058
725,0.0272263264110517
726,0.027477945003915
727,0.0281131655344481
728,0.0289351636881916
729,0.0300547370758108
730,0.0312362080962522
731,0.0327635314190959
732,0.0342629099663124
733,0.0355951531208765
734,0.0366801619681433
735,0.0374245508640222
736,0.0383107753485543
737,0.0389957148299587
738,0.0396806543113632
739,0.0403655937927676
740,0.0415172542466851
741,0.0419828562623557
742,0.0425527132724676
743,0.0431225702825795
744,0.0436924272926914
745,0.0440641742381462
746,0.0442466032075972
747,0.0447365060899004
748,0.0443312349697044
749,0.0447309097174705
750,0.0449994596069161
751,0.0447785467623811
752,0.0455998586803191
753,0.045297578149651
754,0.0447883216933154
755,0.0416012319757872
756,0.0384141422582591
757,0.0352270525407309
758,0.0302149830888439
759,0.0255864574719634
760,0.0225187967547094
761,0.0218870772888016
762,0.0227847853273893
763,0.0251103624315441
764,0.0284149229315499
765,0.0316717952086941
766,0.0353165788696315
767,0.0391319153918044
768,0.0413158619457578
769,0.0427703484409015
770,0.0441816010811484
771,0.0448888581791484
772,0.0454669931705799
773,0.0460789646786457
774,0.045898377601465
775,0.0461609969387061
776,0.0462501514366052
777,0.0458589494762955
778,0.0465271481144194
779,0.0460063884244537
780,0.0466004059304626
