"wavelength","measurement"
380,0.00826351592816824
381,0.00801221846273003
382,0.00782977505266938
383,0.00778853713509544
384,0.00774024248980032
385,0.00816047348498357
386,0.00858824921265356
387,0.00909198936747693
388,0.00947354328866788
389,0.00994757605403026
390,0.00989361424865939
391,0.0099880119391672
392,0.0100835555696665
393,0.0102571327385546
394,0.0106966611534449
395,0.0114863967137047
396,0.0128127147399513
397,0.0144705558866249
398,0.0161283970332986
399,0.0177862381799722
400,0.0187498834628978
401,0.0199800692939596
402,0.0211159384167063
403,0.0215558422342201
404,0.0220859334470021
405,0.0221639838982411
406,0.022980688301948
407,0.0233647412873443
408,0.0238965900925781
409,0.0244632759585191
410,0.0258607453978268
411,0.0262222774597434
412,0.0272818018970911
413,0.0280320142269008
414,0.0282503037650538
415,0.0285767105987583
416,0.0284879712611222
417,0.0284351200879709
418,0.0288116870495586
419,0.0285629038131495
420,0.0293225352359461
421,0.0293217441132726
422,0.029459990336504
423,0.0295818659627644
424,0.0298282046983303
425,0.0292001534658551
426,0.0288816343600929
427,0.0280778672017401
428,0.0272119391467084
429,0.0270636270458459
430,0.0271754619033641
431,0.0280940128072206
432,0.0288864145266865
433,0.0297967585184405
434,0.0309368379157046
435,0.0314987824083816
436,0.0316895592226458
437,0.0321077269581136
438,0.0325258946935814
439,0.0329440624290492
440,0.0329889980621937
441,0.0333406031570203
442,0.033939764944906
443,0.0340967797325695
444,0.0344573034829194
445,0.0348178272332693
446,0.0351783509836191
447,0.0354834616240583
448,0.0353807464541424
449,0.0365735554749233
450,0.036041365223769
451,0.0358086689204877
452,0.0355114660423176
453,0.0352142631641475
454,0.0349170602859775
455,0.0347286940914167
456,0.0346819135728931
457,0.0349133334066467
458,0.035013125845769
459,0.0354097684921661
460,0.0353979624658535
461,0.0348820454971209
462,0.0357920046957697
463,0.0347086016219044
464,0.0343190073117754
465,0.0338809652437357
466,0.0334601637885483
467,0.0332509767408946
468,0.0329766700073548
469,0.0326490059294482
470,0.033312872280104
471,0.0332369788754311
472,0.0333041352823554
473,0.0336928008058375
474,0.0336649632440912
475,0.0341609253892253
476,0.0332965610803044
477,0.0332748676761937
478,0.0332531742720829
479,0.0332314808679722
480,0.0330798477140518
481,0.0322354392592202
482,0.0316829262359449
483,0.0314860602230142
484,0.030760877273094
485,0.0299273322052876
486,0.0301016496918551
487,0.0301930706905979
488,0.0305108056924133
489,0.0311624750820839
490,0.0312839241716633
491,0.0315537386963018
492,0.0321033253813997
493,0.0318018144931959
494,0.0320951824008222
495,0.0315729428219064
496,0.0315190598951076
497,0.0310107403488857
498,0.031075030550265
499,0.0303602481434114
500,0.0304679359418324
501,0.0300276103175245
502,0.0304121712062526
503,0.030464999159954
504,0.0300846530999477
505,0.0309849207056607
506,0.0307775438063048
507,0.0308122874292502
508,0.0309997043177826
509,0.030900558710857
510,0.0303629632024632
511,0.0306474547086817
512,0.0303251882653342
513,0.0294593277701355
514,0.0292118900828949
515,0.0287460474154993
516,0.0284886902549633
517,0.0283585985962847
518,0.0282079811072178
519,0.0286657764226467
520,0.0292479964800102
521,0.0295103565126983
522,0.0297727165453863
523,0.0300350765780743
524,0.0298739522901461
525,0.0298303195658906
526,0.0299201293054374
527,0.029758762886606
528,0.029828362409805
529,0.030127007665703
530,0.0301393647868809
531,0.0301221223397651
532,0.0299828179848308
533,0.0302406301160081
534,0.0303256022018243
535,0.0299178089852561
536,0.0302269132638512
537,0.0299090600667484
538,0.0296661425136675
539,0.0293966189587212
540,0.0295283647428098
541,0.0292779717587244
542,0.0290343936332246
543,0.0291355444955878
544,0.0292679022045432
545,0.0290576681029291
546,0.0292517616173337
547,0.0291729270753246
548,0.0290940925333155
549,0.0290152579913065
550,0.028885760393825
551,0.0290219805488644
552,0.0292559110523052
553,0.0288368611704073
554,0.0287271346395849
555,0.0289407804193502
556,0.0284686422697924
557,0.0283504856724562
558,0.0281045955493324
559,0.0277869841088456
560,0.027970566063136
561,0.0274252868279722
562,0.0278470334268582
563,0.0273224560894073
564,0.0273631877875451
565,0.0268835362644748
566,0.0265666883440766
567,0.026181497288372
568,0.0263209084180576
569,0.0258210284194472
570,0.0257595329141285
571,0.0256944836164009
572,0.025649859060357
573,0.0254818638073508
574,0.0257267329397142
575,0.025260146266688
576,0.025332011247519
577,0.02540387622835
578,0.025475741209181
579,0.025547606190012
580,0.025619471170843
581,0.0259723061442766
582,0.0258099185956508
583,0.0259558179094146
584,0.0254799171657473
585,0.0253224776008974
586,0.0244939603891239
587,0.0240689129917169
588,0.0237243311986689
589,0.0233797494056208
590,0.0230351676125728
591,0.0232217859327141
592,0.0233646559839338
593,0.0234333078712692
594,0.023835649828201
595,0.0237688182765101
596,0.0240651369089515
597,0.0241456268898399
598,0.0242311844913425
599,0.0243223050556884
600,0.0245434708844686
601,0.0247183992972063
602,0.0248736468441688
603,0.0246864334819667
604,0.0250081982089792
605,0.0247644326005904
606,0.0248010724717841
607,0.024742915626183
608,0.0243565838750993
609,0.0243588353433899
610,0.0241246422822941
611,0.0239370060044527
612,0.0236903228785143
613,0.0236161922603671
614,0.0233002067585284
615,0.0237176922586289
616,0.0233263124402597
617,0.0235700439560065
618,0.0233963255063332
619,0.0235554582780704
620,0.0234215629363629
621,0.0235628795971573
622,0.023115882003433
623,0.0230109013838147
624,0.0227885055866578
625,0.0225661097895009
626,0.0223437139923441
627,0.0222993718062957
628,0.0221694555577978
629,0.0221483505436367
630,0.0223277705044828
631,0.0221219170048784
632,0.0222553070967145
633,0.0223953651691039
634,0.0223900673218204
635,0.0225202415431665
636,0.0224069474337705
637,0.0226650554219339
638,0.0224346122129073
639,0.022558036282351
640,0.0224210517239044
641,0.0223133277381106
642,0.0221548655298175
643,0.0219088108912071
644,0.0216627562525968
645,0.0214167016139865
646,0.021493957604703
647,0.0213529588021341
648,0.0209401242295629
649,0.0213431182655888
650,0.0210708849880523
651,0.0212915360417759
652,0.0210745123297467
653,0.0207227742198892
654,0.020424376808182
655,0.0206367273378298
656,0.0203615230054635
657,0.0207007632892541
658,0.0208755080840938
659,0.0214287365869886
660,0.0215789105489932
661,0.0216715108250407
662,0.0218248801768139
663,0.021640380781293
664,0.0215058410063363
665,0.0215781563871443
666,0.0216471107354589
667,0.0215884828942038
668,0.0216436545332807
669,0.0212083205720222
670,0.0213137161460094
671,0.0212520208811925
672,0.0211232396567229
673,0.0213138995658529
674,0.0212604553524628
675,0.0212042772891508
676,0.0212407082056996
677,0.0214292182479556
678,0.0211804808057218
679,0.021170313571612
680,0.0216637778903376
681,0.0212795603463421
682,0.020846374296855
683,0.020359123065653
684,0.0195703373498456
685,0.018974194029489
686,0.018511099656692
687,0.0181088500927674
688,0.0181211577210768
689,0.0182334486825415
690,0.0186609403679791
691,0.0192562522426167
692,0.0194646309938149
693,0.0200865158084236
694,0.0205769158097758
695,0.0208922246177263
696,0.0214615889763709
697,0.0219199843517258
698,0.0219144119288784
699,0.0222931709415285
700,0.0230822695920436
701,0.0232573045536352
702,0.0239956937915078
703,0.0244286784392561
704,0.0253252327399517
705,0.0256971509726303
706,0.0266626365303558
707,0.0273210059223965
708,0.0277905827557777
709,0.0285687100136532
710,0.0285893804477477
711,0.0290804666282293
712,0.0293231488805499
713,0.0284996333007774
714,0.0280126808380281
715,0.0266773611917665
716,0.025590051709965
717,0.0249217429992534
718,0.0250054927496519
719,0.0255153699252469
720,0.0262172608650279
721,0.0265205814163254
722,0.0274862423160478
723,0.0276764778703881
724,0.0279438068471885
725,0.0284066492880975
726,0.0285633836990177
727,0.0294518919183118
728,0.0303834862043684
729,0.0316067173531561
730,0.032823998084055
731,0.0346295733765613
732,0.0361308505388944
733,0.0377559532186783
734,0.0389647930629325
735,0.0397790734641145
736,0.0408573053973254
737,0.0416166568102475
738,0.0423760082231697
739,0.0431353596360918
740,0.0444079564768943
741,0.0448740136865876
742,0.0455436337508737
743,0.0462132538151597
744,0.0468828738794457
745,0.0473044892911842
746,0.0473752461853127
747,0.0480798367450058
748,0.0475822275643105
749,0.0481019209999083
750,0.0483455710444395
751,0.0482767552304914
752,0.0489874843619944
753,0.0486800119569372
754,0.0482152943340758
755,0.0447416582783607
756,0.0412680222226455
757,0.0377943861669304
758,0.032414437546368
759,0.0274952572652205
760,0.0241789233711948
761,0.0235719733100473
762,0.0245686177574391
763,0.0270216689640718
764,0.0305974688611408
765,0.0340741653598075
766,0.0380593046149171
767,0.0421483551767616
768,0.044472010542858
769,0.046192356923216
770,0.0475022963626199
771,0.0481943075474262
772,0.0489001915720267
773,0.0496723550383498
774,0.0493806145603454
775,0.0495828544158796
776,0.0497303414167748
777,0.0493643592923128
778,0.0499380035585873
779,0.0494917642106956
780,0.0501741745564963
