"wavelength","measurement"
380,0.00523279018112423
381,0.00520496702641789
382,0.00521193959150231
383,0.00502958883283329
384,0.0051913694918532
385,0.00537027913792787
386,0.00570627964644583
387,0.00592430870374208
388,0.00634811728656993
389,0.006813558485879
390,0.00674601271275296
391,0.00685518490885072
392,0.00704262317533201
393,0.00739460196817548
394,0.0074148719235186
395,0.00814144527117499
396,0.009158116486096
397,0.01048023033211
398,0.011802344178124
399,0.013124458024138
400,0.01382644132719
401,0.0147743922249265
402,0.0157073217004639
403,0.0160414407174502
404,0.0165024898919573
405,0.0167651709563333
406,0.0173181805073352
407,0.0179314789861288
408,0.0182698939155802
409,0.0188265194259148
410,0.0200142866666375
411,0.0202379325830233
412,0.0211237720885852
413,0.0217025656291825
414,0.0218759946621796
415,0.0223429816437109
416,0.0222317884938718
417,0.0224218800305996
418,0.0225189285024442
419,0.022527294800678
420,0.0229670304968058
421,0.023128409184456
422,0.0232745351021801
423,0.0234229365904171
424,0.0235467547169775
425,0.0231410530367706
426,0.0229147782668734
427,0.0222615418044771
428,0.0215456182173119
429,0.0214276404345237
430,0.0215272718410215
431,0.0222978155608563
432,0.0230414679518561
433,0.0236658119034525
434,0.0246918497567066
435,0.0251402914499584
436,0.0253174040278999
437,0.0256368467754166
438,0.0259562895229333
439,0.02627573227045
440,0.0264000385302339
441,0.0267747520018448
442,0.0272528400246395
443,0.0273983560316093
444,0.0276655107209389
445,0.0279326654102684
446,0.0281998200995979
447,0.0286181629195334
448,0.0285667156046176
449,0.0294218744973384
450,0.0290692082406977
451,0.0288309469253552
452,0.0285914030714511
453,0.028351859217547
454,0.028112315363643
455,0.0280517710216526
456,0.0281917806468894
457,0.0282275830633258
458,0.0284068643796757
459,0.0287702042085244
460,0.0287090010932224
461,0.0283325369069734
462,0.0289865911044283
463,0.0282715750757044
464,0.0279075979115241
465,0.0276458121367076
466,0.02721901011922
467,0.027133923501998
468,0.0269050611801016
469,0.0266728114380205
470,0.0271888825385427
471,0.0271749075598612
472,0.0273615096416449
473,0.0274681696305165
474,0.027739739179448
475,0.0281684842861846
476,0.027536807832919
477,0.0275095766977742
478,0.0274823455626294
479,0.0274551144274847
480,0.0273515817907068
481,0.0265669836837312
482,0.0260646098471884
483,0.0259344820486836
484,0.0254094305691733
485,0.024799861256906
486,0.0250164088878252
487,0.0250713854765411
488,0.0252753147276287
489,0.025789243560613
490,0.0260618040328334
491,0.0262199360341943
492,0.0267503380409245
493,0.026383989899901
494,0.0267440359613081
495,0.0262713527866176
496,0.0263164260162018
497,0.0259316368502562
498,0.0259987619959597
499,0.025226875939136
500,0.0254038036940784
501,0.0250655368245431
502,0.0254413105920321
503,0.0254830085303708
504,0.0252133720473662
505,0.026028619297117
506,0.0258190153504852
507,0.025855293370554
508,0.0259786310721428
509,0.0260107951924571
510,0.0255272745886974
511,0.0258735933843236
512,0.0256075857497701
513,0.0249551389306367
514,0.0246638723382977
515,0.0242714917607123
516,0.0240985395929502
517,0.0239783461483081
518,0.0238779760105516
519,0.0243014355650857
520,0.024834410103576
521,0.0250667644633186
522,0.0252991188230612
523,0.0255314731828038
524,0.0255021548344865
525,0.025512947598328
526,0.0255430561167887
527,0.0253329542328176
528,0.0255421226571846
529,0.0257497447131534
530,0.0258424497658979
531,0.0258295867033248
532,0.0257434986632655
533,0.025967106579267
534,0.0260308742021222
535,0.0257046731141511
536,0.0259609639677146
537,0.0257209768196191
538,0.025504152181859
539,0.0253292652552553
540,0.0253972038800704
541,0.025245160534284
542,0.0249671137601397
543,0.025166389871751
544,0.0252471205712341
545,0.025033691957505
546,0.0252521824909014
547,0.0252065553790441
548,0.0251609282671869
549,0.0251153011553296
550,0.0249332911326106
551,0.0251297104510331
552,0.0252623658197945
553,0.0249658239694596
554,0.0249485109305857
555,0.0250841929724932
556,0.0247301386168045
557,0.0245982295126092
558,0.0243818731781411
559,0.0241049787476036
560,0.0244213360276362
561,0.0238216816579195
562,0.0241344772813901
563,0.0237750108416851
564,0.0237239244281741
565,0.0233391050790928
566,0.0230652264353382
567,0.0227514895873334
568,0.0227997533785759
569,0.0225396250345785
570,0.0223347048049448
571,0.0223560147141725
572,0.0223190419771925
573,0.0221992808981994
574,0.0222854449056173
575,0.0220573843911349
576,0.0221108995065244
577,0.0221644146219139
578,0.0222179297373034
579,0.0222714448526929
580,0.0223249599680823
581,0.0226234284052078
582,0.0224627959598561
583,0.0226024953230381
584,0.0221848786995257
585,0.0220680073945444
586,0.0214838778779764
587,0.0209590308881095
588,0.0207011908283855
589,0.0204433507686614
590,0.0201855107089374
591,0.0203007261998241
592,0.0204595983483313
593,0.0205529996867016
594,0.0209104188655614
595,0.0209371517148904
596,0.0210745786007045
597,0.0212658595996087
598,0.0213000222671798
599,0.0213250244533219
600,0.0216172188452859
601,0.0217406599949989
602,0.0218767209546726
603,0.021744797623844
604,0.0219628824689283
605,0.0219488398324119
606,0.0218682011641718
607,0.0217686127857412
608,0.0214711513661136
609,0.0214512836638628
610,0.0212748429817382
611,0.0211222674317086
612,0.0209433084837548
613,0.0208723400100476
614,0.0205769219170132
615,0.0208707116987062
616,0.0205898680895675
617,0.0208098722833155
618,0.0207140801811432
619,0.0207438906675135
620,0.0206455876247913
621,0.0208303105958449
622,0.0204829451452353
623,0.0203634535625168
624,0.0201740628745015
625,0.0199846721864862
626,0.0197952814984709
627,0.0197202499844041
628,0.0196923096252076
629,0.019673757336147
630,0.0198045566703579
631,0.0196237150866555
632,0.0197395200655814
633,0.0199434145382567
634,0.0199312739448306
635,0.0200073497886818
636,0.0199050113862063
637,0.0200666150524262
638,0.0199489517893118
639,0.0200020671478556
640,0.019954515400632
641,0.0198211566335045
642,0.0196229487469578
643,0.0194545392568001
644,0.0192861297666425
645,0.0191177202764849
646,0.0190465227393572
647,0.0189981220584505
648,0.018664900242804
649,0.0189942808777358
650,0.0187821982341292
651,0.0189792376214765
652,0.0187775056164363
653,0.0184958988466268
654,0.0181032985770568
655,0.0183296955462647
656,0.0181207605793641
657,0.0183523015702691
658,0.0185738227639445
659,0.0190587442510728
660,0.0192766117753511
661,0.0193764249872687
662,0.0194250679756058
663,0.019263272350273
664,0.019214865213313
665,0.0192324944629329
666,0.0192263475287873
667,0.0192788795016035
668,0.0193394946847106
669,0.0189550880622706
670,0.0190717771947133
671,0.0190354856145485
672,0.0188987462551472
673,0.0189073930716749
674,0.0190297763250737
675,0.0189906314530165
676,0.0190557032143627
677,0.0191033357241495
678,0.0189594998001719
679,0.0189550980055586
680,0.0193566572355975
681,0.0190140963197821
682,0.0186086362900724
683,0.0182460795380077
684,0.0175550120040512
685,0.0170550971982132
686,0.0166209042213045
687,0.0163338235683921
688,0.0163774272351856
689,0.0164868622137422
690,0.0168725602249628
691,0.0173921887686774
692,0.0177086911775734
693,0.0180571039430944
694,0.0185858040407025
695,0.0189733953857737
696,0.0195082679852835
697,0.0199557451246007
698,0.0199104124425781
699,0.0203268802661292
700,0.0210162935670093
701,0.0212307261292193
702,0.0219616373864111
703,0.0223760437585379
704,0.0232075223457996
705,0.0237216761161191
706,0.0244785642859776
707,0.0250565639475678
708,0.0255840969140578
709,0.0262671873167399
710,0.0263917802554489
711,0.0268543498035235
712,0.0271723095174328
713,0.0263814933133675
714,0.025902585241951
715,0.0246237680010281
716,0.0236673406477468
717,0.0230855646080533
718,0.023295393909726
719,0.0237648560018096
720,0.0244256357258702
721,0.024576514307921
722,0.0257499022013987
723,0.0258483656436008
724,0.0260238523837673
725,0.0264664114622746
726,0.0267840447047411
727,0.0275289110028472
728,0.0283958276792313
729,0.029616803117118
730,0.0308062906658053
731,0.0324208978616413
732,0.0338642364408236
733,0.0354550315637375
734,0.036562672768751
735,0.0372867228345324
736,0.0383305732523193
737,0.039015638949868
738,0.0397007046474166
739,0.0403857703449653
740,0.041622605059179
741,0.042177914297811
742,0.0427994153479628
743,0.0434209163981145
744,0.0440424174482663
745,0.0443663465059389
746,0.0446687691637013
747,0.0451099075371406
748,0.0448033554726034
749,0.0452024352014039
750,0.0453413250489786
751,0.0453382973311253
752,0.0460758738528113
753,0.0458659835397133
754,0.0453713320943518
755,0.0420887652729835
756,0.0388061984516152
757,0.0355236316302469
758,0.0303725873850454
759,0.0256894227993314
760,0.0227381964751217
761,0.0221125570211898
762,0.0230869143210754
763,0.0254166078746196
764,0.0287635824083472
765,0.0320373532241148
766,0.0358733002509144
767,0.0395466436108382
768,0.0417296705900266
769,0.0434074514751757
770,0.0446996354111397
771,0.045298620694451
772,0.0460586151188278
773,0.0466490144847584
774,0.0465162561138865
775,0.0466805783180079
776,0.0468967423187493
777,0.0464076002366993
778,0.0470323516718067
779,0.0465929256651773
780,0.0472658859601334
