"wavelength","measurement"
380,0.00621925503598479
381,0.00614035183567201
382,0.00596609991519724
383,0.005834692923645
384,0.00588101552250224
385,0.00616035967649505
386,0.00644283588025205
387,0.00668102503013703
388,0.00690123570991182
389,0.00706877520230124
390,0.00699295523384981
391,0.00691267080847393
392,0.00697188339249852
393,0.00707119567721033
394,0.00706049911364367
395,0.00764984052135472
396,0.00835186585353959
397,0.00923130765580511
398,0.0101107494580706
399,0.0109901912603362
400,0.0114456667583216
401,0.0119860509110353
402,0.0122977916165603
403,0.0125097083753928
404,0.0124980758728023
405,0.0124432325157999
406,0.01249064975246
407,0.0126890009811625
408,0.0127295019553791
409,0.0130312274349651
410,0.0135935729482667
411,0.0136101608671738
412,0.0140057297305338
413,0.0143492904937381
414,0.0143990297641768
415,0.014552794183045
416,0.0145232946921659
417,0.0144978939988208
418,0.0147009335185837
419,0.0145070237540565
420,0.0148849430769225
421,0.0148408836898905
422,0.0150407744490179
423,0.0151056211419387
424,0.0151777431182231
425,0.0149635899923789
426,0.0148107371578191
427,0.0144865996865524
428,0.0141192390571677
429,0.0139870478956323
430,0.0141163731372695
431,0.0147024110929206
432,0.0152570434377319
433,0.0156662241781338
434,0.0163972187362447
435,0.0167125054656138
436,0.0168275463003488
437,0.0170838140821349
438,0.017340081863921
439,0.0175963496457071
440,0.0176298208079799
441,0.0179041011409116
442,0.0183010056106148
443,0.0184037439430763
444,0.0186610961359375
445,0.0189184483287987
446,0.0191758005216599
447,0.0194933658585904
448,0.0194274885353863
449,0.0201558812921586
450,0.0199990744936142
451,0.0198413004177946
452,0.0197695301928244
453,0.0196977599678542
454,0.0196259897428839
455,0.0196674000261508
456,0.0196631598333453
457,0.0198001983480888
458,0.0198874697755419
459,0.0202405006256375
460,0.0202253091739357
461,0.0199976964017085
462,0.0204805861597107
463,0.0199731846689422
464,0.019710290341396
465,0.0195270430008419
466,0.0193279168129464
467,0.0192236465988479
468,0.0191962645075392
469,0.0190233949920803
470,0.0193812046935389
471,0.0193635087489929
472,0.019459616215002
473,0.0196692477930844
474,0.0196171110448007
475,0.0199862191536011
476,0.0194808833308164
477,0.0195179920775714
478,0.0195551008243265
479,0.0195922095710815
480,0.0195116812310579
481,0.0189889615573168
482,0.0187082479352761
483,0.0185515475167791
484,0.0180959768142499
485,0.0177332541086301
486,0.017836061276841
487,0.0180387070881145
488,0.0182356189652202
489,0.0186672226269195
490,0.0188524087202892
491,0.0189444395951637
492,0.0194086745652224
493,0.0192257722084151
494,0.0195121416228042
495,0.0192507283710869
496,0.0192420986631
497,0.0190876961016252
498,0.0190895666258075
499,0.0186901999866754
500,0.0188007446916467
501,0.0186612203745761
502,0.0189218361054469
503,0.0190183412070661
504,0.0188325832044814
505,0.019439060705075
506,0.0193655617144514
507,0.0195565815051158
508,0.0197229177040089
509,0.0197904098391047
510,0.0195455258749381
511,0.0198659006982291
512,0.0197504993394008
513,0.0192540179996163
514,0.0192207564954528
515,0.0189626674385559
516,0.0188758586289211
517,0.0189576954264319
518,0.0189896035017852
519,0.0193974796589703
520,0.0198044589900831
521,0.0200905944049892
522,0.0203767298198952
523,0.0206628652348013
524,0.0206549105160519
525,0.0207319312490216
526,0.020931484219041
527,0.0208892812046345
528,0.0210661476631619
529,0.0214186766977246
530,0.0214576289183562
531,0.0215711693622697
532,0.0215431629008121
533,0.0217782496876844
534,0.0218980383920424
535,0.0216407699927092
536,0.0218766749647115
537,0.0217328581374035
538,0.021634092667731
539,0.0214685338967175
540,0.021561012215833
541,0.0213949100981312
542,0.0213496911483911
543,0.0215069029714019
544,0.0215848486862084
545,0.0215162703310561
546,0.0217129611147097
547,0.0217325949811549
548,0.0217522288476002
549,0.0217718627140454
550,0.0216103469397458
551,0.0218176748058298
552,0.0220480501154143
553,0.0218468646699303
554,0.0217630765263331
555,0.021982019037743
556,0.0216991270334139
557,0.0215986199225946
558,0.0215221941930136
559,0.0212863673381132
560,0.021568609653839
561,0.0212001314613308
562,0.0214977159012552
563,0.021166415905476
564,0.0212052284993948
565,0.0208505499414625
566,0.0206776678791201
567,0.0202940203543206
568,0.0203768199784027
569,0.0200406143014166
570,0.020034666149537
571,0.0200564679469592
572,0.0199801289090776
573,0.0199267496418806
574,0.0200940159790764
575,0.0197730378341451
576,0.0198478141365727
577,0.0199225904390002
578,0.0199973667414278
579,0.0200721430438553
580,0.0201469193462829
581,0.0204373067002222
582,0.0202912194459545
583,0.0202875169387697
584,0.0198372508394199
585,0.0196317002389831
586,0.0188851759029738
587,0.0184274641396377
588,0.0181003022534127
589,0.0177731403671878
590,0.0174459784809628
591,0.0175128078433137
592,0.017751034661616
593,0.0177728276201953
594,0.0181156188850658
595,0.018202031498515
596,0.0184664968197189
597,0.0186948825615181
598,0.0188500676629649
599,0.0189610138504268
600,0.0192478057547426
601,0.0194144041197147
602,0.0195656708328406
603,0.0195304585091238
604,0.0196978170703339
605,0.0196035758216944
606,0.0196615446312319
607,0.0195660419751258
608,0.0193156567857141
609,0.0192955031705164
610,0.0191347352390356
611,0.019055492655639
612,0.0188460027740358
613,0.018748200199716
614,0.0185362813220526
615,0.0187221600583113
616,0.0185408609843167
617,0.0186790724704226
618,0.0186874226169428
619,0.0187560924349284
620,0.0186495688119071
621,0.018732964967314
622,0.0183576445475236
623,0.0182571265641212
624,0.0181004705543313
625,0.0179438145445413
626,0.0177871585347514
627,0.0177048875392986
628,0.0176157003875813
629,0.0176083768148341
630,0.0178193584835262
631,0.0176458177308083
632,0.0177593387528405
633,0.0179110130007716
634,0.0179770264627464
635,0.0180883599738371
636,0.0179604056839759
637,0.0181751199113572
638,0.018034708761649
639,0.0181274381310746
640,0.0180050364820331
641,0.017939301573784
642,0.0178329496794093
643,0.0175562949244492
644,0.017279640169489
645,0.0170029854145289
646,0.0170278256375025
647,0.016861152836568
648,0.0165738552140807
649,0.0168914771588887
650,0.0167352822275146
651,0.0168987732315248
652,0.0167074426001489
653,0.0165191161643911
654,0.0162474021568134
655,0.0164373591216943
656,0.0163998588021886
657,0.0165616592453187
658,0.0168062151538667
659,0.0173315604104611
660,0.0174711412579313
661,0.0175984754437543
662,0.0177060215392114
663,0.0176251380104635
664,0.0175321519560787
665,0.0176187085973937
666,0.017602742609117
667,0.017579182884794
668,0.0176854644994419
669,0.0173673786649456
670,0.017448232720073
671,0.0174059827450757
672,0.0173277189253927
673,0.0174336924632026
674,0.0174462444501318
675,0.0174805957467291
676,0.0174660419190448
677,0.0175497371156958
678,0.0174458944765192
679,0.0173903513247687
680,0.0178135218285142
681,0.0175132804263544
682,0.0170984970328177
683,0.0167341804534139
684,0.0161593718492865
685,0.015614824717852
686,0.0152057718341431
687,0.0149218608829604
688,0.0147890774787883
689,0.0148365602988652
690,0.0150839430255423
691,0.015416526169379
692,0.0155302838566597
693,0.015857158307142
694,0.0162371428326006
695,0.0163942170209622
696,0.0168679143994795
697,0.0171366283926574
698,0.0170388870117103
699,0.0173179131338102
700,0.0177959525814276
701,0.0179120630195881
702,0.0185432280984054
703,0.018967348192783
704,0.0194928331710469
705,0.0198746270222664
706,0.0204488855457741
707,0.0209754101669211
708,0.0213977369395148
709,0.0219294643417953
710,0.0220326880088179
711,0.0221485771401
712,0.022286167470731
713,0.0212980612003382
714,0.0206453294938494
715,0.0193182775151373
716,0.0181576533660623
717,0.0174695512966044
718,0.0174185290751093
719,0.0177921237686886
720,0.0182851724710622
721,0.0183581782314417
722,0.0191132544864037
723,0.0190951633856789
724,0.019209320955827
725,0.0194414994495013
726,0.0197062788202089
727,0.0203062892163171
728,0.0210512084961905
729,0.0221437804243081
730,0.0233460392180032
731,0.0247884464727752
732,0.0262086952574259
733,0.0276965366700468
734,0.0288412224998814
735,0.0295287203826549
736,0.0305223063863737
737,0.0313625061584749
738,0.0322027059305761
739,0.0330429057026774
740,0.0341829170313361
741,0.0349009774331735
742,0.0355761017411936
743,0.0362512260492138
744,0.036926350357234
745,0.0373039260424666
746,0.0375039955631685
747,0.0380426010145478
748,0.0376596333794611
749,0.0381381551779701
750,0.0383025978285181
751,0.0384223915033059
752,0.0388926384005131
753,0.038623233016408
754,0.0381416865376987
755,0.0353316380555814
756,0.0325215895734642
757,0.029711541091347
758,0.0253050962538296
759,0.0213262305367374
760,0.0187837170555828
761,0.018236957004637
762,0.0190018377486829
763,0.0209664223702945
764,0.0238427248609525
765,0.0266082883961226
766,0.0298771411929082
767,0.0330407173739884
768,0.0349061297316772
769,0.0364159873272267
770,0.0376273891600703
771,0.0380387545305996
772,0.0385884771628744
773,0.0390887609795267
774,0.0390670267510223
775,0.0392116036617662
776,0.039315106842316
777,0.0390240948192304
778,0.0395081772493837
779,0.0390739990616238
780,0.0395540170097864
