"wavelength","measurement"
380,0.00531451478404212
381,0.00518567548075966
382,0.00509506803359625
383,0.00497505599957784
384,0.00501023851256421
385,0.00525461132212529
386,0.00546529217420069
387,0.00569018408302027
388,0.00594542485085504
389,0.00602888967363548
390,0.00599188028436731
391,0.0059631227642811
392,0.00593854927443549
393,0.00604048447155183
394,0.00615776615488317
395,0.00657148907739464
396,0.00721931663844407
397,0.00800151596790299
398,0.00878371529736191
399,0.00956591462682082
400,0.00990672255227469
401,0.0104656557921541
402,0.0108025046351989
403,0.010900359759501
404,0.01088162241587
405,0.0109044925848366
406,0.0110463561073746
407,0.0110537459617215
408,0.0110596121889885
409,0.0112276801791878
410,0.0116606115674957
411,0.0116210309193043
412,0.0119602400150105
413,0.0121300290989991
414,0.0120139005915161
415,0.0121134425055258
416,0.0119628056092017
417,0.0118208636246411
418,0.0119730050373404
419,0.0116780404281015
420,0.0119996378319162
421,0.0118439863374638
422,0.0119361335933695
423,0.0120147644029315
424,0.0120375172341503
425,0.0117435899127113
426,0.0116206049170588
427,0.011265994934413
428,0.0108925541974907
429,0.0108957353386995
430,0.0109221379846259
431,0.0113065880303407
432,0.0117064657029129
433,0.0121323182414265
434,0.0125966518980278
435,0.0128086431366993
436,0.0129145401856898
437,0.0130971860906037
438,0.0132798319955176
439,0.0134624779004315
440,0.013555255046809
441,0.0137504150817018
442,0.0140169393655352
443,0.0141423115341933
444,0.0143653045650306
445,0.0145882975958678
446,0.014811290626705
447,0.0150483178636035
448,0.0150736363072543
449,0.0156754335212556
450,0.0155644597449277
451,0.0154443223593408
452,0.0153893685686646
453,0.0153344147779884
454,0.0152794609873122
455,0.0153474473220081
456,0.0153559010423893
457,0.0155062602325066
458,0.015620491808931
459,0.0158108988483305
460,0.0157881513214403
461,0.0156573781636801
462,0.016035628478426
463,0.0155821577534954
464,0.0154071109760349
465,0.0152749335622221
466,0.0150929743380126
467,0.0150596868146624
468,0.0149211210131488
469,0.0147942659836622
470,0.0151605221418587
471,0.0151056318395923
472,0.0151696752834187
473,0.0153383800190358
474,0.0153861432502065
475,0.0156205644376259
476,0.0152446908303402
477,0.0152553652023702
478,0.0152660395744002
479,0.0152767139464302
480,0.0152601220557959
481,0.0148729446071327
482,0.0146512616850073
483,0.0145103265141843
484,0.0141739711910491
485,0.0138789676060815
486,0.0140300888340745
487,0.014150557740669
488,0.0143130497230586
489,0.0146993170176294
490,0.0147730944340901
491,0.0149175039708549
492,0.0152506451549663
493,0.0150804086635119
494,0.0153113224394014
495,0.0150742931216965
496,0.0151717562117172
497,0.014888066481457
498,0.0149867210982199
499,0.0146474921467917
500,0.014710088845909
501,0.0145670343247805
502,0.0147757894243226
503,0.0148900821772684
504,0.0147071919816001
505,0.0152243496897395
506,0.0151581332167106
507,0.0152481296517169
508,0.0154039497019875
509,0.0154327880346511
510,0.015207819583164
511,0.0154609811420585
512,0.0153991816118176
513,0.0149681215497274
514,0.0149429628712479
515,0.0147318286597266
516,0.0146693224315841
517,0.0146887231550372
518,0.0146564795528195
519,0.0150189176044918
520,0.0153268837481543
521,0.0155342119694946
522,0.015741540190835
523,0.0159488684121753
524,0.0158993956879417
525,0.0159271383991199
526,0.0160071613137358
527,0.0159756984566588
528,0.0161555530384146
529,0.0163731241128685
530,0.0163850092640817
531,0.0164552748862675
532,0.0164312728301375
533,0.0166088181416798
534,0.0167015882175284
535,0.016512805602134
536,0.0166812854842415
537,0.01660113064849
538,0.0164639362156518
539,0.0163640122485855
540,0.0164408151822015
541,0.0163242559817298
542,0.0162190129620918
543,0.0163106361149883
544,0.0164464534585012
545,0.0163433246864463
546,0.0164729757019472
547,0.0164869216509059
548,0.0165008675998645
549,0.0165148135488231
550,0.0164387307382308
551,0.0165974125980259
552,0.0167278150270706
553,0.0165811094191197
554,0.0164904389521723
555,0.0166990264891706
556,0.0164620814871985
557,0.016423323893382
558,0.0163047355343589
559,0.0161568507838105
560,0.0163497759598167
561,0.0160692232706495
562,0.0163248318025312
563,0.0160994635082429
564,0.0161062452079552
565,0.0158374786291972
566,0.0157141711422485
567,0.0154628272361016
568,0.01552418364856
569,0.0153047383246114
570,0.0152384998147245
571,0.0153123320921505
572,0.0152258074821572
573,0.0152300420211531
574,0.0153161165646493
575,0.0151121684924966
576,0.0151753486651756
577,0.0152385288378546
578,0.0153017090105336
579,0.0153648891832126
580,0.0154280693558916
581,0.0156302835254036
582,0.0155433197389162
583,0.0155487140157051
584,0.0152110996649452
585,0.0150393129336412
586,0.0144417509177471
587,0.0141007215805213
588,0.0138456028848198
589,0.0135904841891182
590,0.0133353654934166
591,0.013379006650414
592,0.0135309943829513
593,0.0136107129250123
594,0.0138649044341118
595,0.0139128907863007
596,0.0141283583220131
597,0.014248309112123
598,0.0144054185601879
599,0.0145216075737407
600,0.0147143248715337
601,0.0148599563555205
602,0.0149983138095887
603,0.0149510765168528
604,0.0151009213400152
605,0.0150408255866214
606,0.0150733985456419
607,0.0149760265616028
608,0.014793383899591
609,0.014790277205328
610,0.014675671611178
611,0.0145659848999389
612,0.0144770686869425
613,0.0143914373012961
614,0.0142148021230395
615,0.0143743265371714
616,0.0142140889702605
617,0.0143537442952967
618,0.0143131378242202
619,0.0143482563492738
620,0.0142674792180353
621,0.0143517898652846
622,0.0140834264444284
623,0.0140332341241097
624,0.0138944149495276
625,0.0137555957749455
626,0.0136167766003635
627,0.0135524567688528
628,0.0134874893727504
629,0.0134549916813145
630,0.0136171215797279
631,0.0134341398606764
632,0.0135369970524352
633,0.0136575799249246
634,0.0136831253279178
635,0.0138167464644355
636,0.0136999753516878
637,0.0138659691514258
638,0.0137609438853333
639,0.0138322619262351
640,0.0137431099088485
641,0.013712059531244
642,0.0135699352148341
643,0.0133786832530313
644,0.0131874312912284
645,0.0129961793294255
646,0.0129871842564866
647,0.0128824129405907
648,0.0125988890434123
649,0.0128700373718783
650,0.0127595815842969
651,0.0128688719404309
652,0.0127296447679818
653,0.012583921432178
654,0.0123795057656077
655,0.0125390757734179
656,0.012487456367134
657,0.0126816778333453
658,0.012859316617411
659,0.013234913542514
660,0.0133745217391375
661,0.0134670584186923
662,0.0135428313533747
663,0.0135029481104519
664,0.0133979285870066
665,0.0135010555281448
666,0.0134807122374756
667,0.0135623902896204
668,0.0135684762041114
669,0.013321052261582
670,0.0134070496906397
671,0.0133214832474256
672,0.013338484724574
673,0.0133511185885048
674,0.0133937675612813
675,0.0133763575345743
676,0.0133580491005088
677,0.0134629293725408
678,0.0132794036947017
679,0.0132943158614382
680,0.0135103630303436
681,0.0133330861511731
682,0.012993557697819
683,0.0126819801489619
684,0.012195277496897
685,0.0117696462327979
686,0.0114501260604749
687,0.011194412870561
688,0.0110861235230337
689,0.0111011876543062
690,0.0112113177059852
691,0.011446721317624
692,0.011477268481713
693,0.011663480988632
694,0.0118933466005922
695,0.0119536018781336
696,0.0122443583877641
697,0.012361362605732
698,0.0122468735359437
699,0.0124043993236457
700,0.0126852642163457
701,0.012773993441418
702,0.0131434757750498
703,0.0133435534712882
704,0.0137230442677482
705,0.0139354214464506
706,0.0143350323388286
707,0.0147207193268042
708,0.0148527459114853
709,0.015212212328195
710,0.0151733297406035
711,0.015285665511311
712,0.0152679991392782
713,0.0145757170340112
714,0.0140780490480618
715,0.0130963407659028
716,0.0123045081243876
717,0.0118637438486756
718,0.0118142365596177
719,0.01198734755284
720,0.0123681704991171
721,0.0123629075045787
722,0.0128836865794483
723,0.012827704153024
724,0.0129181220598344
725,0.013049821632678
726,0.0131294267050091
727,0.013610504235478
728,0.0141409514093533
729,0.0148319519857965
730,0.0156357966590731
731,0.0166538669860516
732,0.0176210170260935
733,0.0185961654068373
734,0.0193265498017475
735,0.0198939447341758
736,0.0205370102988913
737,0.0211161157125138
738,0.0216952211261362
739,0.0222743265397587
740,0.0230769961847642
741,0.0235356568346758
742,0.0239763085970557
743,0.0244169603594355
744,0.0248576121218154
745,0.0251206895612509
746,0.025293952734815
747,0.0255950295343885
748,0.0254140940174526
749,0.0257535797765804
750,0.0258036819300107
751,0.0258216024890214
752,0.0262761414541575
753,0.0260464813200177
754,0.0257443509286963
755,0.0238097083771405
756,0.0218750658255847
757,0.0199404232740289
758,0.0169537964026384
759,0.0142593964047578
760,0.0126240949966751
761,0.0122953938182283
762,0.0128113424767161
763,0.0141203824170859
764,0.0160321980536381
765,0.0178880758582463
766,0.0201070870038768
767,0.0222385792657519
768,0.0235059816388767
769,0.0244371080836971
770,0.0252812903437747
771,0.025671519746912
772,0.0259971249484379
773,0.02636773990405
774,0.0263173644001831
775,0.0263881700746887
776,0.026457239297346
777,0.0262480535935093
778,0.0265681810842484
779,0.0262809245036788
780,0.0265989779166643
