"wavelength","measurement"
380,0.00522276942941996
381,0.00509742060951064
382,0.00497485219445244
383,0.0048604888106123
384,0.00496192495454534
385,0.00505442601210195
386,0.00531925505998191
387,0.00553604076964634
388,0.00569815175000154
389,0.00578144981842586
390,0.00577598940839726
391,0.00571259837507148
392,0.00570349020678277
393,0.00567684940572196
394,0.00584586575688999
395,0.00614331760662729
396,0.00669831620036659
397,0.00733588836394083
398,0.00797346052751506
399,0.0086110326910893
400,0.00905360174550501
401,0.00921920763496063
402,0.00960690390924564
403,0.00968281612494277
404,0.00976884947295709
405,0.00986130911162909
406,0.00994538927132377
407,0.0100149268321725
408,0.0100502090621734
409,0.0103029695801366
410,0.0107777207370471
411,0.0109410128391634
412,0.0113053034477995
413,0.0116290340506994
414,0.0117751331039369
415,0.0120152903512218
416,0.0120966326486404
417,0.0120806881818542
418,0.0124886808326013
419,0.0124012260974637
420,0.0126967247688506
421,0.0128659596625148
422,0.0131499682703117
423,0.0133182201854426
424,0.0133011541780988
425,0.0132516604444986
426,0.0132633585870461
427,0.0129783263569318
428,0.0127288438496702
429,0.01270195663298
430,0.0126825253530083
431,0.0133863367255276
432,0.0138969008433872
433,0.0143628803760848
434,0.0149904872722636
435,0.0153554718821479
436,0.0156292268195216
437,0.0159369129535375
438,0.0162445990875534
439,0.0165522852215694
440,0.0167519599951849
441,0.0170771821858274
442,0.0175772129065514
443,0.0178029738338384
444,0.0181659423010003
445,0.0185289107681623
446,0.0188918792353242
447,0.0191796548365031
448,0.019310720516441
449,0.0198757747736198
450,0.0196489246870496
451,0.0192716170317728
452,0.0190696182811244
453,0.0188676195304759
454,0.0186656207798274
455,0.0184739547299446
456,0.0184365217935668
457,0.0184481103390071
458,0.0185082257902329
459,0.018631463971072
460,0.018661449280509
461,0.0184247349885396
462,0.0188594460374065
463,0.0182655406447951
464,0.0180005662235694
465,0.0178853864544273
466,0.0175242410639735
467,0.017494757737348
468,0.0172330038687898
469,0.0171175762936881
470,0.0173874850987556
471,0.0173821905780833
472,0.0174278857270659
473,0.0175101780042936
474,0.0175414406280461
475,0.0178411779386844
476,0.0173890779950333
477,0.017341799584931
478,0.0172945211748287
479,0.0172472427647265
480,0.0172314277442303
481,0.0166184260043993
482,0.0164131086049571
483,0.0162651100301871
484,0.015882867241315
485,0.0155170756629255
486,0.0157234640442912
487,0.0157374747730986
488,0.015948516327387
489,0.0162611788651977
490,0.0163045964735308
491,0.0164061113392672
492,0.0168963648397668
493,0.0165679538196564
494,0.0169091203798309
495,0.0166269505651141
496,0.0166611268665301
497,0.0164118051299335
498,0.0164787929252415
499,0.0161867519824083
500,0.0162382389621433
501,0.0161414628580258
502,0.0164190987745929
503,0.0164844405820428
504,0.0163971897968413
505,0.0168951154130955
506,0.0168951815572591
507,0.0169849395033542
508,0.0171944365555362
509,0.0172175838095306
510,0.0170329539216067
511,0.0173229544627011
512,0.0172584605145194
513,0.0168378358817219
514,0.0168176552046115
515,0.016645450524311
516,0.0166791911347786
517,0.0166860374559596
518,0.0166903066031885
519,0.0170927041781996
520,0.0174834436581151
521,0.0177189972553868
522,0.0179545508526586
523,0.0181901044499304
524,0.0181918774440598
525,0.0182595456574203
526,0.0184054360475004
527,0.0183708616440084
528,0.0184883865845149
529,0.0188370059984723
530,0.0188227807630985
531,0.0188991077743096
532,0.0189162073209437
533,0.0190644628294588
534,0.0192272392691062
535,0.0189704194578641
536,0.019156023528448
537,0.0190025917557648
538,0.018913530107674
539,0.0187625837808762
540,0.0188307172440555
541,0.0186821433317858
542,0.0185822933851127
543,0.0186500581649206
544,0.0187618751207972
545,0.0186256088255888
546,0.0188402623681292
547,0.0188396903067782
548,0.0188391182454273
549,0.0188385461840763
550,0.018729851010011
551,0.0187248629062706
552,0.0190915567911956
553,0.0188414064978426
554,0.0187555725898683
555,0.0189110773804977
556,0.0186477662707902
557,0.0185627966541085
558,0.0183811536544306
559,0.0182937210293304
560,0.0185061774863374
561,0.0180266719244306
562,0.0183484926716773
563,0.0179423031669572
564,0.0179542688511983
565,0.0176789948100442
566,0.0174925980958103
567,0.0172447645040765
568,0.0172531017472591
569,0.0169335910096092
570,0.01677819975609
571,0.0168029808579794
572,0.0167315413529248
573,0.0167104691714382
574,0.0168052655336484
575,0.0165141741796928
576,0.0165792858586581
577,0.0166443975376234
578,0.0167095092165887
579,0.016774620895554
580,0.0168397325745193
581,0.0171294306441277
582,0.0170064410339018
583,0.0170513445425422
584,0.016721180565727
585,0.0165966035223465
586,0.0159721577119363
587,0.0156038391434948
588,0.0153645855887556
589,0.0151253320340164
590,0.0148860784792772
591,0.0148945011527407
592,0.0150956273106774
593,0.0151178440935206
594,0.0154568811288585
595,0.0154855648529009
596,0.0157484284868581
597,0.0159013942633183
598,0.0160344526942593
599,0.0161030373238681
600,0.0163330478444309
601,0.0165484621087884
602,0.0165904467933123
603,0.0166036513192206
604,0.0167711136336598
605,0.0166721184943168
606,0.0166056275923482
607,0.0165300292827026
608,0.0163842862766724
609,0.0163817663285238
610,0.0162361696189531
611,0.0160920357642198
612,0.0159877948629151
613,0.0158819126926958
614,0.0157548842210371
615,0.0159600302964413
616,0.0157339215871117
617,0.0158773164014286
618,0.0158415678166271
619,0.0158947745809597
620,0.0158294947386735
621,0.0159135359728558
622,0.0155071564632859
623,0.0155884000443358
624,0.0154428945299014
625,0.0152973890154669
626,0.0151518835010325
627,0.0150727576795294
628,0.0150436542455094
629,0.0149691215009855
630,0.0151840031314705
631,0.0150158858526988
632,0.0151590262417364
633,0.0152400474188656
634,0.0153532874895424
635,0.0154199070672244
636,0.0152501545124495
637,0.015503880428805
638,0.0154191591021213
639,0.015421621179807
640,0.0153534623734808
641,0.0152421291769431
642,0.0151174153978833
643,0.0149101596760705
644,0.0147029039542578
645,0.0144956482324451
646,0.0144151022017774
647,0.0143901511519938
648,0.0141616657598961
649,0.0144277206017893
650,0.0142580997741685
651,0.0144161219004635
652,0.0142319030602804
653,0.0140063522620076
654,0.0138312858932792
655,0.0140581026201496
656,0.0139694259005376
657,0.0142225596825623
658,0.0143355738861568
659,0.0146936494480749
660,0.014844756572625
661,0.014902673947275
662,0.0150976262343464
663,0.0150223071526622
664,0.0148885971867666
665,0.0149809514365158
666,0.0149985664095511
667,0.0150041276707581
668,0.0150375088151753
669,0.0148230033143503
670,0.0148702859711983
671,0.0148554498052806
672,0.0148180104867323
673,0.01493094129327
674,0.0149779217394808
675,0.0149181272820651
676,0.0149472686627923
677,0.0150822496851657
678,0.0149143672671308
679,0.0150044935380726
680,0.0152402867850714
681,0.0150660748265979
682,0.0146727627903206
683,0.0144982907400877
684,0.0138880670138406
685,0.0135561295060541
686,0.0132361726705857
687,0.0130412421055991
688,0.0129367973024975
689,0.0130163640388508
690,0.0132692913252302
691,0.0135701570773559
692,0.0137586796794279
693,0.0139502475447336
694,0.0143528580021454
695,0.0145319620152507
696,0.0150057040844654
697,0.0153798422204955
698,0.0152298530493275
699,0.0154701150195439
700,0.016100236380682
701,0.0162731800131554
702,0.0168149025079561
703,0.0172814747726689
704,0.0178611973083833
705,0.0182590539834097
706,0.0187920050819313
707,0.019299611112447
708,0.0197030061372721
709,0.02028234159902
710,0.0204051059878299
711,0.0206912502833014
712,0.0208265262630604
713,0.0199106263851626
714,0.0192530451373955
715,0.0181375332715721
716,0.0170753362059768
717,0.0166410921282633
718,0.0166025835240039
719,0.0169224983636469
720,0.0174931425744725
721,0.0176891504091299
722,0.0184433107884848
723,0.0183891451651495
724,0.0185433395357682
725,0.018796173741088
726,0.0190131847217709
727,0.0196570358439254
728,0.0204979950318539
729,0.0214737417595252
730,0.0227491304331209
731,0.0242422941758064
732,0.0254710048315449
733,0.0269119624287889
734,0.0279372498837801
735,0.028820418957043
736,0.0298100578480052
737,0.0306708702808281
738,0.0315316827136509
739,0.0323924951464738
740,0.0335136375494674
741,0.0342702254229829
742,0.0349028061437353
743,0.0355353868644877
744,0.0361679675852402
745,0.0366788734401388
746,0.036967809016738
747,0.0374672803709323
748,0.0372363541893902
749,0.0376599933995287
750,0.0377766293269832
751,0.0378195818458527
752,0.0384567028869797
753,0.0382067026601145
754,0.0377761420783857
755,0.0350032812651997
756,0.0322304204520138
757,0.0294575596388278
758,0.025077590284511
759,0.0212335105152819
760,0.0188559024612912
761,0.0184647870479146
762,0.019198717824115
763,0.0211807204860699
764,0.0240958388768364
765,0.0266871260179632
766,0.0299576568215527
767,0.0332090158585905
768,0.0349114224957165
769,0.0363929785958078
770,0.0374339707772838
771,0.0381149973710804
772,0.038674235468599
773,0.0391441776112181
774,0.0390333925378986
775,0.0392225868881518
776,0.0393258211355234
777,0.0389688326662314
778,0.0395316281451604
779,0.0390972322066872
780,0.0396760742599643
