"wavelength","measurement"
380,0.00203820076359187
381,0.00201742070928422
382,0.00199835286616655
383,0.00199652678305662
384,0.00207707896802351
385,0.00220716054187932
386,0.00237444721992092
387,0.00250138903163096
388,0.00267034871426481
389,0.00274902249521542
390,0.00280862617941248
391,0.00283200726983858
392,0.00289262214543952
393,0.00293387038229074
394,0.00307614878634626
395,0.00323186895461222
396,0.00360383205664463
397,0.00403018643696511
398,0.0044565408172856
399,0.00488289519760608
400,0.00521138106685761
401,0.00551318964696667
402,0.00580201057099168
403,0.00586751946160105
404,0.00595609153001695
405,0.00601095483720743
406,0.00621446369584828
407,0.00623357688269709
408,0.00634588001507094
409,0.00648323612081584
410,0.00682657824719098
411,0.00690414930217654
412,0.00712966586902548
413,0.0073351677978017
414,0.00733286035763704
415,0.00745373179782313
416,0.00742270997365643
417,0.00742085738854249
418,0.00755288831940062
419,0.00737712868077772
420,0.0076623171526683
421,0.00762853221472684
422,0.0076869016726674
423,0.00781852164925958
424,0.00785290486505421
425,0.00772921410233651
426,0.00765404367655696
427,0.00750899360432078
428,0.00723770786658944
429,0.00727150842320755
430,0.0073115539486881
431,0.00757926109251303
432,0.00792879145537412
433,0.00823006640310387
434,0.0086016339829724
435,0.0088336546479925
436,0.00892843311440334
437,0.0090734266304355
438,0.00921842014646768
439,0.00936341366249985
440,0.00940647839403181
441,0.00962076039507422
442,0.00986315645906319
443,0.0099942046136051
444,0.0101880554776222
445,0.0103819063416393
446,0.0105757572056563
447,0.0108052195865517
448,0.0108715820045499
449,0.0113492205261669
450,0.0113049561023231
451,0.0112473065679521
452,0.0112313456579208
453,0.0112153847478896
454,0.0111994238378583
455,0.0112668621934003
456,0.0112476036484543
457,0.0114311308681862
458,0.0114593553211338
459,0.0116533814455077
460,0.0116664117969361
461,0.0115740581248504
462,0.0119168805926281
463,0.0115785191348879
464,0.0114821304176068
465,0.011406659689398
466,0.0112762814981163
467,0.0112573254492863
468,0.0111611538562179
469,0.0110474405869144
470,0.01132158004744
471,0.0113223115518848
472,0.0113870515252975
473,0.011519843370861
474,0.0116054395879958
475,0.0117635935377826
476,0.0115355512515071
477,0.0115640377081618
478,0.0115925241648165
479,0.0116210106214711
480,0.0115927042800268
481,0.0113289058948502
482,0.0111257301650742
483,0.011148588744967
484,0.0108956055937747
485,0.0107302002520091
486,0.0108360301738719
487,0.0109438034282516
488,0.0110341419083013
489,0.0113300462010544
490,0.0114378518375269
491,0.0115056393970682
492,0.0117803359849633
493,0.0116563856501088
494,0.0118582623487974
495,0.011686882197115
496,0.0117450011142305
497,0.0115413083888378
498,0.0116278625112349
499,0.0114003354971924
500,0.0114481806947167
501,0.0113407057939201
502,0.0115491487040227
503,0.0116401922465487
504,0.0115494812899186
505,0.0119683273654637
506,0.0119385231732256
507,0.0120199455978209
508,0.0120981188747406
509,0.0121438526739368
510,0.0119683538107921
511,0.0122159848834155
512,0.0121732845292236
513,0.0118625190710869
514,0.0118593470073368
515,0.0116858249116268
516,0.0116856445092912
517,0.0117034521900673
518,0.0117129041347788
519,0.0119869333640487
520,0.0122809038616211
521,0.0124769117525478
522,0.0126729196434745
523,0.0128689275344013
524,0.0128599695206363
525,0.0129640435156989
526,0.0130389254101083
527,0.0129894968956884
528,0.0131622661615866
529,0.0133706106139023
530,0.0134247062357391
531,0.0134699173629035
532,0.0134756340368693
533,0.0136467068679744
534,0.0136877325648628
535,0.0136113815681299
536,0.0137990959295431
537,0.0137990308673995
538,0.0138359299494477
539,0.013916486346661
540,0.0141728687523499
541,0.014322659366735
542,0.0144828268824864
543,0.0146936458629084
544,0.0148186017057916
545,0.0146163658745877
546,0.0146332047334127
547,0.0144381216620978
548,0.0142430385907829
549,0.014047955519468
550,0.0138332664227599
551,0.0138980682846696
552,0.0139601647515563
553,0.0137919016097818
554,0.0136753008707526
555,0.0137737461186556
556,0.0135783005716083
557,0.0135322280083479
558,0.0134348390063709
559,0.0132857732374729
560,0.0134463934617125
561,0.0132114776578865
562,0.0133977301501991
563,0.0131940306884861
564,0.0132378321025228
565,0.0130189673390954
566,0.0129598424625056
567,0.0127729290160484
568,0.0128178544423947
569,0.0126681364656837
570,0.0126411090553571
571,0.0126302344195619
572,0.0126112427466917
573,0.0125683926898962
574,0.0126540826275938
575,0.0124941922264197
576,0.0125119898847498
577,0.0125297875430798
578,0.0125475852014098
579,0.0125653828597399
580,0.0125831805180699
581,0.0127085841885315
582,0.0126084296613151
583,0.0126380215869295
584,0.0124332746524048
585,0.0123922428796423
586,0.0120041898437062
587,0.0118491280295115
588,0.0116928087573036
589,0.0115364894850957
590,0.0113801702128878
591,0.0114046423048021
592,0.0114584596168746
593,0.0114493148615727
594,0.0115841990664597
595,0.0115204778437112
596,0.0115565459391773
597,0.0115928830724021
598,0.0115952140002426
599,0.0115839306731851
600,0.0116461364784773
601,0.0116676320103767
602,0.0116985634960375
603,0.0116357934857765
604,0.0117080865513126
605,0.0116473211818445
606,0.0116917999356148
607,0.0117679908758877
608,0.0117654843453614
609,0.0119129174540141
610,0.0119278328792889
611,0.0119220501578704
612,0.0117775410669199
613,0.0115541447389232
614,0.0112351060191117
615,0.0111847275576601
616,0.0109754622013971
617,0.0109784789371798
618,0.0109347589768519
619,0.0109210124561005
620,0.0108302464260074
621,0.0108684131700771
622,0.0106204275581416
623,0.0105726527226895
624,0.0104664960967836
625,0.0103603394708778
626,0.010254182844972
627,0.0102177659260344
628,0.0101805660855725
629,0.0101179029261862
630,0.0101908839697367
631,0.0100187699591103
632,0.00999089735422781
633,0.0100207986096847
634,0.00994679751874383
635,0.00995812139377002
636,0.00983990726598404
637,0.0098708811049978
638,0.0097315754890921
639,0.00976569657562437
640,0.00965560352730408
641,0.00958272894814068
642,0.00948738604200709
643,0.00938656434170311
644,0.00928574264139913
645,0.00918492094109515
646,0.00915071015120038
647,0.00908581572926015
648,0.00888402740816435
649,0.00901489848583074
650,0.00888209939484172
651,0.00891177990286144
652,0.00877430939192344
653,0.0085734539445584
654,0.0083533965671916
655,0.00839686823889167
656,0.00828448470911761
657,0.00832380549837477
658,0.00834454254147242
659,0.00854171763325105
660,0.0085598722869131
661,0.00856479768130401
662,0.00854038803852249
663,0.00843893260988746
664,0.00834638326406197
665,0.00833685002218192
666,0.00829490320054454
667,0.00827392934968478
668,0.00823368683520757
669,0.00807352228950898
670,0.00805051985762887
671,0.00798468595764101
672,0.00794233750114276
673,0.00792973364871169
674,0.00792741156238387
675,0.00788935223105788
676,0.00784386134643874
677,0.00787937130804886
678,0.00775060848965583
679,0.00772575623079883
680,0.00792150935167529
681,0.00777127501742369
682,0.00760187615113253
683,0.00748897198209476
684,0.0072701153326033
685,0.00710277385106206
686,0.00698177853920568
687,0.006916708794062
688,0.00686622274460316
689,0.00697685605061832
690,0.00714918718693981
691,0.00740442493463635
692,0.00751146304897196
693,0.00764708570020323
694,0.00790826395082534
695,0.00799114839071883
696,0.00825734487497362
697,0.00840483292595353
698,0.00843284216370734
699,0.00859009750653081
700,0.0088905573216878
701,0.00892940184975747
702,0.00921254320725614
703,0.00934682665492153
704,0.00968408122805884
705,0.00981224871466284
706,0.0101009453058733
707,0.0103166487260934
708,0.0104528657426524
709,0.0107060350147592
710,0.0106823851961189
711,0.0108344542514946
712,0.0110066725330931
713,0.0107034332866855
714,0.0105724826831518
715,0.0101831046716737
716,0.0098525080353915
717,0.00960437337703302
718,0.00963070481440297
719,0.00978731066335892
720,0.00998924376655917
721,0.00996922738087142
722,0.0103500667591445
723,0.0104191867304776
724,0.010456385701725
725,0.0105580150607734
726,0.0105613236696721
727,0.0107839216893908
728,0.010992673628302
729,0.0112072833837489
730,0.0115377341040363
731,0.0119071932119487
732,0.0122353967727762
733,0.0125907704545398
734,0.0128772006730482
735,0.0130005080411106
736,0.0131745682191039
737,0.0132688843385643
738,0.0133632004580248
739,0.0134575165774853
740,0.0137340927813182
741,0.0137722526664577
742,0.0138561548027738
743,0.0139400569390899
744,0.0140239590754061
745,0.0140601023811563
746,0.014049142533005
747,0.0141302452525867
748,0.013888031948908
749,0.0139594396593164
750,0.0139410946456244
751,0.0138681164122551
752,0.0139949979900588
753,0.0137729268105342
754,0.0136793345967909
755,0.012820251839088
756,0.011961169081385
757,0.0111020863236821
758,0.00978520577191671
759,0.00861245419080422
760,0.00775974688253571
761,0.00753888425795356
762,0.00782922042482828
763,0.00831031605468262
764,0.00906431512958904
765,0.00972685388432403
766,0.0106134247152718
767,0.0114591161557155
768,0.0119403001745568
769,0.0122804369244323
770,0.0124660965699836
771,0.0125417780522625
772,0.0127106094172616
773,0.0127837584766993
774,0.0126863414821482
775,0.0126455203577431
776,0.0126695660460753
777,0.0124848765749181
778,0.0125413196797715
779,0.0123920426358584
780,0.0125227504080477
