"wavelength","measurement"
380,0.00533030498091151
381,0.00504884071441122
382,0.00503822130415022
383,0.00491750861610787
384,0.00497571281558369
385,0.00518713010490566
386,0.00549768398314434
387,0.00589900630468507
388,0.00596634963557595
389,0.00633667266514676
390,0.00625040960625105
391,0.00632693090090445
392,0.00635898137694675
393,0.00655181879338016
394,0.00675539560849357
395,0.00734329871951326
396,0.00804485592864423
397,0.00908999665005914
398,0.0101351373714741
399,0.011180278092889
400,0.0119559108638628
401,0.0127621152630529
402,0.0133188082170549
403,0.0137556685252558
404,0.0141159935155134
405,0.0143820605486869
406,0.0146765369076907
407,0.0150540416659287
408,0.0152249323425653
409,0.0157490347149976
410,0.0166794269879078
411,0.0167820871595772
412,0.0173684409554036
413,0.0178344891119314
414,0.0180125507912509
415,0.0184328689794606
416,0.0182033966075361
417,0.0183201478985021
418,0.0186821184858057
419,0.0183836861088435
420,0.0188845020572462
421,0.0187030876162776
422,0.0190461016176787
423,0.0193417919061289
424,0.0194568229262706
425,0.0190334209460835
426,0.0189273963864247
427,0.0184613223618408
428,0.0180582676088884
429,0.0180766303032904
430,0.0180323587319416
431,0.0188390800534908
432,0.0194824473407293
433,0.0201679397440274
434,0.0210503039705166
435,0.0216108598839754
436,0.0218305664736823
437,0.0222315523627842
438,0.022632538251886
439,0.0230335241409879
440,0.0232030195337962
441,0.0237738277622218
442,0.0243508500609853
443,0.0245999967417418
444,0.0251223909727211
445,0.0256447852037003
446,0.0261671794346795
447,0.0266572877992541
448,0.0268049960566258
449,0.0277670589938569
450,0.0277319292066424
451,0.0275440934780957
452,0.0275011324773884
453,0.0274581714766811
454,0.0274152104759738
455,0.0273831307115881
456,0.0273678647285007
457,0.0275929855512089
458,0.0277608689764702
459,0.0281034973959851
460,0.0281156209321326
461,0.0277871912000626
462,0.0285110703741757
463,0.0277920333362626
464,0.027477062560037
465,0.0272556659083963
466,0.0269461652254283
467,0.0268407376132811
468,0.0266159750313149
469,0.0264328429374546
470,0.0270289123507059
471,0.0269441479153307
472,0.0271055904717375
473,0.0274775330829641
474,0.0275389918306272
475,0.0280105730238556
476,0.0273608095759112
477,0.0274067284949565
478,0.0274526474140018
479,0.0274985663330471
480,0.0274569122115456
481,0.0267230373186504
482,0.0263088810355246
483,0.0261954118171852
484,0.0255821127811214
485,0.0249847162014103
486,0.0252841700332129
487,0.0254569941811209
488,0.0258527635326064
489,0.0264491321539522
490,0.0268243495659651
491,0.0268817698385993
492,0.0276796874297128
493,0.027439995612947
494,0.0278583691831738
495,0.0276511303204896
496,0.0277452669166123
497,0.0273505841546922
498,0.0276499857613247
499,0.0269982022335193
500,0.0272882104676232
501,0.027072840276805
502,0.027609041788265
503,0.0278419513854227
504,0.0276784952914455
505,0.0285754508879002
506,0.0285107884421463
507,0.0286325581416724
508,0.0287965208863199
509,0.0289226378147374
510,0.0283648341658843
511,0.0288737133649102
512,0.0287977217297309
513,0.027887414613438
514,0.0279057776461053
515,0.0273833507550352
516,0.0273708610362818
517,0.0272886565231734
518,0.0272883794709264
519,0.0278415714690827
520,0.0284448325027038
521,0.0288394425760857
522,0.0292340526494676
523,0.0296286627228495
524,0.0295215119347137
525,0.0296724827028543
526,0.0297740904589402
527,0.029750238399046
528,0.0299962813554546
529,0.0304420370009137
530,0.0305655118797608
531,0.0307216961819705
532,0.0306927710643372
533,0.0310044599410589
534,0.0311352521468715
535,0.0308510067946813
536,0.031164724547293
537,0.0310237419799577
538,0.0308796310491664
539,0.0307760791274562
540,0.0310385835087488
541,0.0307915597314945
542,0.0307357223208335
543,0.0309543551501292
544,0.0311754522133992
545,0.0309886824362954
546,0.0312511188096361
547,0.0312896123551955
548,0.0313281059007549
549,0.0313665994463143
550,0.0311607881792906
551,0.0313915032701402
552,0.0317591500512948
553,0.0315138313926406
554,0.0314082322496542
555,0.031858578119506
556,0.0314645686414417
557,0.031407560308256
558,0.0313219499615037
559,0.0310593024780307
560,0.031448640553985
561,0.0309779127466091
562,0.0315812228223529
563,0.0311826317655651
564,0.0313273336330755
565,0.0309968137002086
566,0.0309184324698367
567,0.0305782329555814
568,0.0308614905456615
569,0.0306519660661628
570,0.0306481318322569
571,0.0307563534233621
572,0.0307968209716278
573,0.0308093918693801
574,0.0311803064349739
575,0.0307506620150581
576,0.030893338196222
577,0.031036014377386
578,0.0311786905585499
579,0.0313213667397139
580,0.0314640429208778
581,0.0319637060243664
582,0.0318506024308699
583,0.032052745398779
584,0.0316539417028898
585,0.0317615485216599
586,0.0311073991805078
587,0.0308369589690729
588,0.030705195910434
589,0.0305734328517951
590,0.0304416697931562
591,0.0307219461820486
592,0.031173673814689
593,0.0313125778785175
594,0.0319279464179823
595,0.0319197432248055
596,0.0322498361438727
597,0.0326142152426642
598,0.0326711869056507
599,0.032797788001676
600,0.0331917019662549
601,0.0335062454268921
602,0.033780399734993
603,0.0337454148985298
604,0.0341441691194227
605,0.0340567644896503
606,0.0342494410743891
607,0.0340576630721346
608,0.0338274821709588
609,0.0339873161129885
610,0.0337908388464421
611,0.0336580591171524
612,0.0334236015905783
613,0.0333411799890277
614,0.0329996548584527
615,0.0335595878103028
616,0.0331800229652694
617,0.033459183103094
618,0.0334998714414748
619,0.0336722716726629
620,0.0336102809463531
621,0.0338760233710892
622,0.0332861254416461
623,0.0333055645674391
624,0.0331643777687318
625,0.0330231909700245
626,0.0328820041713172
627,0.0329118722533233
628,0.0327584194051231
629,0.0327754109635286
630,0.0330908959535677
631,0.0325940886711352
632,0.0327736096955977
633,0.0329375845314167
634,0.0328848787076898
635,0.0331308471143008
636,0.0329387487189137
637,0.0331618217706737
638,0.0329696720017025
639,0.0331506901587991
640,0.0328912801725469
641,0.0328637269516856
642,0.0326849757384736
643,0.0325472018734451
644,0.0324094280084166
645,0.0322716541433881
646,0.0324053016365462
647,0.0323466202160756
648,0.0318842054015977
649,0.0323332872576562
650,0.0320430602324517
651,0.0322656866146544
652,0.0319529012220059
653,0.0314212966764322
654,0.0308860936900058
655,0.0311836336537259
656,0.0307322515249995
657,0.0311834817470282
658,0.0314291789515695
659,0.0322104649810954
660,0.0324744978143866
661,0.0325528464572051
662,0.032658108133114
663,0.032618321150434
664,0.0323743621362405
665,0.0325118433171063
666,0.0325427940252365
667,0.0326987814029945
668,0.0327346860146568
669,0.0320584266034938
670,0.0322872708626641
671,0.0322414230126207
672,0.0320770700597579
673,0.0322857479249625
674,0.0323065700945727
675,0.0323258864102308
676,0.0322563351782836
677,0.0325577378311399
678,0.0322667472013208
679,0.0321742991216641
680,0.0329320046010816
681,0.0325008170374917
682,0.0318606150571039
683,0.0314102114173785
684,0.0305872341754853
685,0.0299056334596399
686,0.0293929051346321
687,0.0288846320973319
688,0.0288715859594972
689,0.0290668222059687
690,0.0295641100149615
691,0.0303795464605662
692,0.0306473998860411
693,0.0309802837705715
694,0.0316838279757356
695,0.0318909648163508
696,0.0325194758428712
697,0.0330388405401564
698,0.0327487640417889
699,0.0331805612447315
700,0.0338940058164809
701,0.0338977369380176
702,0.0348114340000801
703,0.0350506381238146
704,0.0359512331084125
705,0.036276321421716
706,0.0370601291187708
707,0.0378089034333113
708,0.0380544744264806
709,0.0387840588628167
710,0.0387538458690804
711,0.0392857957698109
712,0.039772218490975
713,0.0387398514636723
714,0.0382854568888103
715,0.0369335784128952
716,0.0358015963352023
717,0.0350493708286572
718,0.035062719551522
719,0.0357291852280742
720,0.0364011885661855
721,0.0365010039000097
722,0.0379141620095487
723,0.0381610471603962
724,0.0384255998458232
725,0.0389874037209705
726,0.0391754362692968
727,0.040116664978134
728,0.0409306422328479
729,0.0421324075359576
730,0.0434066993773457
731,0.0449227886521726
732,0.0464158970630579
733,0.048048131613388
734,0.0492896975905503
735,0.0499579303315285
736,0.0509366355489283
737,0.0515693215677284
738,0.0522020075865285
739,0.0528346936053285
740,0.0540822327690954
741,0.0546901912922173
742,0.055302975824453
743,0.0559157603566887
744,0.0565285448889245
745,0.0570856941023285
746,0.0572879898865421
747,0.0579080572539538
748,0.057482616293367
749,0.0580291942831535
750,0.0581642401826783
751,0.0581887806204938
752,0.0591813497642783
753,0.0589368571296007
754,0.0584851584586335
755,0.0550624634838857
756,0.0516397685091379
757,0.0482170735343902
758,0.0425603098407323
759,0.0378148997489817
760,0.03435386917444
761,0.0337877516047613
762,0.0352147993798385
763,0.0378738874684539
764,0.0413612789327816
765,0.044676981633101
766,0.0487860864379118
767,0.0528809511522348
768,0.055167708480402
769,0.0568483383606607
770,0.058227305406678
771,0.0588014380854701
772,0.0595475530215053
773,0.0604616242484122
774,0.0602341535187519
775,0.060425061170567
776,0.0606365872113175
777,0.060164084527143
778,0.0609496410568645
779,0.0604675523018483
780,0.0612279413967497
