"wavelength","measurement"
380,0.00208841571126575
381,0.00205462661087858
382,0.00204909115140453
383,0.00209955396846774
384,0.00213265745512442
385,0.00224526184396913
386,0.00238790367193286
387,0.002536666537798
388,0.0026513834671684
389,0.00286162874030611
390,0.0028802623294465
391,0.00291127546004535
392,0.00290610673046263
393,0.0030187737317454
394,0.00317645919581951
395,0.00333585432972219
396,0.00367551141373031
397,0.00411515993716828
398,0.00455480846060626
399,0.00499445698404423
400,0.0052542683205534
401,0.00552641513300615
402,0.00587031484216812
403,0.00594784884510064
404,0.00604388752912877
405,0.00610747717412677
406,0.00624920993533769
407,0.0063033785657972
408,0.00637359173652987
409,0.00651591258539256
410,0.00692592346688881
411,0.00698037185983122
412,0.00718806268157706
413,0.007369891573133
414,0.00738521979403446
415,0.00751210390229072
416,0.00748238683054471
417,0.00749838723619113
418,0.00760188538793115
419,0.00748552298956255
420,0.00769393646764564
421,0.00766334195519135
422,0.00774647562324826
423,0.00786323581443147
424,0.00793896148003648
425,0.00769151784807671
426,0.00769828678948602
427,0.00752390815187527
428,0.00731427985906262
429,0.00732281341673804
430,0.00736500802736647
431,0.00760815198286443
432,0.00794842191601263
433,0.00826679102544946
434,0.00866753234962604
435,0.00885528883547822
436,0.00892372135145418
437,0.00907136351219418
438,0.00921900567293417
439,0.00936664783367417
440,0.00940389407109343
441,0.00965609636489025
442,0.00988160409833421
443,0.0099651210072051
444,0.0101797851592328
445,0.0103944493112605
446,0.0106091134632882
447,0.0107910965592156
448,0.0108884394776252
449,0.0113196598152818
450,0.0113163443601411
451,0.0112318003250956
452,0.0112353520471434
453,0.0112389037691912
454,0.0112424554912389
455,0.0112227612598808
456,0.0112509375339863
457,0.0114027742519299
458,0.0114299957404755
459,0.0116510735432181
460,0.0116475118366377
461,0.0115748547679073
462,0.0118664702211092
463,0.0115713751749364
464,0.0114432769847343
465,0.01139042413559
466,0.0112357071420953
467,0.0112232482039308
468,0.0111327630822508
469,0.0110339926394577
470,0.0112660651465616
471,0.0112705386222274
472,0.0113609450529544
473,0.0114799926178229
474,0.011558368169273
475,0.0117151651619181
476,0.0115148764104026
477,0.011523754515737
478,0.0115326326210714
479,0.0115415107264058
480,0.0115326350379123
481,0.0112623566788209
482,0.0110945441429523
483,0.0111425540534212
484,0.010846818145991
485,0.0106541288422987
486,0.0107218305384423
487,0.0108508732989183
488,0.0109698978950039
489,0.0112541544733762
490,0.0113207394734077
491,0.0114537996971128
492,0.0116943077309018
493,0.0115838660929391
494,0.0117714043496249
495,0.0115979675257215
496,0.01164281896982
497,0.0114640605388685
498,0.011559882088377
499,0.0113166255373847
500,0.0113672612928404
501,0.0112753515568952
502,0.0115251004965324
503,0.0115727557943424
504,0.011481018580659
505,0.0118579216212037
506,0.0118436036302904
507,0.0119596315430555
508,0.0120300449981715
509,0.012087562561635
510,0.0119041747768426
511,0.0121375172554179
512,0.0120867185736591
513,0.0118169162756909
514,0.0117736635429215
515,0.0116279159570523
516,0.0115946750605618
517,0.0116299982276413
518,0.0116371252610304
519,0.0119247092935505
520,0.012190921459198
521,0.0123915576094839
522,0.0125921937597698
523,0.0127928299100558
524,0.0127751176066795
525,0.0128637270149843
526,0.0129570308973563
527,0.0128804885039757
528,0.0130425013110481
529,0.0132483643168328
530,0.0133240749420911
531,0.0133740096994951
532,0.0134036526342937
533,0.0135275556954467
534,0.0136114256036396
535,0.0134781901374122
536,0.0136988512888938
537,0.0136864853558488
538,0.0136975413621157
539,0.0137732442416689
540,0.0140094852330451
541,0.0141726567825537
542,0.0143015522019449
543,0.0144600997750196
544,0.014603373598434
545,0.0144176724543231
546,0.0144442890760047
547,0.0142572339868368
548,0.0140701788976688
549,0.0138831238085008
550,0.0136946554922573
551,0.0137485167546605
552,0.0138177778149357
553,0.013647054846187
554,0.0135372699890597
555,0.0136684772205816
556,0.0134664553703855
557,0.0134126032097494
558,0.0132731926360205
559,0.0131915810000493
560,0.0133263411492928
561,0.0130810977032601
562,0.0132871686136938
563,0.0130694758841827
564,0.0131098554050946
565,0.0128960464789279
566,0.0128168216223501
567,0.0126543951991167
568,0.0127360580401623
569,0.0125256095179148
570,0.0125120542638967
571,0.0125089497731249
572,0.0124836836354725
573,0.0124811204032044
574,0.0125351375367896
575,0.0123595243463192
576,0.01237579784847
577,0.0123920713506208
578,0.0124083448527716
579,0.0124246183549225
580,0.0124408918570733
581,0.0125481001753106
582,0.0124719512887256
583,0.0124993573696065
584,0.0122972782061217
585,0.0122811860491526
586,0.0118642810812764
587,0.011710243798123
588,0.0115586224080692
589,0.0114070010180155
590,0.0112553796279618
591,0.0112572638133659
592,0.0113442321910865
593,0.0113245169176846
594,0.0114245237386523
595,0.0113943810053515
596,0.0114567692869958
597,0.0114492473898845
598,0.0114566907417964
599,0.0114381263680583
600,0.011514899663672
601,0.0115434430685266
602,0.0115968346926517
603,0.0115044306620342
604,0.0116135247853721
605,0.0115185587062089
606,0.0115930093943518
607,0.0115781051670602
608,0.0116179660602136
609,0.0117464398898452
610,0.0117555421795027
611,0.0117382795283416
612,0.0115851264015612
613,0.0113926819921181
614,0.0110973010155951
615,0.0110084520167481
616,0.0108175815563432
617,0.0108654548079086
618,0.0107539638571106
619,0.0107673104218152
620,0.0106934308338539
621,0.0107109227365946
622,0.0104717443378686
623,0.0104553080356489
624,0.0103479486325797
625,0.0102405892295104
626,0.0101332298264412
627,0.0101116745348629
628,0.0100717519712969
629,0.0100024405894049
630,0.0100986041579938
631,0.00990029833905742
632,0.0098458712393704
633,0.00987205116594164
634,0.00986959286641386
635,0.00987262480342905
636,0.00975411233266852
637,0.00975958681105973
638,0.00963120654830547
639,0.00962980659862499
640,0.0095449563898067
641,0.00948393448635303
642,0.0093530638059611
643,0.00925421354446245
644,0.00915536328296379
645,0.00905651302146514
646,0.00905292564828357
647,0.00900446092384606
648,0.00877524953946039
649,0.00890054202346033
650,0.00877182497600533
651,0.00882751418355624
652,0.00866399683084783
653,0.0084939535419409
654,0.00827655908889663
655,0.00832010471504216
656,0.00815907057309843
657,0.00821370840825484
658,0.00831140810916257
659,0.00846126023081959
660,0.00847576206736517
661,0.00844795325760085
662,0.0084522854678845
663,0.00836987806916084
664,0.00825195528046974
665,0.00826576229542795
666,0.00820592613778272
667,0.00817253699689593
668,0.00817763787669797
669,0.00796036871735239
670,0.00795810815389655
671,0.00788011894695121
672,0.00783966850496868
673,0.00783318083957869
674,0.00785836718984511
675,0.00782763011951815
676,0.0077871140597393
677,0.00779194734823035
678,0.0076904307561682
679,0.00761207126878637
680,0.00779324315510194
681,0.00767631344096719
682,0.007512237115261
683,0.00739253847786385
684,0.00718155507646979
685,0.00703975089178946
686,0.00692288393478459
687,0.00687057050453938
688,0.00682576961355885
689,0.00695697054820438
690,0.00712071847771268
691,0.00731709899595005
692,0.00744095359449825
693,0.00757017160696856
694,0.007825817704791
695,0.00791872315926184
696,0.00814717629683748
697,0.00832338001608583
698,0.00834546434597098
699,0.00849948614603131
700,0.00876951283527932
701,0.00881920079326663
702,0.00911828031043861
703,0.00925483303280024
704,0.00960517802661363
705,0.0097134047624924
706,0.00994951229082681
707,0.0102089446374392
708,0.0103557320001194
709,0.0105245002423137
710,0.0106025413746103
711,0.0107212192688545
712,0.0108896673075537
713,0.0105972037232443
714,0.0104643122761362
715,0.0100301931088366
716,0.00978480711477394
717,0.00949191972604225
718,0.00954357142459182
719,0.0096369650013283
720,0.00989569138676685
721,0.00982604750138109
722,0.0102288410433534
723,0.0102941785077359
724,0.0103373607716579
725,0.0104185514869285
726,0.0104397168582177
727,0.0106460348141168
728,0.0108314704099968
729,0.0110857714086893
730,0.0114117978654439
731,0.0117462475460646
732,0.0121177839206938
733,0.0124936257528973
734,0.0127232282632563
735,0.0128854431913046
736,0.013065336310955
737,0.0131561160037246
738,0.0132468956964941
739,0.0133376753892637
740,0.0135456662578812
741,0.0136203411903021
742,0.013691962060763
743,0.0137635829312239
744,0.0138352038016848
745,0.0138661633212938
746,0.0138674737761057
747,0.0139376392052732
748,0.0137502815620696
749,0.0137917157029929
750,0.0138077691393977
751,0.0137084813218693
752,0.0138663948211493
753,0.0136561101010089
754,0.0134931505049778
755,0.0126793132132119
756,0.0118654759214459
757,0.01105163862968
758,0.00971525795557436
759,0.00852318188288338
760,0.00769814468650213
761,0.00752123409340191
762,0.00777333602559342
763,0.00825529977893266
764,0.00900331920444185
765,0.00966628085404569
766,0.0105010759350876
767,0.0113274675924452
768,0.0118233274222998
769,0.0121777685723059
770,0.0123632685951768
771,0.0124107424117564
772,0.0125403371714957
773,0.0126492559244172
774,0.0125422796559238
775,0.0125342019567357
776,0.012576912090742
777,0.0123843110438353
778,0.0124885836299434
779,0.0122471675780522
780,0.0124206167246153
