"wavelength","measurement"
380,0.00211058357776914
381,0.00205774027209627
382,0.00207952708032561
383,0.00208142378922555
384,0.00210329444743868
385,0.00224526184396913
386,0.00239093850628427
387,0.00252256090800594
388,0.00270726295681344
389,0.00283132418949547
390,0.00282019625734842
391,0.00285064446207234
392,0.00287278048311162
393,0.0029715914730122
394,0.00311164599466382
395,0.00326099508238737
396,0.00363243691058386
397,0.00406582453718047
398,0.00449921216377707
399,0.00493259979037368
400,0.00516843462172559
401,0.00556589972928453
402,0.00577313007459737
403,0.00592879026054459
404,0.00605565462855481
405,0.00609582831500014
406,0.00624920993533769
407,0.00630626888422711
408,0.0063713845842743
409,0.00650453086175718
410,0.00688247672576275
411,0.00693544054605707
412,0.00713233646639421
413,0.00733896845038566
414,0.00735444228202621
415,0.00747684201744575
416,0.00745180200643179
417,0.00748739526761675
418,0.00755730441578487
419,0.00746345146700682
420,0.00768723618401265
421,0.00763471904419449
422,0.00775750591043818
423,0.00777635109072006
424,0.00790631401958947
425,0.00771705775274832
426,0.00766439999553043
427,0.0074902403214371
428,0.00723643832862057
429,0.00728122786551003
430,0.00730365444978598
431,0.00756744228570609
432,0.00789596701578001
433,0.00820272230025299
434,0.00863087785681029
435,0.00878593871024163
436,0.00891432781655695
437,0.00905297057673107
438,0.0091916133369052
439,0.00933025609707932
440,0.00936819425921363
441,0.00959109485510958
442,0.00974041642230316
443,0.00992132830372152
444,0.010119488445563
445,0.0103176485874046
446,0.0105158087292461
447,0.0106751553767428
448,0.0108173639198713
449,0.0112772903746614
450,0.0112354154441034
451,0.0111516071264765
452,0.0111469272800261
453,0.0111422474335758
454,0.0111375675871254
455,0.01117296895602
456,0.0111928465128154
457,0.011348291749526
458,0.0113510637717167
459,0.0115464352575145
460,0.0116231411971491
461,0.011459347133199
462,0.0117867675007691
463,0.0114907966005266
464,0.0113372055828091
465,0.0112916540721532
466,0.0111436110866693
467,0.0111411368848991
468,0.0110492416381669
469,0.0109420279621422
470,0.0112217556891769
471,0.0111787841498886
472,0.0112754507475786
473,0.0113712290594511
474,0.0114872619566268
475,0.0116356814050954
476,0.0113875710213759
477,0.0114159478279363
478,0.0114443246344968
479,0.0114727014410572
480,0.011450655096991
481,0.0111695161474357
482,0.0110146662517983
483,0.0110227372166901
484,0.0107723924464206
485,0.0105693636854359
486,0.0106550138211022
487,0.0108057317801674
488,0.0108964487727212
489,0.0111753057107541
490,0.0112734433536454
491,0.0113169825328894
492,0.0116263764892581
493,0.0114659323424578
494,0.0116771011419433
495,0.0114736838332351
496,0.0115600507602361
497,0.0113391637485333
498,0.0114607529247716
499,0.0112242338812102
500,0.0112661439404968
501,0.0111470520734994
502,0.0113697623031882
503,0.011474493726266
504,0.0113466625663714
505,0.0117895174183624
506,0.0117128824103919
507,0.0118065979407321
508,0.0119114105644344
509,0.0119832658590186
510,0.0117760811191532
511,0.0119940085661022
512,0.0119192114828344
513,0.0116833572886067
514,0.011627176949769
515,0.0114918082346254
516,0.0114673171202909
517,0.0114969231499306
518,0.0114879322788025
519,0.0117609245825219
520,0.0120528167894922
521,0.0122480131561271
522,0.0124432095227619
523,0.0126384058893968
524,0.0125849872052352
525,0.0127133253541403
526,0.0127678464183073
527,0.0127722110446126
528,0.0129295161360605
529,0.0130934695246113
530,0.013134890463042
531,0.0132009059011652
532,0.0131832527162016
533,0.0133449926731644
534,0.0134364299605192
535,0.0133221129421968
536,0.0135011885424503
537,0.013505928039386
538,0.0135473936989519
539,0.013637351103489
540,0.013888297684695
541,0.0140345871470107
542,0.0141685099687618
543,0.0143932721095037
544,0.0145136335904555
545,0.0143252424795331
546,0.0143295565721481
547,0.0141320160500094
548,0.0139344755278707
549,0.013736935005732
550,0.0135494826802092
551,0.0135791484739377
552,0.0136470913738381
553,0.0134619595108258
554,0.0133601591583611
555,0.0134585131037296
556,0.0132612427618615
557,0.0132110856105817
558,0.013117982536334
559,0.0129872661419467
560,0.0131057573018461
561,0.0128777243882824
562,0.0130723654031068
563,0.0128821832499242
564,0.0129236926225859
565,0.0127144293790409
566,0.0126487977776244
567,0.012451021884139
568,0.0125164814248957
569,0.0123480388638296
570,0.0123067891041285
571,0.0123157188482739
572,0.0123192967747711
573,0.0122641100403619
574,0.0123406212960915
575,0.0121722317120606
576,0.0121934415277481
577,0.0122146513434356
578,0.0122358611591231
579,0.0122570709748106
580,0.0122782807904981
581,0.0123943877860833
582,0.0122948185616752
583,0.0123503745923554
584,0.0121048005157707
585,0.0120683535102224
586,0.0117034742740847
587,0.0115562949282968
588,0.0113985812433101
589,0.0112408675583234
590,0.0110831538733367
591,0.0111495469006073
592,0.0111696087859457
593,0.0111708045284572
594,0.0112793509266043
595,0.0112193853622311
596,0.0112584408914594
597,0.0113037154776679
598,0.0112962780689361
599,0.0112563253388166
600,0.0113377888329734
601,0.011359557506599
602,0.0113945605745314
603,0.0113222136021094
604,0.0113850582512983
605,0.011321053613498
606,0.0113781623910614
607,0.0114709225252842
608,0.0114869382913908
609,0.0116304330183172
610,0.0116675932930966
611,0.0116378683333417
612,0.011494711985949
613,0.0112711572399512
614,0.0109801117410731
615,0.0109265552819635
616,0.0107227791118419
617,0.0107278088667718
618,0.0106284014176825
619,0.0106164774028419
620,0.0105515424745671
621,0.0106176607004384
622,0.0103559476713173
623,0.0103012234084419
624,0.0101985950771057
625,0.0100959667457695
626,0.00999333841443322
627,0.0099564348751016
628,0.00989864817296698
629,0.00987093110084373
630,0.00992906070645715
631,0.00975362781655022
632,0.00975245264429924
633,0.0097756459084929
634,0.00965255622794925
635,0.00968869544879804
636,0.00957676064210073
637,0.00960369792446925
638,0.00950856070292937
639,0.00947613362283078
640,0.00940818739755715
641,0.00932928493327114
642,0.0091958698968068
643,0.00912579144149686
644,0.00905571298618692
645,0.00898563453087697
646,0.0089315322742271
647,0.00884069372989888
648,0.00862756302623238
649,0.00876150018989998
650,0.00864317953025198
651,0.00868188154812161
652,0.00854785858120939
653,0.00837917834019838
654,0.00816087628337442
655,0.00815916215046967
656,0.0080460853981108
657,0.00810028530623238
658,0.00814132600737305
659,0.00833438838955732
660,0.00833578306995027
661,0.00831204698160993
662,0.00831065986481862
663,0.00822017271230224
664,0.0081000646677073
665,0.00812761383301867
666,0.0080739874807274
667,0.00805385877045544
668,0.00802278687718005
669,0.00785874774891876
670,0.00782483381938498
671,0.00776320994573145
672,0.00774040796325281
673,0.00770075608351471
674,0.00769675021763898
675,0.00768069684079005
676,0.00764701244275465
677,0.00767224875179869
678,0.00756817028658275
679,0.00751292458809956
680,0.00770526361380343
681,0.00755816072696851
682,0.00739104518764055
683,0.00726102898930268
684,0.00709345291560153
685,0.00690713782710049
686,0.00682405475119803
687,0.00674791590062258
688,0.00673130875214477
689,0.00679280046138516
690,0.006977888575301
691,0.0072153860628391
692,0.00733725247264915
693,0.00748534514032087
694,0.00768420523953616
695,0.00781221492511944
696,0.00801350782799456
697,0.00819186176898395
698,0.00821991066508357
699,0.00833842753079459
700,0.00860471651280028
701,0.0086622302269001
702,0.0089696095561998
703,0.0090979062591372
704,0.00943454413676023
705,0.00956948004249363
706,0.00983262956522914
707,0.0101184251193386
708,0.0101615026016291
709,0.0103814557556549
710,0.0104087258171679
711,0.0105437011660135
712,0.0106695213871417
713,0.0103895080684327
714,0.0102784034913078
715,0.0099083399113936
716,0.0095417663689808
717,0.0093516823516768
718,0.00938038229433063
719,0.00954894166732632
720,0.00970440485795059
721,0.00969440663470947
722,0.0100375545145372
723,0.0100819941008173
724,0.0101568089292831
725,0.0102194873739736
726,0.0102599828445804
727,0.0105200432061946
728,0.0106647997598086
729,0.0108807514880606
730,0.0111992018071125
731,0.0115530516553764
732,0.0118686428513054
733,0.0122509528658134
734,0.0125171398006626
735,0.0125746025819782
736,0.0127768299804052
737,0.0128692475202851
738,0.0129616650601649
739,0.0130540826000448
740,0.0133194594273071
741,0.0133737707526082
742,0.0134692542671973
743,0.0135647377817864
744,0.0136602212963754
745,0.0136383098850688
746,0.0136606846302562
747,0.0136879813819837
748,0.0134891894639005
749,0.0135510485217286
750,0.0134704558408155
751,0.0134383241340791
752,0.0135948800595511
753,0.0134171771108026
754,0.0132855292977621
755,0.012465671969024
756,0.0116458146402859
757,0.0108259573115477
758,0.0095402360368319
759,0.0083663602117087
760,0.00758343407899725
761,0.00738712331825381
762,0.00766778685165731
763,0.00816013823426285
764,0.00883923670302959
765,0.00951063282732437
766,0.0103902716367335
767,0.0111299624997343
768,0.0115474333903533
769,0.011880197152135
770,0.0121092884320534
771,0.0122370255155777
772,0.0123191095713077
773,0.0124598086891473
774,0.0123253349821365
775,0.0123008481569531
776,0.0123509680163888
777,0.0121915881143448
778,0.0122307278125617
779,0.0120966476769088
780,0.0121749133824503
