"wavelength","measurement"
380,0.00598972251296366
381,0.00582687623641247
382,0.00577929512092236
383,0.00561826978311591
384,0.00567422642040624
385,0.00597419109963098
386,0.00623961681823608
387,0.00661571356825486
388,0.00698963508069648
389,0.0073117169071875
390,0.00723774416728868
391,0.00726757983842886
392,0.00718694820182272
393,0.00745648752946206
394,0.00775905134886789
395,0.00811774467008764
396,0.00907943522407051
397,0.0102381693289582
398,0.0113969034338459
399,0.0125556375387336
400,0.0133185963734453
401,0.0140699940217208
402,0.0148621191044461
403,0.0151937058278796
404,0.0155168169057686
405,0.015687680075257
406,0.0162068111407836
407,0.01637235427769
408,0.0166854284905291
409,0.0170443852460399
410,0.018086077098684
411,0.0184193567915893
412,0.0188814623988028
413,0.0194926382544437
414,0.0196178233000732
415,0.0200290069195264
416,0.0199319918579932
417,0.0198377352919275
418,0.0203219797109846
419,0.0200496656348316
420,0.0205716297012969
421,0.0206530477077533
422,0.0207852651521488
423,0.0210778349200745
424,0.021429162399273
425,0.0209646222460134
426,0.0207637795568986
427,0.0202389611632848
428,0.0197173464497374
429,0.0198002682088244
430,0.0199334187536901
431,0.0205636062349488
432,0.0213247116196793
433,0.022191638205493
434,0.0230544209589472
435,0.0236454718655725
436,0.0240802257833881
437,0.0244667277099829
438,0.0248532296365777
439,0.0252397315631726
440,0.0254930756148354
441,0.0260350911329015
442,0.0265935328443684
443,0.0269190688116845
444,0.0274290140696334
445,0.0279389593275824
446,0.0284489045855313
447,0.0289119976393694
448,0.0290136333397195
449,0.0301251735717743
450,0.030016730743771
451,0.0297238169398688
452,0.0296571097578415
453,0.0295904025758142
454,0.0295236953937869
455,0.029528371091381
456,0.0295012315671476
457,0.029818753195924
458,0.0299546039194417
459,0.030379180208403
460,0.030338490025093
461,0.0301559618375069
462,0.0309123503317309
463,0.0300924936243155
464,0.0297366977458545
465,0.0294825468459597
466,0.0291625251940175
467,0.0290045744261263
468,0.0288296146617055
469,0.0285270630137816
470,0.0292364561653751
471,0.02915977404087
472,0.0293116523701099
473,0.0296700473329615
474,0.0297659871940359
475,0.0301008813208236
476,0.0295470312944322
477,0.0295797582452834
478,0.0296124851961345
479,0.0296452121469857
480,0.0295442079815747
481,0.0288408437808067
482,0.0283995366944363
483,0.0283009511625052
484,0.0275098227852549
485,0.0269418842882191
486,0.0272131548122263
487,0.027510586416868
488,0.0276936641101719
489,0.0284748021486399
490,0.028614233858981
491,0.0289853291012632
492,0.0297172065137485
493,0.0293076299776765
494,0.0299518680318134
495,0.0296034533830753
496,0.0299013242729978
497,0.0292201548996276
498,0.0296257534384132
499,0.0289880140027822
500,0.0292144202701916
501,0.0290325353855973
502,0.0296453578902288
503,0.0297918491466721
504,0.0296131987857099
505,0.0306441771591473
506,0.0304936346448826
507,0.0306665029295114
508,0.0309312441333467
509,0.0309983782278424
510,0.0305969767676282
511,0.0310118495785595
512,0.0308455388908338
513,0.0301189955118428
514,0.0299842857455247
515,0.0295427236652132
516,0.0294862661460147
517,0.0294638120044721
518,0.029501644123689
519,0.0301207997323202
520,0.0307148364059371
521,0.0311579147539241
522,0.0316009931019112
523,0.0320440714498982
524,0.0319733868233482
525,0.0321799533293392
526,0.032319761399257
527,0.0322319582059329
528,0.0325717581852946
529,0.0330667310574927
530,0.0332064600160277
531,0.0333976799896113
532,0.0333543351599574
533,0.0337104841105661
534,0.03393214625577
535,0.0335760214099919
536,0.0340204848293415
537,0.033852138147526
538,0.0337322308631068
539,0.033498667118368
540,0.0337938226184482
541,0.0335867930581435
542,0.0334794563086598
543,0.0337286441463442
544,0.0339723366388416
545,0.0337251956274832
546,0.0340841093800914
547,0.0341377488056399
548,0.0341913882311884
549,0.0342450276567369
550,0.0339998557001165
551,0.0343398152584283
552,0.0345346805321868
553,0.034392487101215
554,0.0342306512335392
555,0.0346843802161189
556,0.0342791533981951
557,0.0342346969405706
558,0.034021705629675
559,0.0337535601829699
560,0.0342003565115008
561,0.0337332998864251
562,0.0343310814472943
563,0.0338601434031277
564,0.0340873424771127
565,0.0336412606697861
566,0.0334970077951643
567,0.0331443680678422
568,0.0333437156829466
569,0.0330334214168328
570,0.0330617189665512
571,0.033126059434184
572,0.0332080026932198
573,0.0331748518633713
574,0.0335031930171318
575,0.0330927054113043
576,0.0332140829155475
577,0.0333354604197908
578,0.033456837924034
579,0.0335782154282773
580,0.0336995929325205
581,0.034183379185384
582,0.0340531592866514
583,0.0342515201270329
584,0.0339408325576544
585,0.0339889150818337
586,0.0331218582797687
587,0.0329436628998421
588,0.0328031747749282
589,0.0326626866500142
590,0.0325221985251002
591,0.0328406303529038
592,0.0332436579658202
593,0.0334771233629639
594,0.0340678884342015
595,0.0340884308298794
596,0.0345221300706239
597,0.0347091981348468
598,0.0349200044486705
599,0.0350749978065725
600,0.03547309713685
601,0.0357563613303286
602,0.036061406118357
603,0.0359926452421243
604,0.0364107469626663
605,0.036365707849752
606,0.0365169061525101
607,0.0364167533581635
608,0.036139634738228
609,0.0362091913733404
610,0.0359835652985963
611,0.0358083111882164
612,0.0356907908450704
613,0.0355651182413321
614,0.0352618913945491
615,0.0356847442144226
616,0.0353927405114592
617,0.035719192665778
618,0.0356785154213777
619,0.035847870839787
620,0.0357901009071042
621,0.0360300693590084
622,0.0354368132390118
623,0.035498555293728
624,0.035340932531567
625,0.0351833097694059
626,0.0350256870072449
627,0.0350724463554647
628,0.034934111131757
629,0.0348991031417357
630,0.0352196983083897
631,0.034697303406132
632,0.0348716038971938
633,0.0350384965132504
634,0.0351255918988161
635,0.035365773363597
636,0.0350594824083203
637,0.0353719734757467
638,0.0351489190152951
639,0.0352337330992832
640,0.0350769345555608
641,0.0350677990528635
642,0.0348315975280863
643,0.0346657127586907
644,0.0344998279892951
645,0.0343339432198994
646,0.0343145104281622
647,0.034446205769494
648,0.0337806305144731
649,0.0343058158821752
650,0.0340520358079826
651,0.0343625829674028
652,0.0338660278227854
653,0.0334096308030461
654,0.0327403570949079
655,0.0330493565106521
656,0.0327449207003798
657,0.0330930893104033
658,0.0333842348263989
659,0.0341579918175671
660,0.0345108951340109
661,0.0345617854153672
662,0.0347170272818457
663,0.0345576980852763
664,0.0342985347691053
665,0.0344404900357916
666,0.0344436398479907
667,0.0345400154105387
668,0.0346627139985672
669,0.0340379932444748
670,0.0342117478107313
671,0.0342180873157258
672,0.0339698779256534
673,0.0341819170240083
674,0.0342707529414775
675,0.034201823855824
676,0.0341909073125577
677,0.0345344330422176
678,0.0342176793084073
679,0.0341555134062771
680,0.0348872164251142
681,0.0344556256315024
682,0.0338025856172966
683,0.0333181625572653
684,0.0324784238057403
685,0.0317609726778101
686,0.0312992267124322
687,0.0307857421814084
688,0.0306424318957076
689,0.0310239890577888
690,0.0315853868674189
691,0.0325032120781857
692,0.0328333436801192
693,0.0333298690344658
694,0.0341779651514864
695,0.0342776183807619
696,0.0351865756468198
697,0.0357263961838506
698,0.0356519487063058
699,0.0360885833737768
700,0.0370298433544531
701,0.0371815284101099
702,0.0381519361427743
703,0.0387026492703527
704,0.0396539175393121
705,0.0402142558772858
706,0.0409504019180182
707,0.0420905896360693
708,0.0425705041849311
709,0.0435174716183345
710,0.0435320210021113
711,0.0440381670664938
712,0.0447759174744827
713,0.0437424512259505
714,0.0434200713369135
715,0.0418727798626926
716,0.0407359334648685
717,0.0399894702106618
718,0.0401520168445076
719,0.0408715930729063
720,0.0419895660963991
721,0.0420955306206236
722,0.0438515383401451
723,0.0441351154871092
724,0.044552601348462
725,0.0453483522513335
726,0.0455591463389306
727,0.0469767930185463
728,0.0480219928058231
729,0.0494344656554836
730,0.0509794439050659
731,0.0529126780560818
732,0.0547695032810009
733,0.0568398946366131
734,0.0583105187145472
735,0.0591620281632055
736,0.0605026737186929
737,0.0613458852786314
738,0.06218909683857
739,0.0630323083985086
740,0.0645864114791328
741,0.0653900472375697
742,0.0662161630980298
743,0.0670422789584899
744,0.06786839481895
745,0.0683360389317304
746,0.0687614504111347
747,0.0694257212400956
748,0.0690003983594197
749,0.0696276255633834
750,0.0700530151294454
751,0.0699552259759808
752,0.071417684476832
753,0.0709630350896724
754,0.0703451632366987
755,0.0662580687577031
756,0.0621709742787075
757,0.0580838797997119
758,0.0513213922957386
759,0.0454860892116747
760,0.0415049779110259
761,0.0407924176042354
762,0.0424264312245165
763,0.0454090851150835
764,0.0498188999098694
765,0.053767565933931
766,0.0588087714267415
767,0.0636639107808648
768,0.0666327100646827
769,0.0686160837341064
770,0.0703309810448275
771,0.0709968097118096
772,0.0719626036932982
773,0.0730992556838835
774,0.0725314403126109
775,0.0728020325735828
776,0.073096331512845
777,0.0724751288449909
778,0.0734220187716047
779,0.0724953539263393
780,0.0738085284907677
