"wavelength","measurement"
380,0.00863690527603899
381,0.00886880086286949
382,0.00900333611340656
383,0.00899192872308999
384,0.00896342027991513
385,0.00968305800241068
386,0.0104118874357932
387,0.0112118464530611
388,0.0119711642353358
389,0.0127703686893015
390,0.0129784175427008
391,0.0133114435899271
392,0.0138262657390612
393,0.0143854273786305
394,0.0150937974364649
395,0.0167239639305721
396,0.0189769957410572
397,0.0219342858684846
398,0.024891575995912
399,0.0278488661233395
400,0.0298515965723385
401,0.0327604919239241
402,0.0347796815881255
403,0.0361703802766059
404,0.0373293529265781
405,0.0382759298584527
406,0.0397176907358238
407,0.0408660235821417
408,0.0418930522909963
409,0.0435376133123824
410,0.0462538798218717
411,0.0468669714731704
412,0.0490553303043724
413,0.0500350370521983
414,0.050602315239784
415,0.0516157693711116
416,0.0514352794700479
417,0.0514794557064076
418,0.0519469742718031
419,0.0512023319401962
420,0.0521985733568995
421,0.0522440232637048
422,0.0524948676365551
423,0.0527470675630426
424,0.0530539292828439
425,0.0518514957258993
426,0.0513573385602842
427,0.0498685480444758
428,0.0480722204516995
429,0.0476723747946935
430,0.0476976170154834
431,0.0492946240395551
432,0.0509468851244714
433,0.052611850522622
434,0.0545963083346226
435,0.0559009350536469
436,0.0563514313731293
437,0.0572367312477788
438,0.0581220311224282
439,0.0590073309970776
440,0.0592689353594671
441,0.0602296754696407
442,0.0617443017711356
443,0.0620586615794965
444,0.0629513629995135
445,0.0638440644195306
446,0.0647367658395476
447,0.0651862630719965
448,0.0656390789645876
449,0.067824008804397
450,0.0674979019183212
451,0.0668724818542907
452,0.0665258816045605
453,0.0661792813548302
454,0.0658326811050999
455,0.0659351221078208
456,0.0654338431429799
457,0.0660939878342855
458,0.0665196752614276
459,0.0672950031858741
460,0.067327560029941
461,0.0664619248862707
462,0.0685223749087874
463,0.0665406789514036
464,0.0659822198292845
465,0.0654352073490757
466,0.0647572541271627
467,0.0644882599675975
468,0.0639683102994277
469,0.0635733842054067
470,0.0652059454790743
471,0.0651691385394765
472,0.0658453042478193
473,0.0666781299698839
474,0.0669327022443707
475,0.068235227140902
476,0.0669829465914025
477,0.0671850606916583
478,0.0673871747919142
479,0.06758928889217
480,0.0673870128626731
481,0.0658333502918324
482,0.0647062293131992
483,0.0643826237521704
484,0.0627414020966854
485,0.061255724984231
486,0.0617032939986698
487,0.0620956180692205
488,0.0625286378178099
489,0.0640221053399537
490,0.0644046526367003
491,0.0649284567211898
492,0.0664670948347029
493,0.0655950545837842
494,0.0665808679252961
495,0.0656236552067037
496,0.0658120274454711
497,0.0646841957122043
498,0.0648567091274202
499,0.0632986985019102
500,0.0636014936082797
501,0.0628714113036417
502,0.0638811932045475
503,0.0639510177119588
504,0.0632634302545295
505,0.0651569544176968
506,0.0646552416292539
507,0.0649007189754974
508,0.0650755561195447
509,0.0651762746286182
510,0.0639693891152379
511,0.0645481072056451
512,0.064114323376329
513,0.0620353916875544
514,0.0616505878267196
515,0.0604032157937764
516,0.0598374394114747
517,0.0594874172903578
518,0.0591446805875022
519,0.0601693895573337
520,0.0611680290221809
521,0.0618068209808078
522,0.0624456129394346
523,0.0630844048980615
524,0.0626316795475399
525,0.0626677341246323
526,0.0628140386794662
527,0.0623417068857073
528,0.0625864991878336
529,0.0633464125932705
530,0.0632200350725282
531,0.0632841898350708
532,0.0630789215387105
533,0.0634830400810927
534,0.0635836592195643
535,0.0625923058159545
536,0.0632893708366566
537,0.0626966196610148
538,0.0622822947026234
539,0.0618073722961513
540,0.0620029464416586
541,0.0615434264564337
542,0.0611446010978333
543,0.0612429612120418
544,0.0617602710323807
545,0.0611935849909153
546,0.0615102471278891
547,0.0614058366100375
548,0.0613014260921859
549,0.0611970155743343
550,0.0606327068673183
551,0.0611811936452933
552,0.0615021203424266
553,0.0608197331354335
554,0.0604811851138095
555,0.0610104320456873
556,0.0600384097376306
557,0.0597993072276242
558,0.0593456355605176
559,0.0586205748270827
560,0.0590724684631263
561,0.0580562320729823
562,0.0590683917418488
563,0.0579386799844508
564,0.0581106000323383
565,0.0571773205395265
566,0.0568725059378327
567,0.0561439654537662
568,0.0564234616004936
569,0.0555536561181728
570,0.0555787889156547
571,0.0556285318505639
572,0.0554574023817701
573,0.0554426481830275
574,0.0557777457071589
575,0.0550946791720824
576,0.0552736726905045
577,0.0554526662089266
578,0.0556316597273487
579,0.0558106532457708
580,0.0559896467641929
581,0.0567443677652062
582,0.0563857118903937
583,0.0568297055203753
584,0.0560251547864516
585,0.0558391763764515
586,0.0543372319096087
587,0.0538537128671721
588,0.0533339986118752
589,0.0528142843565783
590,0.0522945701012814
591,0.052730989861066
592,0.0532319722532783
593,0.053470144631746
594,0.0543588414578725
595,0.0542476514888917
596,0.0547814415856979
597,0.0549631413228976
598,0.0551490572737951
599,0.0552559934405662
600,0.0556832132836383
601,0.0560416200432248
602,0.0563084408300305
603,0.0561494200786257
604,0.056785183474265
605,0.0564127192186771
606,0.0565849555028797
607,0.0563052624695594
608,0.0555645690266515
609,0.0556222901048559
610,0.055136549856257
611,0.0549055073035425
612,0.0544362684969858
613,0.0541626136042387
614,0.0536871968622409
615,0.0542561396797096
616,0.0535887563800496
617,0.0539818715178216
618,0.0539118460035978
619,0.054031376692934
620,0.0539107373342859
621,0.0543446244628913
622,0.0532668503688025
623,0.0533940354481391
624,0.0530555528488255
625,0.052717070249512
626,0.0523785876501985
627,0.0521280879093773
628,0.052107637631572
629,0.0518733114561253
630,0.0523876520261342
631,0.051685450512831
632,0.0518708443042433
633,0.052279677892441
634,0.0521994669056371
635,0.05255962552541
636,0.0520343018417678
637,0.0525916594857296
638,0.0522498022022633
639,0.0523672866058916
640,0.0521233638740534
641,0.0519951506716737
642,0.0515549505652026
643,0.0512678089689124
644,0.0509806673726221
645,0.0506935257763318
646,0.0508505170679309
647,0.0507920370599361
648,0.0497007026711865
649,0.050572334827505
650,0.0500325130651386
651,0.0506126970327032
652,0.0500056735169589
653,0.0493322818562151
654,0.0483021049690062
655,0.0486405692535268
656,0.0481701164591046
657,0.0488728194593457
658,0.0492019028646636
659,0.0504100473866584
660,0.0508572613864985
661,0.0511602908208872
662,0.0513028742156569
663,0.0511246075815697
664,0.0508158620959789
665,0.0510839072101029
666,0.0510853929128122
667,0.0510455387552589
668,0.0512187206352313
669,0.0502124490274835
670,0.0505040774320582
671,0.050425558200313
672,0.0502700152338042
673,0.0503522512830618
674,0.0505497683492217
675,0.0504327898355713
676,0.0504447884383339
677,0.0506594326495732
678,0.0502322414424559
679,0.0499328721647595
680,0.0511454537333592
681,0.0504835271060166
682,0.0492995693294713
683,0.0485902042100771
684,0.0470712428873673
685,0.0458275787367508
686,0.0449042963947972
687,0.0438670733826329
688,0.0435893264988109
689,0.0438549777302812
690,0.0445440703843164
691,0.0455423985010192
692,0.0459826916442812
693,0.0464228001797594
694,0.0474014263904816
695,0.0475420168868515
696,0.0486276767967729
697,0.0491462460070593
698,0.0488829313933981
699,0.0492544579379524
700,0.0504647852433711
701,0.0503819832673057
702,0.0515441918680498
703,0.0521473103174176
704,0.0533273319666404
705,0.0540961738875547
706,0.0550155500312471
707,0.0560580046042319
708,0.0565395225579491
709,0.0577473697570129
710,0.0577103255579834
711,0.0585687679320613
712,0.059227706245607
713,0.0575204527821505
714,0.0569055164585392
715,0.0548650843394142
716,0.0530182209437199
717,0.0517822145389379
718,0.0516780942254541
719,0.0526927679785618
720,0.0536889661322457
721,0.0540059743520063
722,0.0560760266239677
723,0.056473784949675
724,0.0568511072678766
725,0.0576582147569852
726,0.0580623263206529
727,0.0594987330674603
728,0.0609031958623751
729,0.062736710535647
730,0.0648835478061058
731,0.0672658830958683
732,0.0698693742783676
733,0.0726873054681179
734,0.0743985315509345
735,0.075718503783957
736,0.0773887347958274
737,0.0785646669636866
738,0.0797405991315458
739,0.080916531299405
740,0.0830636211877738
741,0.0838991867136395
742,0.0849818483636794
743,0.0860645100137194
744,0.0871471716637593
745,0.0879653517692364
746,0.0883989006571459
747,0.0896196254389974
748,0.0889224292444507
749,0.0896666121621057
750,0.0901593167895014
751,0.0901340759078518
752,0.0916956016602904
753,0.0912005689433313
754,0.0906090742562993
755,0.085323095792043
756,0.0800371173277868
757,0.0747511388635305
758,0.0660713453061675
759,0.0581651758661057
760,0.0521731421851748
761,0.0510713520192037
762,0.0528008038925404
763,0.0563969945896135
764,0.062071289763959
765,0.0676614662432212
766,0.0740864364179756
767,0.0807813823833305
768,0.0844073257664181
769,0.0872484201229428
770,0.089497283630829
771,0.0904468399665333
772,0.0915793347233252
773,0.0928931592029323
774,0.0923395769322991
775,0.0924573234262631
776,0.093106133781774
777,0.0921631592423509
778,0.0935564265569243
779,0.0923569960481953
780,0.0935572166998038
