"wavelength","measurement"
380,0.00219872953134088
381,0.00215062459618493
382,0.00214039893816778
383,0.00213537639991731
384,0.00216540344915426
385,0.0023107976247323
386,0.00252548282919686
387,0.00269240652919664
388,0.002791082191281
389,0.00285057546194686
390,0.00291297547894873
391,0.00299210584250015
392,0.00298578755445099
393,0.00308972229065914
394,0.00316349655558837
395,0.003379813445479
396,0.00374144570809518
397,0.00419623044961386
398,0.00465101519113254
399,0.00510579993265122
400,0.0052665302775288
401,0.00570853803861847
402,0.00593105532189984
403,0.00606911084104666
404,0.00616624434266188
405,0.00622396576539308
406,0.00634292632079255
407,0.00642137253124576
408,0.00647900953235554
409,0.00663429302144936
410,0.00702425122402048
411,0.00702530317360537
412,0.00727722462586962
413,0.0074589823542824
414,0.00749969392094053
415,0.0075896038496456
416,0.00758140213312108
417,0.00755334707906302
418,0.00767990208918714
419,0.00753242497499345
420,0.00782108420293985
421,0.0077821340426609
422,0.00783221078849323
423,0.0078740964048954
424,0.00803690386137749
425,0.00777912953066595
426,0.00777045716482695
427,0.00760404004070952
428,0.0073768979509562
429,0.00746031374713577
430,0.00741613600868354
431,0.00772465809121213
432,0.00803547743126763
433,0.00838014843841669
434,0.00876320845856178
435,0.00895351149012153
436,0.00900826316552922
437,0.00916556891617126
438,0.0093228746668133
439,0.00948018041745534
440,0.00949854324113249
441,0.00971963081910422
442,0.00999631908510944
443,0.0100877405769591
444,0.0103098874422554
445,0.0105320343075516
446,0.0107541811728479
447,0.0109005837920124
448,0.0110086460694172
449,0.0114467681371429
450,0.0114427957914499
451,0.0112973842778326
452,0.0113112623193618
453,0.011325140360891
454,0.0113390184024202
455,0.0112808522810518
456,0.0113256259897776
457,0.0114902764527605
458,0.0115418773393353
459,0.0117263094078029
460,0.0117486620335089
461,0.0116037929863692
462,0.0120019648456874
463,0.0116519712664275
464,0.0115375407789827
465,0.0114750841899645
466,0.0113028150809135
467,0.0113209551994906
468,0.0112085682519809
469,0.0111029661474443
470,0.0113743294681137
471,0.01135467316416
472,0.0114427169785341
473,0.0115743396182079
474,0.0116135732512844
475,0.0118163263069651
476,0.0115219489320152
477,0.0115561246223953
478,0.0115903003127754
479,0.0116244760031554
480,0.0115928237295801
481,0.0113269421579184
482,0.0112010479978243
483,0.0111691800171392
484,0.010936904116327
485,0.0106900388591552
486,0.010826922078627
487,0.0109312153927292
488,0.011017645079612
489,0.0112966114994036
490,0.0113680355931699
491,0.0114606751515597
492,0.0117381179514668
493,0.0116287864585373
494,0.0118028387521854
495,0.0116211075902422
496,0.0116979977762093
497,0.011529224081652
498,0.0115620542064698
499,0.0113407498429162
500,0.0114037931660864
501,0.0113073289889789
502,0.0115130629771623
503,0.0115885649603
504,0.0115016887367033
505,0.0118994020699434
506,0.0118680290106584
507,0.0119464368014959
508,0.0120502334344774
509,0.012105613914011
510,0.0119406322024927
511,0.0121474144064051
512,0.0120670118570915
513,0.0118062702694741
514,0.0117765932747846
515,0.0116366657392084
516,0.0115810642883192
517,0.0116299982276413
518,0.0116515374397468
519,0.0119102577014009
520,0.0121631087132156
521,0.0123650965982824
522,0.0125670844833491
523,0.0127690723684159
524,0.0127514695467984
525,0.0128391330327079
526,0.0129617605093326
527,0.0128757807883512
528,0.0130669814322954
529,0.0132448171078506
530,0.0132843462014908
531,0.0133550912515901
532,0.0133298706874646
533,0.0135067454027513
534,0.013578318319806
535,0.0134876493613647
536,0.0136313798706366
537,0.0136460975350611
538,0.0136737838204758
539,0.0137951011799776
540,0.0140172978513465
541,0.014140477904034
542,0.014296800693617
543,0.0144744199890587
544,0.0145823706178433
545,0.0144488966519069
546,0.0144326752510409
547,0.0142303058534647
548,0.0140279364558885
549,0.0138255670583124
550,0.0136607818361127
551,0.0136904476298413
552,0.0137775585960564
553,0.0135889857213678
554,0.013511138882891
555,0.0136074411401014
556,0.0133951608491142
557,0.0133389493565779
558,0.0132501226398254
559,0.0131013023418179
560,0.0132592069348525
561,0.0130196127475692
562,0.0132079300960106
563,0.0129975857821441
564,0.0130172513543082
565,0.012842128902399
566,0.0127662235327452
567,0.012597639855402
568,0.0126644569699667
569,0.01243968823368
570,0.0124231375587437
571,0.0124668825021585
572,0.0124194725839897
573,0.0123736531088557
574,0.0124337026873458
575,0.012289526089071
576,0.0123073340875519
577,0.0123251420860328
578,0.0123429500845137
579,0.0123607580829946
580,0.0123785660814755
581,0.0124866152196197
582,0.0123869759268861
583,0.012426048383975
584,0.0122502973938245
585,0.0121865938096281
586,0.0118122553495379
587,0.0116617784131777
588,0.0114992044679827
589,0.0113366305227877
590,0.0111740565775928
591,0.0112304626788339
592,0.0112900387205255
593,0.0112404349269961
594,0.0114003282699776
595,0.0113409101143981
596,0.0113721880594877
597,0.0114279466189101
598,0.0113808592964443
599,0.0113856276751222
600,0.0114161821514794
601,0.0114660175687676
602,0.0115184413741457
603,0.0114090019818731
604,0.0115260269638119
605,0.0113981287716291
606,0.0114696891413421
607,0.0115467933840695
608,0.0115649768889985
609,0.0116908450527728
610,0.0117352442614381
611,0.0116959374581609
612,0.0115384608967291
613,0.0113149061507313
614,0.0109996432868267
615,0.0109719507983946
616,0.0107677279426975
617,0.0107856699762495
618,0.0106794111587002
619,0.0106732655910842
620,0.0106224866542105
621,0.0106474671092469
622,0.0104093922866487
623,0.0103757804861227
624,0.0102682926244566
625,0.0101608047627905
626,0.0100533169011243
627,0.0100233665482883
628,0.00997850854703962
629,0.00992909875924579
630,0.00998868009297968
631,0.00980041594095208
632,0.00978231926807504
633,0.00981818614065684
634,0.00977140962520368
635,0.00978328768832256
636,0.00965918288932717
637,0.00965566672569321
638,0.00957735466083173
639,0.00956966169966065
640,0.00945018897946825
641,0.00939858250726354
642,0.00928124924633597
643,0.00918998059662791
644,0.00909871194691985
645,0.00900744329721179
646,0.00898119319997747
647,0.0089303592902815
648,0.00873218379485464
649,0.00882712793534047
650,0.00871520101040107
651,0.00875085505610824
652,0.00859252713876263
653,0.00840992081804386
654,0.00820536967011373
655,0.00822443955428229
656,0.00811387650310338
657,0.00815699685724361
658,0.00820103297930256
659,0.00836182013901943
660,0.00840003572450137
661,0.0083742413790973
662,0.00836557591498702
663,0.00827355601784872
664,0.00818936674865101
665,0.00818384366429158
666,0.00815762716511068
667,0.00811319788367569
668,0.00810616818461278
669,0.00788265856502079
670,0.00785967091500617
671,0.0078222775441901
672,0.00779485105222359
673,0.00771774765246633
674,0.00775472080887536
675,0.00771982124208229
676,0.00768880819895937
677,0.00772409055418254
678,0.00762868304425636
679,0.00755630126090004
680,0.00777439039625226
681,0.00758303498254718
682,0.00748221283775266
683,0.00733742973980012
684,0.0071350078119371
685,0.00693873864193424
686,0.00686887658321347
687,0.00679520764111449
688,0.0067683048280477
689,0.00683512173003168
690,0.00700105491544381
691,0.00727275450440259
692,0.00733077115253358
693,0.00751797070441614
694,0.00774244953516932
695,0.00783984374174723
696,0.00810747383185927
697,0.00823208974640396
698,0.00824261718183981
699,0.00839208454073784
700,0.00865510877669883
701,0.00873259634285751
702,0.00900209826809668
703,0.00916190491600809
704,0.00947847697689496
705,0.00956948004249363
706,0.00987388229191067
707,0.0101253881591925
708,0.0102433424058992
709,0.0104727635424182
710,0.0104365998729352
711,0.0106028738669605
712,0.0107646829318115
713,0.010438954409936
714,0.0103226998108814
715,0.0099498159808629
716,0.00963895113655155
717,0.00940665971163008
718,0.00943100665955764
719,0.00960762388999431
720,0.00978533377398824
721,0.00970172001619122
722,0.0101221094664233
723,0.0101477357072868
724,0.0102295102911537
725,0.0103311062166125
726,0.0103341764428223
727,0.010539169669441
728,0.0107367380338211
729,0.010948577627216
730,0.0112746084632409
731,0.0116215959948689
732,0.0119485163631891
733,0.0123486719043667
734,0.0125884781146373
735,0.0127021269345223
736,0.0128569706277802
737,0.012956357046541
738,0.0130557434653019
739,0.0131551298840628
740,0.013442429338689
741,0.0135167758258338
742,0.0135696052472299
743,0.013622434668626
744,0.013675264090022
745,0.0137589412660846
746,0.0137492663212276
747,0.0138221666047277
748,0.0135830284689251
749,0.0136714346636049
750,0.0136953313732037
751,0.0136039043459505
752,0.0136824654665183
753,0.0135057259572464
754,0.0134008705201972
755,0.0125807577340221
756,0.0117606449478469
757,0.0109405321616718
758,0.00959854164224993
759,0.00847232760596308
760,0.00762600496605363
761,0.00745229561957807
762,0.00769797754143889
763,0.00815984263351434
764,0.00892514922872367
765,0.00953753906434467
766,0.010462223048557
767,0.0112682160646319
768,0.0116952337646103
769,0.0119793876255253
770,0.0122281505878486
771,0.0123541272046928
772,0.0124469448520466
773,0.0125689050720656
774,0.0123918560987281
775,0.0123964914213612
776,0.0124117216339316
777,0.0122502703370127
778,0.0123457887616945
779,0.012168721708302
780,0.0123193198221874
