"wavelength","measurement"
380,0.0146918626584851
381,0.0139977388756883
382,0.0137033529254871
383,0.0134159809927111
384,0.0134520477418556
385,0.0139925905401984
386,0.0146096975836505
387,0.015160496520976
388,0.0156284714019593
389,0.0158586304656441
390,0.0155230247291015
391,0.0154102056915404
392,0.0152548008269445
393,0.0153342962968451
394,0.0154896169728517
395,0.0162474472480613
396,0.0178060247149895
397,0.0194948530511875
398,0.0211836813873856
399,0.0228725097235836
400,0.0238042921831133
401,0.0248822888942861
402,0.0254634279325161
403,0.0254121279868227
404,0.0254544970657169
405,0.0251647350741479
406,0.025253228694789
407,0.0252841724473366
408,0.0252623511680278
409,0.0256150986465058
410,0.0264861166083576
411,0.026511354393707
412,0.0268545725064251
413,0.0272379892094728
414,0.0270844947223609
415,0.0271895476188854
416,0.0268482165495885
417,0.0265342299424583
418,0.026749460937785
419,0.026122479942608
420,0.0265517047039281
421,0.0264835556939427
422,0.0266444801433375
423,0.0267129759203248
424,0.0267256028463628
425,0.0260911645232749
426,0.0257095992820093
427,0.0249217971013325
428,0.0241507189399774
429,0.0240354860473033
430,0.0240988569444887
431,0.0249480991763063
432,0.0256734441384614
433,0.0263344377507978
434,0.0274707607506739
435,0.027919289122851
436,0.0281636817413612
437,0.0285159229220132
438,0.0288681641026651
439,0.0292204052833171
440,0.0291961599958487
441,0.0296690641227299
442,0.0302701043260751
443,0.0302434427618545
444,0.0306979644905363
445,0.0311524862192181
446,0.0316070079478999
447,0.0319807543140402
448,0.0320348263393145
449,0.0330857924998481
450,0.0327212958323659
451,0.0324976862730992
452,0.0323567363971257
453,0.0322157865211523
454,0.0320748366451788
455,0.0318740153428906
456,0.0318697065245523
457,0.0322187891799113
458,0.0322991239840512
459,0.0327625348543229
460,0.0326007787451511
461,0.0323312824546598
462,0.0330929296086586
463,0.032067800577384
464,0.0317421988462337
465,0.0313470675861007
466,0.0309195833246653
467,0.0306999023488549
468,0.0306239965817464
469,0.0300728033735456
470,0.0306579370265969
471,0.0306411022144073
472,0.0307011899956736
473,0.0309924065322158
474,0.0311031937742
475,0.0314057038372001
476,0.0306570236753814
477,0.0306163367549349
478,0.0305756498344884
479,0.0305349629140419
480,0.0303495989601978
481,0.0295646853479856
482,0.0289592516420675
483,0.0288219784574096
484,0.0279898355116465
485,0.0274330289906405
486,0.0276414721079005
487,0.027946907085564
488,0.0281277791039293
489,0.0287445428504223
490,0.0289177435644184
491,0.0291509056404095
492,0.0297869153985816
493,0.0293893251150413
494,0.0297779623651931
495,0.0293902765600316
496,0.0294326077035229
497,0.0289272405722819
498,0.029079236787409
499,0.0283641139720944
500,0.0285371157649529
501,0.0281229661633836
502,0.0286686856405093
503,0.02879207862053
504,0.0285281748873509
505,0.0293670119529425
506,0.0292042219199658
507,0.0294029619470697
508,0.0295452044329798
509,0.0296622272333419
510,0.0291982517355509
511,0.0296568773969074
512,0.0294665335476632
513,0.0286084407551002
514,0.0284546077511818
515,0.0280478675994679
516,0.0279861900583205
517,0.0279210617984134
518,0.0279388988768993
519,0.0285471963150976
520,0.0291483087189688
521,0.0295086599828537
522,0.0298690112467387
523,0.0302293625106236
524,0.0301569481876722
525,0.0302705354150337
526,0.0303721987563365
527,0.0302401740837492
528,0.0304855866733473
529,0.0309386909351177
530,0.0309096760357825
531,0.0310503620251314
532,0.0309039206625634
533,0.0311781633909174
534,0.031312857716423
535,0.030996360011626
536,0.0313269932471412
537,0.0310861764929435
538,0.0308313444669067
539,0.0306334218424966
540,0.0307763511454313
541,0.0304814145693207
542,0.0303598002752974
543,0.0304695533203572
544,0.0306470287074764
545,0.0304121782412594
546,0.0306785705153677
547,0.0306482603680191
548,0.0306179502206705
549,0.0305876400733219
550,0.0304406880101879
551,0.0306282915399074
552,0.0308046559532193
553,0.0305471250192349
554,0.0304081423063625
555,0.0306667620953705
556,0.0302174254802638
557,0.0302002165033046
558,0.0299731911370006
559,0.0296092016449575
560,0.029927426119983
561,0.029311350125862
562,0.0298903551766957
563,0.0292687716125547
564,0.0293817402162287
565,0.0288350028400327
566,0.0286270948695912
567,0.0281857253371648
568,0.028214533256072
569,0.0278374003760298
570,0.0277191200773209
571,0.0277627225253954
572,0.0276622097389883
573,0.0276054546571242
574,0.0277334624701127
575,0.0272614018219794
576,0.027333204086746
577,0.0274050063515127
578,0.0274768086162793
579,0.0275486108810459
580,0.0276204131458126
581,0.0278924859499723
582,0.0277497359981345
583,0.0278906010841542
584,0.0273068484596547
585,0.0271141050561283
586,0.0261408225668172
587,0.0255835055420038
588,0.0251983643136542
589,0.0248132230853046
590,0.024428081856955
591,0.0245318250239854
592,0.0247353962162456
593,0.0248165039158125
594,0.0252298280707
595,0.0252290370173762
596,0.0253916845744433
597,0.0256489872050601
598,0.0257162077560415
599,0.0258395212148691
600,0.0260756418166825
601,0.0263226337710442
602,0.026394514023324
603,0.0263528856269498
604,0.0265894544451946
605,0.0264387664986736
606,0.0265597937299416
607,0.0263335158835404
608,0.0260084888905981
609,0.0259090420343003
610,0.0257636114414238
611,0.025531351311748
612,0.0253317413535208
613,0.0251949056985474
614,0.0249431419255101
615,0.0252293645071546
616,0.024894866913974
617,0.0250695434190326
618,0.025029640798669
619,0.0250945772566426
620,0.0249400331357787
621,0.0251141840950524
622,0.0245651198765676
623,0.0244904448139686
624,0.0242894658054495
625,0.0240884867969305
626,0.0238875077884114
627,0.0237973045162411
628,0.0236796997794969
629,0.0236519864407634
630,0.0238547082850162
631,0.0235712956027552
632,0.0237564436921185
633,0.0239000519740473
634,0.0239229148699992
635,0.024115548320259
636,0.0238598778810568
637,0.0241999300965631
638,0.0240330576190866
639,0.0240817155348643
640,0.0239829546208826
641,0.0237848682738684
642,0.0236824217445889
643,0.0233597248500026
644,0.0230370279554163
645,0.02271433106083
646,0.0227850088293048
647,0.0227338783637331
648,0.0222249616183738
649,0.0226534402256948
650,0.0224389454578168
651,0.0226274996756141
652,0.0223782824822675
653,0.022041870388901
654,0.0216533260412141
655,0.0218250793153464
656,0.021743179511942
657,0.0219200076176644
658,0.0222243829799806
659,0.0228573457593092
660,0.0230475137277739
661,0.0231647462200645
662,0.0232126682510283
663,0.0231003810467683
664,0.0229091929013868
665,0.0229796957183022
666,0.0230205744313318
667,0.0230452861162693
668,0.0230404563779899
669,0.0225620125468501
670,0.0227445858745725
671,0.0227375354797581
672,0.0225369672027005
673,0.0226309014286658
674,0.0226592214617318
675,0.0226721663158576
676,0.0226318914015705
677,0.0228649657640913
678,0.022564314470477
679,0.0225706331501681
680,0.0231123008578176
681,0.0226851009611802
682,0.0222647149262722
683,0.021762665694401
684,0.02092978191951
685,0.0203009053514444
686,0.0197555630816189
687,0.0193707221284932
688,0.0192949874741835
689,0.0194612178295643
690,0.0198302129182593
691,0.0204009968001096
692,0.0206661020269652
693,0.0209555819942916
694,0.0215601375058422
695,0.0218556814753014
696,0.0224693172149438
697,0.0229431866407871
698,0.0228396824502867
699,0.0231418841669386
700,0.0238927167293802
701,0.0240785827229389
702,0.0248624749287573
703,0.0253229308880078
704,0.02620895202377
705,0.0265765974294835
706,0.0273727698151203
707,0.028171757948639
708,0.0286038014631435
709,0.0293330034884611
710,0.029445617998966
711,0.0298189723475133
712,0.0300601369157531
713,0.0289755991712663
714,0.0283644133594623
715,0.026889082260037
716,0.0256167269776375
717,0.0249398688535066
718,0.0249439674778
719,0.0254747845127811
720,0.0261565569579353
721,0.0264691703760275
722,0.0275819851683246
723,0.0276910172544231
724,0.027880640957386
725,0.0282603130200507
726,0.0284907373832186
727,0.0295116164322829
728,0.0303891403004397
729,0.0317308067025282
730,0.0331082912380813
731,0.0349258511077309
732,0.0366037010868142
733,0.0384515189735949
734,0.0398985672429891
735,0.0405552244300352
736,0.0418261803145034
737,0.0427280260363009
738,0.0436298717580985
739,0.0445317174798961
740,0.0457620074053719
741,0.0465675225017879
742,0.0472634029252512
743,0.0479592833487145
744,0.0486551637721778
745,0.0491315983720753
746,0.0494524308628547
747,0.0498339261835525
748,0.049522457129369
749,0.0500842028048829
750,0.0502355801491964
751,0.0501008763536965
752,0.0509514155085294
753,0.050656121287421
754,0.050177064737336
755,0.046641664032091
756,0.043106263326846
757,0.039570862621601
758,0.0338914601471516
759,0.0287157408285573
760,0.0251564827504211
761,0.0243952118607562
762,0.0254607093653286
763,0.0278637358338506
764,0.0315107989043631
765,0.0351211196844143
766,0.0391319634521443
767,0.0434115134846649
768,0.0457582492757882
769,0.0475133429041873
770,0.0489475213267892
771,0.0496385420485799
772,0.0502804695678723
773,0.0510209727430508
774,0.0506972673754682
775,0.0509693107042811
776,0.051176058250346
777,0.0505814308581549
778,0.0514058198873473
779,0.0506775319128648
780,0.0513672373053018
