"wavelength","measurement"
380,0.00458023718805101
381,0.00443776418084875
382,0.00437828611601619
383,0.00437566730467116
384,0.00432246709334077
385,0.00453995499835421
386,0.0047440775266916
387,0.00494058719516578
388,0.00513898299858229
389,0.00515664963660482
390,0.00510255775972043
391,0.0051191245883635
392,0.00508919145952055
393,0.005124892864412
394,0.00527077709717542
395,0.00547010584679041
396,0.00608888742991171
397,0.00670810647892082
398,0.00732732552792992
399,0.00794654457693903
400,0.00834484341991946
401,0.00866011253440238
402,0.0088925564356832
403,0.00895847742563763
404,0.00892653042130019
405,0.00891829665764634
406,0.00904924999913647
407,0.00905646670095555
408,0.00911809933643526
409,0.00918887729486672
410,0.00956828637559861
411,0.00959754405999771
412,0.00970084396104667
413,0.00991837877866903
414,0.00986534745885784
415,0.00984239996377533
416,0.00973920871191497
417,0.00965959134953
418,0.00980805684559953
419,0.00968434276002729
420,0.00975053634243002
421,0.00977784134068886
422,0.00981541003563803
423,0.0098282708424301
424,0.00988362881821212
425,0.00968399069839533
426,0.00956972145627505
427,0.00930263393086516
428,0.00904492106769261
429,0.00908590179634944
430,0.00916452343476922
431,0.00951529959962859
432,0.00993203922740818
433,0.0102036166859259
434,0.0107018910539048
435,0.0109834477658214
436,0.0111459825803165
437,0.0114254641681511
438,0.0117049457559856
439,0.0119844273438202
440,0.0121687095123098
441,0.0125673083406276
442,0.0130119863777171
443,0.0132975604283416
444,0.0137250844295858
445,0.0141526084308299
446,0.0145801324320741
447,0.0149366956617462
448,0.0150311649989989
449,0.0156374152743475
450,0.0155325994036641
451,0.0153550016085491
452,0.0151749681856799
453,0.0149949347628108
454,0.0148149013399416
455,0.0146035848641913
456,0.01445383682559
457,0.0145054018952419
458,0.0143997604066618
459,0.0145558304147149
460,0.0144866058123743
461,0.014258482048851
462,0.0145786089290365
463,0.0140941786778776
464,0.0139107434792057
465,0.0137359742504849
466,0.0134839456669931
467,0.0134220096856146
468,0.013311047281738
469,0.01314267775944
470,0.0133264001617948
471,0.0132736267763183
472,0.0132920604593934
473,0.0133695882688657
474,0.0133827083967907
475,0.0135538801252899
476,0.0132777390380213
477,0.013256028168555
478,0.0132343172990886
479,0.0132126064296223
480,0.0131483860457865
481,0.0128251590001134
482,0.0125485377430483
483,0.012487775293801
484,0.0121516346520307
485,0.0119467507930984
486,0.0120656491742105
487,0.0121647808123872
488,0.0122844028472053
489,0.0125975595066976
490,0.0127068883572047
491,0.0127725632506082
492,0.013059179581294
493,0.0129229266035882
494,0.0131284975195945
495,0.012942819247988
496,0.0130185490709679
497,0.012814062795
498,0.0129062786094755
499,0.012596933060812
500,0.0127415381775027
501,0.0125890882956437
502,0.0128814973918926
503,0.0129564333838515
504,0.0128061046455021
505,0.0132605783962731
506,0.0132334689569568
507,0.0133721830541158
508,0.013422008401096
509,0.0135115239176963
510,0.0133071695993624
511,0.0135702113834512
512,0.0134737625130766
513,0.0131645329981866
514,0.0131166278349248
515,0.0129677241671164
516,0.0129746110272182
517,0.012960403297596
518,0.0130148197856813
519,0.013272542768885
520,0.0135923154678091
521,0.0137507632315529
522,0.0139092109952967
523,0.0140676587590406
524,0.0140402477452827
525,0.014103933583652
526,0.0141743689007865
527,0.0141164875087863
528,0.0141986185366709
529,0.0144280189171841
530,0.0144600116937232
531,0.0144995264651831
532,0.0144602147855486
533,0.0146138586299348
534,0.0146992125356185
535,0.0145549024186834
536,0.0146722120944596
537,0.0145838108895017
538,0.0145224639409494
539,0.0144102193090756
540,0.0145043424269877
541,0.0143906788637609
542,0.014321909363735
543,0.0143514973044516
544,0.0144650893702608
545,0.0143329003838225
546,0.014466270631628
547,0.0144496946979637
548,0.0144331187642994
549,0.0144165428306351
550,0.014333530746582
551,0.0144557552882142
552,0.0145157083659247
553,0.0144225840406919
554,0.0143200160311604
555,0.0144675379726028
556,0.0142818746881586
557,0.0142184824584953
558,0.0141641521800175
559,0.0140226533338398
560,0.0141705377314917
561,0.0139192192594682
562,0.0140934553320015
563,0.0139041512792803
564,0.0138782227483847
565,0.0136478702372568
566,0.0135644080287061
567,0.0134142911246306
568,0.0134498538093624
569,0.0132583853892474
570,0.0132094541128313
571,0.0132350532620241
572,0.0131924417675774
573,0.0131963075097845
574,0.0132742068199983
575,0.0130969792428769
576,0.0131699054112822
577,0.0132428315796876
578,0.013315757748093
579,0.0133886839164984
580,0.0134616100849038
581,0.0136336189399865
582,0.0135918737163888
583,0.0136704771408757
584,0.0134114337835966
585,0.0133649753043515
586,0.0129786626745388
587,0.0127610982698432
588,0.0125980856822461
589,0.0124350730946489
590,0.0122720605070518
591,0.0123425266472553
592,0.0124462379497357
593,0.0124984707397802
594,0.0126795273174851
595,0.0126183592055949
596,0.0127926203662051
597,0.0128137761879304
598,0.012886931258866
599,0.0129461546613608
600,0.0130706668433311
601,0.0131588304399949
602,0.0132349560222506
603,0.0131700433350998
604,0.0132893269312466
605,0.0132515011191665
606,0.0132511355610272
607,0.0131287329182702
608,0.0129900666773237
609,0.0129847746214759
610,0.0128564882048687
611,0.0127757487771359
612,0.0126840532552225
613,0.0126535062150316
614,0.0124581279936373
615,0.0126143154715248
616,0.0124863795358529
617,0.0125859555378987
618,0.0125690716470352
619,0.0125700915496714
620,0.0125373324225575
621,0.0125866620286277
622,0.0123400558404329
623,0.0123058953748032
624,0.0122063780177729
625,0.0121068606607426
626,0.0120073433037123
627,0.0119669202980724
628,0.0119138168219081
629,0.0118750407679105
630,0.0120008665238201
631,0.0118621275311514
632,0.0119215767661884
633,0.0120012781027166
634,0.0120578787109119
635,0.0121704183006469
636,0.0120515628519025
637,0.012160999748686
638,0.0120620747323107
639,0.0121304924745852
640,0.0120595805528188
641,0.0120188783531171
642,0.0119257515949718
643,0.0118054420362164
644,0.011685132477461
645,0.0115648229187055
646,0.0115542414889485
647,0.0115482437798869
648,0.0113117275671673
649,0.0115497454129842
650,0.011424630887287
651,0.0115266127141464
652,0.0113851866406364
653,0.0112201359071827
654,0.011012385522227
655,0.0111462846155689
656,0.0110740363940519
657,0.0112359775293215
658,0.011389514082317
659,0.0116740396973023
660,0.0117956493426491
661,0.0118304906506454
662,0.0119282257979734
663,0.0118303797188726
664,0.0117703651170292
665,0.0118274465406449
666,0.0118558109621242
667,0.0118576153514339
668,0.0118809798716658
669,0.0116750703785067
670,0.0117257793415702
671,0.0117045351762294
672,0.0117079200687438
673,0.0117133180241447
674,0.0117665599209711
675,0.0117710770513571
676,0.011748757234868
677,0.0119010789812561
678,0.0116848080911835
679,0.0117005624317426
680,0.0119647103249222
681,0.0117713026969219
682,0.0114672861913438
683,0.0111949710874517
684,0.0108056760038903
685,0.0104146350878558
686,0.0101859906373796
687,0.00996332911399942
688,0.00992232601753114
689,0.00993259345024573
690,0.0101012687044383
691,0.0103909362234008
692,0.0104368056558744
693,0.0105835847866781
694,0.0107679180546128
695,0.010875220078563
696,0.0111246834396759
697,0.0112576789312023
698,0.0111417038575404
699,0.0112013976403314
700,0.0115322115244278
701,0.0115466412382523
702,0.0118298364501051
703,0.0119855637946351
704,0.0123277354202814
705,0.0124899145784081
706,0.0127876523101255
707,0.0130446062941619
708,0.0131880512669611
709,0.0134314817636173
710,0.0134465551817386
711,0.0135794600835078
712,0.0136364755774004
713,0.0130765236421619
714,0.0127266849622917
715,0.0120102544030615
716,0.0113909177594437
717,0.0110515285458914
718,0.0110668261222658
719,0.0112220120174528
720,0.0114821075779849
721,0.0116169211484697
722,0.0121164373449623
723,0.0120816298308298
724,0.0121643634006484
725,0.012332110372598
726,0.0123839648328102
727,0.0127655753044098
728,0.0131672835595493
729,0.0137702671575715
730,0.0143770597904342
731,0.0151894788539987
732,0.0158869447343792
733,0.0167164084843733
734,0.0172449992725446
735,0.0176554198331726
736,0.0181599039615766
737,0.0185617085414474
738,0.0189635131213181
739,0.0193653177011888
740,0.0199648599649866
741,0.0202563430473964
742,0.0205808974776192
743,0.020905451907842
744,0.0212300063380647
745,0.0214972953278345
746,0.0215819876363719
747,0.021827367926906
748,0.0216640059310639
749,0.0219199464951825
750,0.0219722118946419
751,0.0220847659531336
752,0.022478416550069
753,0.0222441537999962
754,0.0220114405233834
755,0.0204281832976016
756,0.0188449260718199
757,0.0172616688460381
758,0.0147423244335084
759,0.0125104537713372
760,0.0110007708302916
761,0.0107697966705987
762,0.0113100599809095
763,0.0124869126551978
764,0.0140161041246405
765,0.0156256834417343
766,0.0175090000901655
767,0.0192609851997496
768,0.0203947491322703
769,0.0212067801431815
770,0.0217441036939977
771,0.0220248135239538
772,0.0223577628364122
773,0.022682703590666
774,0.0226334995363897
775,0.0226457192009279
776,0.0228172019871224
777,0.0225510609900028
778,0.0229160418746743
779,0.0226259368503629
780,0.022926456504011
