"wavelength","measurement"
380,0.0161607952308001
381,0.0159941398792056
382,0.0161487632390906
383,0.0156134450545525
384,0.0161358719017209
385,0.0166215375301514
386,0.018042059181363
387,0.0191439372555463
388,0.0204651025429049
389,0.0210036767081079
390,0.02151699530757
391,0.0219907611716301
392,0.0224354913278708
393,0.0232702745899454
394,0.0240128427684958
395,0.0258609197199276
396,0.0293577242115879
397,0.0336194212186245
398,0.0378811182256611
399,0.0421428152326978
400,0.0456735465872442
401,0.0490955527198595
402,0.0519051851421119
403,0.0536872937237424
404,0.0555230369123332
405,0.0564759934656018
406,0.0587453346627206
407,0.0597075056744855
408,0.0615706042158042
409,0.0635321257974487
410,0.0680244662210666
411,0.0686276649611486
412,0.0717638971580615
413,0.0735175411027957
414,0.0752940435285221
415,0.0761724477056439
416,0.0763662408152221
417,0.0759381042738181
418,0.0778611896652845
419,0.0767255480642807
420,0.078385177099231
421,0.0786610679703143
422,0.0798853535028451
423,0.080414011016195
424,0.0806926921244605
425,0.0798456335524032
426,0.0791298818380862
427,0.0769996048484954
428,0.0746732432856399
429,0.0743914548189607
430,0.074248111126806
431,0.0769333378803785
432,0.0795151896670174
433,0.0826838424411818
434,0.0861453272687616
435,0.0882120399716804
436,0.0890253747054121
437,0.0904546089511536
438,0.0918838431968951
439,0.0933130774426365
440,0.0941654761909512
441,0.0959863917629229
442,0.0978206889778851
443,0.0991836631298003
444,0.100591674818407
445,0.101999686507014
446,0.10340769819562
447,0.104541691974142
448,0.105239536064722
449,0.109516965557972
450,0.108833425027921
451,0.108015973001633
452,0.107742746383577
453,0.107469519765521
454,0.107196293147464
455,0.107165546008729
456,0.10670872717109
457,0.107654709159797
458,0.108671653788794
459,0.110170197253701
460,0.11064888542864
461,0.109235085579396
462,0.112655370653168
463,0.109732441883308
464,0.108977306600794
465,0.107933593563629
466,0.107164372720265
467,0.106777499233834
468,0.105714783717706
469,0.105228565778384
470,0.107028793760479
471,0.107345783969535
472,0.10799904626713
473,0.109918465401564
474,0.110340988008309
475,0.112430951880231
476,0.109984796393593
477,0.110355048103408
478,0.110725299813222
479,0.111095551523036
480,0.111109081249803
481,0.10851300175169
482,0.107345788479605
483,0.10651586877708
484,0.103643943737644
485,0.101023483382219
486,0.101770781445405
487,0.102092914798396
488,0.103310265165811
489,0.106031716249635
490,0.107075918594907
491,0.107937922656632
492,0.110455819196054
493,0.109388171220038
494,0.111249660770524
495,0.109989954290092
496,0.110255815843271
497,0.108830660586268
498,0.109453522730056
499,0.107114799104095
500,0.107430548342369
501,0.106624830470741
502,0.108487127673153
503,0.10844943538778
504,0.107663671130453
505,0.111216616765249
506,0.110707957469435
507,0.111554306110675
508,0.11211921098498
509,0.112158898430012
510,0.110442093334964
511,0.112578195857786
512,0.111720035583667
513,0.108777490073913
514,0.108154371023266
515,0.106257752675322
516,0.105372485289616
517,0.105054222555217
518,0.104714145657024
519,0.106766747554072
520,0.108942624412375
521,0.110511228053699
522,0.112079831695024
523,0.113648435336348
524,0.11327489507576
525,0.113306367790233
526,0.113820085659963
527,0.113406662618578
528,0.114028588925043
529,0.115795910632214
530,0.115954757305299
531,0.116626579201436
532,0.116441412289741
533,0.117416713669933
534,0.117666152032342
535,0.116519692584494
536,0.117783256996194
537,0.117242235956601
538,0.116476689418082
539,0.11554975762243
540,0.116299756323666
541,0.115535917688517
542,0.114659853589834
543,0.11558603735425
544,0.116464492225525
545,0.115729519044278
546,0.116713624867449
547,0.116710656938445
548,0.116707689009441
549,0.116704721080438
550,0.116056698203662
551,0.117098708524578
552,0.118090472096385
553,0.116827798870701
554,0.116609973044263
555,0.117689944331452
556,0.116122788321425
557,0.115980453976548
558,0.11518030786094
559,0.114434564667318
560,0.115448932290304
561,0.113676265825023
562,0.115609648262499
563,0.11389106531107
564,0.114652797364727
565,0.113060867124961
566,0.112502107250659
567,0.110986080999111
568,0.111940907761992
569,0.110458393282551
570,0.110517368937269
571,0.110797895565558
572,0.111013277264396
573,0.110769061560604
574,0.11166552978119
575,0.110176996239575
576,0.110500217080759
577,0.110823437921942
578,0.111146658763125
579,0.111469879604309
580,0.111793100445492
581,0.113370446271487
582,0.112507794489978
583,0.11327023115915
584,0.11160951571959
585,0.111439636220179
586,0.108055088192593
587,0.106437983709973
588,0.1052628146726
589,0.104087645635226
590,0.102912476597852
591,0.103340202371563
592,0.104411851883657
593,0.104622940086647
594,0.106788133310613
595,0.10675414446438
596,0.107353800070234
597,0.108051714626596
598,0.108195455799869
599,0.108687630865293
600,0.109722754091505
601,0.110395443327486
602,0.111233870855981
603,0.110806218556808
604,0.111854957029012
605,0.111482538205258
606,0.111839973938557
607,0.111280377011222
608,0.110101102275079
609,0.110414817165255
610,0.109428364798305
611,0.108774645918536
612,0.107583085529586
613,0.107597405457588
614,0.106378416447071
615,0.107542006801951
616,0.106179663502034
617,0.107070710355626
618,0.107165782779221
619,0.107650288750094
620,0.107385084535186
621,0.107977639552991
622,0.106211789045711
623,0.10616982019993
624,0.105667254413461
625,0.105164688626992
626,0.104662122840524
627,0.104594456179869
628,0.104444333425513
629,0.103934020141852
630,0.105028435021018
631,0.103487579876602
632,0.10422476176551
633,0.104767460775733
634,0.10502603429524
635,0.105736680006739
636,0.104741264688633
637,0.105528586189058
638,0.105191594167657
639,0.105379414928954
640,0.104735008192307
641,0.104458882707988
642,0.104036246924715
643,0.103196902516353
644,0.102357558107992
645,0.10151821369963
646,0.101770799757592
647,0.101627487732423
648,0.0995091874975618
649,0.101111818548999
650,0.100267631030054
651,0.101664938814592
652,0.10016891001954
653,0.0990888277612728
654,0.0970608309114253
655,0.0978087918830122
656,0.0967432626693097
657,0.0976862116250236
658,0.0993669115359407
659,0.101838623943547
660,0.102848180031116
661,0.103458855682935
662,0.104006663843967
663,0.103880061710082
664,0.103336548628396
665,0.103562117139866
666,0.103720951700608
667,0.104124550863297
668,0.103979378161503
669,0.102519923468703
670,0.102961771468719
671,0.103151971892656
672,0.102412356798775
673,0.102843895178711
674,0.103246179717999
675,0.103097933595256
676,0.102979386358824
677,0.103952944749505
678,0.102632780852685
679,0.102611772691742
680,0.105351392617106
681,0.103253235205406
682,0.101608267227086
683,0.100662210313321
684,0.0974465567588721
685,0.0954436001157538
686,0.0935496317530015
687,0.0918778399473738
688,0.091058561675026
689,0.0916349591154859
690,0.0925713712261697
691,0.094585736061647
692,0.0946388437304204
693,0.0957123266274999
694,0.0977165778229075
695,0.0982985705349864
696,0.100224288499716
697,0.101847254291027
698,0.10097865511707
699,0.101759884107253
700,0.104340162706835
701,0.104044976341779
702,0.106903205042215
703,0.107832045634528
704,0.111011803172427
705,0.11196297566118
706,0.114342843179696
707,0.116916507426888
708,0.11813445332182
709,0.120860792843551
710,0.120774339163545
711,0.12211724454114
712,0.123744368754599
713,0.120037957935414
714,0.118324027371256
715,0.112695498099196
716,0.108144608031735
717,0.104217302962584
718,0.103880688717522
719,0.105522056188434
720,0.107726076295684
721,0.108032721879489
722,0.112230193998768
723,0.112856001886412
724,0.113378525755327
725,0.114741483958883
726,0.114962932979614
727,0.11790555390215
728,0.120129331255496
729,0.12410171766764
730,0.128288104711534
731,0.133253925166814
732,0.138744966197199
733,0.145180554325677
734,0.14865479910102
735,0.151278124844764
736,0.154675036646341
737,0.157136937510199
738,0.159598838374056
739,0.162060739237914
740,0.165872408398329
741,0.168303195920505
742,0.170686802275694
743,0.173070408630882
744,0.175454014986071
745,0.176240880390088
746,0.177267790580561
747,0.179158472391773
748,0.178292225663465
749,0.179434584742095
750,0.180255080594069
751,0.179810033713677
752,0.182851944317017
753,0.182101513210717
754,0.180918579123105
755,0.171447171432418
756,0.161975763741732
757,0.152504356051045
758,0.135168651253665
759,0.120392916211682
760,0.107780339003949
761,0.104726320726436
762,0.108226012683769
763,0.114813417943543
764,0.125256286372923
765,0.135554766514747
766,0.148653136509836
767,0.160873674508107
768,0.168651570735217
769,0.173296435638907
770,0.178706330797891
771,0.180216143785412
772,0.182995461282915
773,0.185210716246802
774,0.184259713229611
775,0.184545955942393
776,0.1858229686884
777,0.183585815386134
778,0.186194003329908
779,0.184300050060899
780,0.187197325437565
