"wavelength","measurement"
380,0.0188300680286477
381,0.018356544067958
382,0.018630234645971
383,0.0180299621426508
384,0.0183978534677839
385,0.0194350166047693
386,0.0208559350547543
387,0.0215717530598819
388,0.0231498054721839
389,0.0240804936879429
390,0.024334066570975
391,0.0245838214512077
392,0.0246135455045612
393,0.025320719892572
394,0.0268943831205508
395,0.0278965399006064
396,0.031767408088646
397,0.0360484629102713
398,0.0403295177318966
399,0.044610572553522
400,0.0475452908255386
401,0.0513393350096761
402,0.0545693672010993
403,0.0556260405355125
404,0.0574091551651176
405,0.0582740794873369
406,0.0605616414570133
407,0.0609751463809634
408,0.0626821529071756
409,0.0642789552545485
410,0.0685966103097897
411,0.0691400965422172
412,0.0723734741702423
413,0.0742170849865811
414,0.0755632879261483
415,0.0766702912431587
416,0.0766483406399698
417,0.0764834158548928
418,0.0777493163428425
419,0.077519337112386
420,0.078786864915899
421,0.079401392913922
422,0.0801746894842829
423,0.080807953267768
424,0.0814304179840571
425,0.0803131879937828
426,0.0797497331163208
427,0.0781253672941905
428,0.0755545349232568
429,0.0752216227699345
430,0.0756676692406095
431,0.0781524638643682
432,0.0809676021961409
433,0.083626269636154
434,0.0875162712127776
435,0.0897759815708113
436,0.0908412876749964
437,0.0922473073467578
438,0.0936533270185192
439,0.0950593466902806
440,0.0960000351208563
441,0.0973309288063109
442,0.100305360452364
443,0.101142010040954
444,0.102716628250839
445,0.104291246460723
446,0.105865864670608
447,0.106937571111103
448,0.107458058807047
449,0.112086772235402
450,0.111234839006277
451,0.110643726934972
452,0.110401488305295
453,0.110159249675618
454,0.10991701104594
455,0.109753765373185
456,0.109727810140585
457,0.110707125074985
458,0.111793720952616
459,0.113377168643051
460,0.113429628871197
461,0.112385389713709
462,0.115694436771506
463,0.112938205061986
464,0.111731684522237
465,0.111294704095805
466,0.110037077922997
467,0.109789325825845
468,0.108618437638204
469,0.107960996000475
470,0.110130462321145
471,0.110316929407237
472,0.111193887660015
473,0.112843937593206
474,0.113365679285992
475,0.115697320098822
476,0.113339260313034
477,0.113539856725396
478,0.113740453137757
479,0.113941049550119
480,0.114015650360152
481,0.111285894123062
482,0.109821128551328
483,0.109212821777074
484,0.106545780041883
485,0.103663081934492
486,0.104454438654385
487,0.104828430025125
488,0.106087651300566
489,0.108808859833931
490,0.109776469225211
491,0.110833598750509
492,0.113540975533413
493,0.112581152567791
494,0.114511535920039
495,0.113616936042933
496,0.113857296369751
497,0.112078603574646
498,0.112829750121475
499,0.110361785281636
500,0.111369852199754
501,0.110172206273885
502,0.112077021986152
503,0.112576998956118
504,0.11167154578942
505,0.115181302193354
506,0.115229234388659
507,0.115663962561208
508,0.116476290388659
509,0.116674857296266
510,0.114996359635031
511,0.116717476815329
512,0.116429745086085
513,0.113272627867944
514,0.112909777141216
515,0.1110629159347
516,0.110015379329473
517,0.110119543962044
518,0.109574802076959
519,0.111977308904298
520,0.114077911185381
521,0.115772224358925
522,0.11746653753247
523,0.119160850706014
524,0.118966689805834
525,0.119068255474413
526,0.120109863686785
527,0.119366758629287
528,0.120180974654686
529,0.122351608499524
530,0.122591947361034
531,0.123014949956759
532,0.123177612540177
533,0.124032306460932
534,0.124693479832946
535,0.123509039313968
536,0.124574776460915
537,0.124255118927385
538,0.123249061493697
539,0.122462539759378
540,0.123547390355171
541,0.122808166451865
542,0.121925022746732
543,0.122784561158772
544,0.123650443730262
545,0.12319167394509
546,0.124365349316268
547,0.124319355374422
548,0.124273361432576
549,0.12422736749073
550,0.123544036790084
551,0.124660872494324
552,0.125793388243533
553,0.12474406447024
554,0.124531042115868
555,0.125953126947059
556,0.124081877197434
557,0.12414692143164
558,0.123248401007157
559,0.12253421409314
560,0.123991654489005
561,0.121908025685234
562,0.124200882543547
563,0.122348518798266
564,0.123299710300585
565,0.121963325006516
566,0.121413742503059
567,0.119624455491508
568,0.120995218942034
569,0.119176278646713
570,0.119279789360561
571,0.119843541507576
572,0.119923128600623
573,0.120093345068851
574,0.120924339501004
575,0.119508383356721
576,0.119867614548333
577,0.120226845739945
578,0.120586076931557
579,0.120945308123169
580,0.121304539314781
581,0.122990087058829
582,0.122310851890347
583,0.122827479353409
584,0.120886389124124
585,0.12096273298132
586,0.117285542677121
587,0.115679572211236
588,0.114344773254255
589,0.113009974297273
590,0.111675175340292
591,0.111826582709138
592,0.113544360288053
593,0.113756932633205
594,0.115827505838765
595,0.115884730735509
596,0.116534955237084
597,0.117125767506374
598,0.117508433190862
599,0.117961727881022
600,0.118949778071989
601,0.119702615753921
602,0.120580716781978
603,0.120163757313227
604,0.121449805718491
605,0.120925335334868
606,0.121344049516144
607,0.120730938619133
608,0.119671070558171
609,0.119793885517676
610,0.118639836124666
611,0.118205948150967
612,0.11710198901034
613,0.11677267041643
614,0.115502198161875
615,0.117055362097802
616,0.115500765011511
617,0.116438772060043
618,0.116378328949538
619,0.117010993716941
620,0.116921494751888
621,0.117716927529707
622,0.115730736427421
623,0.115953167755355
624,0.115338875320008
625,0.114724582884661
626,0.114110290449314
627,0.114059679589553
628,0.113900157655896
629,0.113505334355271
630,0.114546524804037
631,0.112940581375886
632,0.113621977279365
633,0.11446087665599
634,0.114878551836698
635,0.114846399337845
636,0.114060709476118
637,0.115370310401225
638,0.114566530014794
639,0.114895966014464
640,0.114286345055411
641,0.113984034209379
642,0.113500787847443
643,0.112773193074168
644,0.112045598300894
645,0.111318003527619
646,0.1116354681514
647,0.111426258642708
648,0.108731078785012
649,0.110860713938468
650,0.109475343569514
651,0.111196462012497
652,0.109659135465778
653,0.108500376326786
654,0.106309133544942
655,0.10745532971712
656,0.106004384522442
657,0.10734467647909
658,0.108496720341911
659,0.111574538493925
660,0.112811973469551
661,0.113089658435886
662,0.113955577876993
663,0.113709477786652
664,0.113013239086545
665,0.11352750761077
666,0.113764621666725
667,0.114036154504556
668,0.114445822288688
669,0.112792226809688
670,0.112935543195707
671,0.112711294242287
672,0.112217347115367
673,0.112456043714664
674,0.11287000880447
675,0.11289883090126
676,0.113331617220817
677,0.113881496064736
678,0.112626035662368
679,0.112927122188633
680,0.115323498757533
681,0.113486790196081
682,0.111972830513389
683,0.110254980879378
684,0.106857774381582
685,0.104908404481024
686,0.102884766981358
687,0.100845516350415
688,0.100193803926703
689,0.100575293506181
690,0.101707678111234
691,0.103565550283818
692,0.10407020747746
693,0.105571562785255
694,0.106981718551109
695,0.107175015825117
696,0.109639640102589
697,0.111124676392349
698,0.110426024745388
699,0.111202175243922
700,0.1134362118437
701,0.113545462196081
702,0.116443677149483
703,0.11699097137779
704,0.120245130015187
705,0.120868404234369
706,0.123907538147409
707,0.126066227801373
708,0.127289087144998
709,0.129784761367587
710,0.129735657216001
711,0.130697912571133
712,0.132458889669009
713,0.128371944341573
714,0.126330239436067
715,0.120072846405499
716,0.115157586770436
717,0.111178999876278
718,0.110649180033281
719,0.111669505727679
720,0.114184172706208
721,0.11348497289176
722,0.118379054926368
723,0.118553582691451
724,0.118933588745197
725,0.120135982168075
726,0.120179112039638
727,0.122721890519826
728,0.124955650722311
729,0.12878778419338
730,0.132473218191864
731,0.137733191388047
732,0.143378920398286
733,0.149716190363256
734,0.153392654929527
735,0.155843022460974
736,0.159086537847872
737,0.161128442849178
738,0.163170347850483
739,0.165212252851789
740,0.169275752151258
741,0.171034705083341
742,0.173201342210753
743,0.175367979338164
744,0.177534616465576
745,0.178760451510036
746,0.179464295408963
747,0.18098770740715
748,0.179757186924306
749,0.181565347147337
750,0.181854018240122
751,0.181604799285829
752,0.184738813481481
753,0.183626195420334
754,0.182772470599305
755,0.173056896327186
756,0.163341322055068
757,0.153625747782949
758,0.136902435275682
759,0.12186109396004
760,0.109032010881847
761,0.105570540206131
762,0.108874152216342
763,0.115715032529073
764,0.125956631901446
765,0.136225795504051
766,0.148906534135291
767,0.161703460834977
768,0.169027603114904
769,0.173978503411682
770,0.178509432975861
771,0.18040988926966
772,0.182447617007043
773,0.185187520245492
774,0.184793693436258
775,0.185338185566499
776,0.186130303850386
777,0.184041970559464
778,0.186911683489498
779,0.184380162582296
780,0.187552527733066
