"wavelength","measurement"
380,0.00141105785057557
381,0.00144259800607331
382,0.00146894485037815
383,0.00148580788528038
384,0.001488717644686
385,0.00160873397627073
386,0.00173037967219983
387,0.00179005603656295
388,0.00199944733870063
389,0.00200166370148454
390,0.00202886811968132
391,0.00210249754633938
392,0.0020813227623997
393,0.0021678293739442
394,0.00230300040282497
395,0.00255697580548461
396,0.0028593321815033
397,0.0032402676082154
398,0.0036212030349275
399,0.00400213846163961
400,0.0043421511876579
401,0.00464641937555375
402,0.00499025809508621
403,0.00515706342625451
404,0.00537127927543813
405,0.00542392883713868
406,0.00574057912208027
407,0.0059349704987023
408,0.00606092388027457
409,0.00627593601036545
410,0.00671979659271337
411,0.00686078591687092
412,0.00716021724940129
413,0.00743173450167529
414,0.00758175021055425
415,0.00775259508812867
416,0.00772276386359175
417,0.0078347538004172
418,0.00799414157643613
419,0.0079018247122478
420,0.00813323111588822
421,0.00823394547286441
422,0.00828409427176294
423,0.00844009118866582
424,0.00856982241924004
425,0.00849381074778876
426,0.00840795227336109
427,0.00826806999198922
428,0.00803283317500074
429,0.0080819573629019
430,0.00819392318915648
431,0.00860774703627367
432,0.00913603121372825
433,0.00970988517228359
434,0.0103442298839299
435,0.0106124397556719
436,0.010727244062413
437,0.010717955566491
438,0.010708667070569
439,0.0106993785746469
440,0.010740840176858
441,0.0109662508326774
442,0.0112362045824918
443,0.0114084478579778
444,0.011634323042668
445,0.0118601982273581
446,0.0120860734120483
447,0.0123754141379727
448,0.0124403697423366
449,0.0130824169902246
450,0.0129866671720071
451,0.0129926912376565
452,0.013013117353848
453,0.0130335434700396
454,0.0130539695862312
455,0.0131568269103375
456,0.0131067119690066
457,0.0133591391401295
458,0.0134819935778023
459,0.0137262159292125
460,0.013771225039242
461,0.0136284143149007
462,0.0140907973985714
463,0.0137622211937104
464,0.0136503630301409
465,0.0135540241078464
466,0.0134277792463297
467,0.0134586052906685
468,0.0133541397177506
469,0.0133200116470887
470,0.0135577730777854
471,0.013600351899815
472,0.0137095696542988
473,0.0139145284169942
474,0.0140011616821753
475,0.014225727279794
476,0.0139796861215818
477,0.0140252211571909
478,0.0140707561928001
479,0.0141162912284092
480,0.0141786140427464
481,0.0138985409986718
482,0.0137395577630112
483,0.0137475678003415
484,0.0135474986843293
485,0.0133526319308121
486,0.0135084910122397
487,0.0136559977308764
488,0.0137676592254849
489,0.0141547580804444
490,0.0142366883675844
491,0.0143657217943442
492,0.0147274329854949
493,0.0145365748532469
494,0.0147713551840501
495,0.0146212816975077
496,0.014702490661865
497,0.0144587555620631
498,0.0145217686832422
499,0.0142224528690279
500,0.0143532709246258
501,0.0142440319439379
502,0.0145189907454171
503,0.0145820868448909
504,0.0144914965170668
505,0.0150269305109612
506,0.0150478248163719
507,0.0151574737141254
508,0.0153012933761691
509,0.0154125929778271
510,0.0152396748520367
511,0.0155859356310544
512,0.0155413171214445
513,0.0151877901491105
514,0.0152070545095988
515,0.0149965898587642
516,0.0150115908087213
517,0.0150602664381266
518,0.0150957149569793
519,0.0155176829563434
520,0.0158878798281873
521,0.0161919500589724
522,0.0164960202897575
523,0.0168000905205426
524,0.0168246977831631
525,0.0169621795762629
526,0.0171032480874599
527,0.0170804419578566
528,0.0173267070326085
529,0.0176504043649329
530,0.0177541878369907
531,0.0178950545742298
532,0.017863397081872
533,0.0181740793151745
534,0.0183396118388782
535,0.0183056323011167
536,0.0186941845303643
537,0.0188058141264692
538,0.0190000356927035
539,0.019230167664699
540,0.0196619887383083
541,0.0198510683044746
542,0.0200501349256409
543,0.0203166733810138
544,0.020635725502873
545,0.0205095000158545
546,0.020630671107365
547,0.0203314071959869
548,0.0200321432846087
549,0.0197328793732306
550,0.0192535562535518
551,0.0191921905047605
552,0.0191019166813344
553,0.0188297851437492
554,0.018660407893667
555,0.0187730395774356
556,0.0184553604176055
557,0.0183749056507884
558,0.0182360038796312
559,0.0180331557683909
560,0.0182147228791166
561,0.0179035653355159
562,0.0181984887213409
563,0.0179049720105841
564,0.017969116354171
565,0.0176920550664802
566,0.0176305195176932
567,0.0173194302748383
568,0.0174189329282384
569,0.0171869316712108
570,0.0171288696014063
571,0.0171462443975804
572,0.017122160058734
573,0.0170944129131398
574,0.0172327760859655
575,0.0170088022296187
576,0.0170673488151476
577,0.0171258954006765
578,0.0171844419862054
579,0.0172429885717342
580,0.0173015351572631
581,0.0174813983953448
582,0.0173385944089228
583,0.0173889146424921
584,0.017121740908844
585,0.0170949784812419
586,0.0166013465942989
587,0.016323041027732
588,0.0160770261473462
589,0.0158310112669604
590,0.0155849963865746
591,0.0155347220118501
592,0.0156682551365846
593,0.0156168630897801
594,0.0157668243591546
595,0.0156607528565836
596,0.0157519437785127
597,0.0157832517626561
598,0.0157889315547086
599,0.0157644738703194
600,0.0158737744975873
601,0.0158996157377634
602,0.0159500868182218
603,0.0158153286337025
604,0.0159925985594453
605,0.015907612611168
606,0.0160770260955026
607,0.0163781744517443
608,0.0167002977475188
609,0.0172366316490091
610,0.0174710521769441
611,0.0176086337844999
612,0.0173062077823535
613,0.0168300898918349
614,0.0161293901672863
615,0.015791578692006
616,0.0153202493607436
617,0.0152015118930311
618,0.0150012915929541
619,0.0149475319867932
620,0.0148033393475266
621,0.0148875001653036
622,0.0146010255955881
623,0.0145234703263664
624,0.0144318671448562
625,0.0143402639633459
626,0.0142486607818357
627,0.0142114953324019
628,0.0141524819554687
629,0.0140684510396372
630,0.014176477774147
631,0.013872810360322
632,0.0138452221895035
633,0.0137968034228915
634,0.0136649020192536
635,0.0136529515854899
636,0.0134861172975679
637,0.0135277012763164
638,0.0133257127641929
639,0.0133639813693104
640,0.0132300756896739
641,0.0131170851183129
642,0.0129659160516179
643,0.0127913169712993
644,0.0126167178909807
645,0.0124421188106621
646,0.0124353224728703
647,0.0123540669150026
648,0.01205410040469
649,0.0122118173177194
650,0.0120782179652165
651,0.0121373077227344
652,0.0119385134061896
653,0.0116469806162242
654,0.0114193088523544
655,0.0114515581909747
656,0.0112833203876592
657,0.0113818627124844
658,0.0114296326624185
659,0.0116900365077884
660,0.0117442980011113
661,0.0117416810284822
662,0.0117181689789156
663,0.011623345949667
664,0.0114894073925335
665,0.0114219949659004
666,0.0113980305184364
667,0.0113176035002238
668,0.0112755782870621
669,0.0110673839758995
670,0.0110408181654375
671,0.0109911702516417
672,0.0108887327446429
673,0.0108785575309493
674,0.0108558234021775
675,0.0108324199611079
676,0.0107963291473786
677,0.0108251947836455
678,0.0106878492351316
679,0.0106131363740557
680,0.0108685727627772
681,0.0106865478416484
682,0.0104771640481644
683,0.010360810296247
684,0.010073549556383
685,0.00992673823880652
686,0.00977000879714071
687,0.00967182933734325
688,0.00961925701680629
689,0.00974489572468521
690,0.00997547956209889
691,0.0102189353218952
692,0.0103607333367272
693,0.0105791481540601
694,0.0108565235899587
695,0.0110303962481158
696,0.0113748060387409
697,0.0115913847550397
698,0.0116298308632568
699,0.0119050694042651
700,0.0122179520387866
701,0.012372228266618
702,0.0128129416817164
703,0.0130996823499121
704,0.0135758384581169
705,0.0138168199012705
706,0.014293108983604
707,0.0146509963365107
708,0.014876909779536
709,0.0152112806419134
710,0.0152443748828449
711,0.0154482260664569
712,0.0155999318471561
713,0.0151585038755742
714,0.0148614937591398
715,0.0142062111213556
716,0.0135999294822504
717,0.0132430142946529
718,0.0132039032599158
719,0.0134425630013118
720,0.0137026573737253
721,0.0136658373376637
722,0.0142010489316389
723,0.0142413529583848
724,0.0143308556534307
725,0.0143657916499395
726,0.0144450890667588
727,0.0147276701223273
728,0.0149629677555792
729,0.0153759913622563
730,0.0158483758925129
731,0.0164258896373411
732,0.0169612268470237
733,0.0175886022458546
734,0.017973566819269
735,0.0181729857481429
736,0.0184866837638537
737,0.0186609311052811
738,0.0188351784467086
739,0.019009425788136
740,0.019435960187512
741,0.0194895393594251
742,0.0196303336221266
743,0.0197711278848281
744,0.0199119221475296
745,0.0199873511486259
746,0.0199140211430182
747,0.02003338983051
748,0.0197623652704325
749,0.0198743882456001
750,0.0198362240230341
751,0.0196822966699596
752,0.0198330968483612
753,0.0195882550133266
754,0.0194351704960781
755,0.0182939946552293
756,0.0171528188143805
757,0.0160116429735316
758,0.0141435602581385
759,0.0125339882176268
760,0.0113461408144669
761,0.0110185389942094
762,0.0113639787869863
763,0.0120166919249101
764,0.0130301728455732
765,0.0139931058534858
766,0.0151416735145467
767,0.0163637495662062
768,0.016919718266152
769,0.0173764687344227
770,0.0177151771614002
771,0.017843807326841
772,0.0179784215169234
773,0.0181620060595846
774,0.0179946827349597
775,0.0179292794647034
776,0.0179755220364337
777,0.0176830203865775
778,0.0178402639719673
779,0.0175902946990866
780,0.0177866590474626
