"wavelength","measurement"
380,0.00182195771024137
381,0.00180064887694489
382,0.00189106383408309
383,0.00181788671491484
384,0.00184546751801649
385,0.00200120783888031
386,0.00213704513177357
387,0.00225599609642123
388,0.00242136696895284
389,0.0025387967994849
390,0.00250126045201404
391,0.00256757361911496
392,0.00260223451294546
393,0.00266184655318563
394,0.00284371942118145
395,0.00296414720791188
396,0.0033937011717981
397,0.00379595652581097
398,0.00419821187982385
399,0.00460046723383672
400,0.00496036655905472
401,0.00538071817686057
402,0.00566771342140924
403,0.0058369579097715
404,0.00596022578952407
405,0.00609846618217721
406,0.00633252004547009
407,0.00642197861590264
408,0.006483064594812
409,0.00671408112547875
410,0.00711162259651047
411,0.00721573366039139
412,0.00754529564092703
413,0.00778802670329144
414,0.00785652326475517
415,0.00793819959837121
416,0.00801500090442777
417,0.0080108566720121
418,0.00813058063031112
419,0.00804141632186233
420,0.0083212690053499
421,0.00838566876511116
422,0.00844239622868356
423,0.00851902547600908
424,0.00858851918472207
425,0.00850973401694764
426,0.00846852830070622
427,0.0082891117234104
428,0.00798175040577368
429,0.0080967040197552
430,0.0081221597160246
431,0.00865811736534969
432,0.00922330971415369
433,0.00991116917425039
434,0.0105909719433907
435,0.0108863921514638
436,0.0109527124359234
437,0.0108069572493657
438,0.0106612020628079
439,0.0105154468762502
440,0.0105284632714581
441,0.01069879396333
442,0.0109445813359666
443,0.0110849528660036
444,0.0113014304745383
445,0.0115179080830729
446,0.0117343856916075
447,0.0119824139079371
448,0.0120790011361113
449,0.0126052829400223
450,0.0125973630627331
451,0.0124533402784151
452,0.0124437769127162
453,0.0124342135470172
454,0.0124246501813182
455,0.0123882499977411
456,0.0122860945228024
457,0.0125272465831418
458,0.012562655682357
459,0.0128029707478956
460,0.012802770838057
461,0.0126319812916773
462,0.013004259912968
463,0.0126534510099054
464,0.012584323624966
465,0.0124763382048331
466,0.0123405315933476
467,0.0122908318177608
468,0.0121666690769434
469,0.012083240828666
470,0.0122875737881682
471,0.0122944129866377
472,0.0123679833330188
473,0.0125447134320726
474,0.0125735840971674
475,0.0127247056699124
476,0.012491285703841
477,0.0125318692694662
478,0.0125724528350913
479,0.0126130364007165
480,0.0126391038904209
481,0.0124065470005616
482,0.0122791227078674
483,0.0124022316612725
484,0.0121918343116967
485,0.0120320118862083
486,0.0121756535329568
487,0.0122856833835006
488,0.0124232138240203
489,0.0127168795101007
490,0.0127009476669294
491,0.0128004695901863
492,0.0130544338419673
493,0.0128807866812254
494,0.0130210991080744
495,0.0128114940146863
496,0.0128239599229684
497,0.0125845387506364
498,0.0126450408387385
499,0.0123295584818199
500,0.0123659400441611
501,0.0122319266917534
502,0.0123967013022534
503,0.0124528459464897
504,0.0123166504682939
505,0.0127215339157001
506,0.0126659337591472
507,0.0127458664173711
508,0.0128224176786137
509,0.0128770670253515
510,0.0126818390907226
511,0.0129268067876239
512,0.0129003373942276
513,0.0125559261878227
514,0.0125230165413702
515,0.0123487257836662
516,0.0122791571537803
517,0.0122911793555982
518,0.0123021501337724
519,0.0125317537926837
520,0.0128406295297703
521,0.0130231640271367
522,0.0132056985245032
523,0.0133882330218696
524,0.0133367321474309
525,0.0134384134924041
526,0.0135314769338874
527,0.0134708437678776
528,0.0135929708779837
529,0.0137861093175742
530,0.0138618050730629
531,0.0139623481724576
532,0.013936792833918
533,0.0141181142698384
534,0.0142962102189165
535,0.0142811782032957
536,0.0146363436404826
537,0.0148826287191415
538,0.0151842572810705
539,0.015598986021017
540,0.0160517176573683
541,0.0164081619984076
542,0.0166844048005772
543,0.0170470214942181
544,0.0173210831738121
545,0.0172126933922633
546,0.0172804063733614
547,0.0167986663747872
548,0.016316926376213
549,0.0158351863776387
550,0.015202168415873
551,0.0149629242170621
552,0.0147112475100353
553,0.0143619654713331
554,0.0141508458119461
555,0.0141601270434531
556,0.0138861885092899
557,0.0137776066342741
558,0.013624276870638
559,0.0134689366687412
560,0.0135962591591028
561,0.0133319863172224
562,0.0135231096447946
563,0.0133290188523564
564,0.0133693446153027
565,0.0131884159651415
566,0.0130509530076098
567,0.0128698053757669
568,0.0129223581857578
569,0.0127741623471293
570,0.0127453749399853
571,0.0127247812545406
572,0.0127401283357055
573,0.0127304879167192
574,0.0128668501955599
575,0.012740202982137
576,0.0128318879290026
577,0.0129235728758683
578,0.0130152578227339
579,0.0131069427695996
580,0.0131986277164652
581,0.0133563892834363
582,0.01325837079197
583,0.013373915865731
584,0.0132122834094013
585,0.013227862183334
586,0.0128452408771801
587,0.0126755848708492
588,0.0124498721523091
589,0.0122241594337689
590,0.0119984467152288
591,0.0119683490573595
592,0.0120223192910919
593,0.0119571544932948
594,0.0120131549179328
595,0.0118818343540203
596,0.0118892259002435
597,0.011911686597183
598,0.0119298513182028
599,0.0118980393167261
600,0.0119641389506673
601,0.0119373941549237
602,0.0120045795181867
603,0.0119002906943234
604,0.0119825213681902
605,0.0120103290864159
606,0.0122243964356775
607,0.0128058575993923
608,0.0134466422033109
609,0.0142734697739565
610,0.0147578161483054
611,0.0150304557087416
612,0.0147457394479894
613,0.0140336939108277
614,0.0131310152316958
615,0.0125992498131611
616,0.0120334092416149
617,0.0117965127520772
618,0.0115208342839323
619,0.0114300849164908
620,0.0113362532405823
621,0.0113132344036055
622,0.0110950097318171
623,0.011068299398152
624,0.010983800424758
625,0.010899301451364
626,0.01081480247797
627,0.0108172514797631
628,0.0107813688041887
629,0.0107495624333136
630,0.0107756420478627
631,0.0105299298800051
632,0.010412414404323
633,0.0103225381128574
634,0.0101709397297746
635,0.0101330345019325
636,0.00996386101720483
637,0.00996812066983218
638,0.00984317404975176
639,0.00989480080644339
640,0.00978140451407269
641,0.00967429230483498
642,0.00959908895905729
643,0.0094661729896927
644,0.00933325702032812
645,0.00920034105096353
646,0.00925318108844761
647,0.00914363849102425
648,0.00892380904929626
649,0.00908677938075871
650,0.00895648318651557
651,0.00902385656237381
652,0.00884893069421553
653,0.00867718544047385
654,0.00843350468714712
655,0.00851423905033003
656,0.00839820346533926
657,0.00839776790669368
658,0.00845089282953324
659,0.00867331405019521
660,0.00872900767234178
661,0.00872429685144804
662,0.00876606384730141
663,0.00866634746033831
664,0.00852608335720806
665,0.00852008350848704
666,0.00850833561909772
667,0.00844142858250445
668,0.00843440315262625
669,0.00828817556677985
670,0.00823750204479352
671,0.00817908817439132
672,0.00809461417598523
673,0.00809867222702008
674,0.00810642613132726
675,0.00802831672528998
676,0.00799666283772958
677,0.00802213133340948
678,0.0079375758608609
679,0.00785759450013736
680,0.00809024354602873
681,0.00785635311970418
682,0.00777468363094605
683,0.00766840671115356
684,0.00743794991638499
685,0.00728477583949683
686,0.00717091075534913
687,0.00705540783990706
688,0.00697763882666676
689,0.00704989372214028
690,0.00714761824419629
691,0.0073259213032584
692,0.0073310856954381
693,0.0074613090539587
694,0.00762786382325885
695,0.00771867531035659
696,0.00786689006928512
697,0.00800772295723008
698,0.00796557719427178
699,0.00808987699795787
700,0.00830195689579539
701,0.00835545334778572
702,0.00864526886934745
703,0.00882649956846555
704,0.00914002391836796
705,0.00928995359995468
706,0.00955644920022266
707,0.00980277769135444
708,0.00989985809826276
709,0.0101278882861661
710,0.0100717653866516
711,0.0101405241853944
712,0.010215769112893
713,0.00977367606490587
714,0.00951759852587627
715,0.00906398101184333
716,0.00865303561642334
717,0.00833810934216432
718,0.00827213972768037
719,0.00835968517885255
720,0.00855386235460489
721,0.00850253399618967
722,0.00881428290914668
723,0.0088332884015863
724,0.00883615890528945
725,0.00887955127347243
726,0.00891529722626604
727,0.00904358578412944
728,0.00918030384111037
729,0.00937996029473789
730,0.00970631190398851
731,0.0100271657315446
732,0.0104168995890932
733,0.0107928121164092
734,0.0109950542570675
735,0.0111287331685294
736,0.0112729229000645
737,0.0113921350458594
738,0.0115113471916542
739,0.011630559337449
740,0.0118386320688617
741,0.0119078010479496
742,0.011986101858658
743,0.0120644026693664
744,0.0121427034800748
745,0.0121985618241947
746,0.0121680902372484
747,0.0122226799113184
748,0.0120683467446393
749,0.0120712179382481
750,0.0120780345419016
751,0.0119414816937806
752,0.0120750379838032
753,0.0118990605927821
754,0.0118255946080979
755,0.0111307154488198
756,0.0104358362895416
757,0.00974095713026355
758,0.00854983163906808
759,0.00758999835601762
760,0.00682382957238158
761,0.00669399461190238
762,0.00689779684487729
763,0.00730142031227579
764,0.00790074321174067
765,0.00847192351977775
766,0.00921442301775223
767,0.00992220034246948
768,0.0103143966249228
769,0.0105290628678107
770,0.0107808609833732
771,0.0107898175946791
772,0.0109575456090473
773,0.0110413743822353
774,0.0109283243866915
775,0.0109096536657776
776,0.0109232790401931
777,0.0108074690949917
778,0.0108576839830768
779,0.0106947112578643
780,0.0107770769916351
