"wavelength","measurement"
380,0.00178910588739609
381,0.00178805588017907
382,0.00178907180276669
383,0.00180449903006584
384,0.00186585409638063
385,0.00201832121456553
386,0.00210277563300322
387,0.00225748147419424
388,0.00240066008718628
389,0.00247613289890942
390,0.00251957554910228
391,0.00251935308079044
392,0.00258756437014456
393,0.00262437200330109
394,0.00282766143195248
395,0.0029913775510465
396,0.00329726127442937
397,0.00372999214972403
398,0.0041627230250187
399,0.00459545390031336
400,0.00491892000551564
401,0.00525959862462765
402,0.00565218309596029
403,0.00574576612686221
404,0.00595035763204538
405,0.00605626528875638
406,0.00620598431594459
407,0.00629606025990623
408,0.00645501976639444
409,0.00664771694589136
410,0.00705279500814572
411,0.00713969699435231
412,0.00746960983700272
413,0.00778388447766783
414,0.00779947387893535
415,0.00791874657315639
416,0.0080063638814533
417,0.00793288195619943
418,0.00819229262848272
419,0.00805289523992946
420,0.00828268052307842
421,0.00829467575115924
422,0.00839519516560531
423,0.0085141257569516
424,0.00854810278614045
425,0.00846981157081281
426,0.00841628328486726
427,0.00823326157619418
428,0.00800197101786673
429,0.00803121430941082
430,0.00812639004069943
431,0.00860279242148759
432,0.00922377200390494
433,0.00991985506009051
434,0.0106168069398505
435,0.0108917409826013
436,0.0109191143198658
437,0.0107877107323147
438,0.0106563071447636
439,0.0105249035572126
440,0.0104656074825745
441,0.0106216180537865
442,0.0108821425250109
443,0.0110100908040528
444,0.0112229673633321
445,0.0114358439226115
446,0.0116487204818908
447,0.011911856986269
448,0.0119638869195343
449,0.0125398401538168
450,0.0124593750245302
451,0.012418945999109
452,0.0123945892173989
453,0.0123702324356888
454,0.0123458756539787
455,0.0123727358776286
456,0.0123481405391604
457,0.0124819065937683
458,0.0125788137195547
459,0.0127167380048484
460,0.012770189814451
461,0.012617788345043
462,0.0130143748097613
463,0.0126135325861955
464,0.0124926045031243
465,0.0124346256110266
466,0.0122810638948178
467,0.0122754385930415
468,0.0121840354933659
469,0.0120697540767908
470,0.0122491730931486
471,0.0122869463425951
472,0.0123451292261257
473,0.0124992305341853
474,0.012546349701532
475,0.0127469264111659
476,0.0124574009907881
477,0.0125035524311574
478,0.0125497038715267
479,0.012595855311896
480,0.0125899683152768
481,0.012344903807256
482,0.01228065745223
483,0.012404708195424
484,0.0122108070738892
485,0.0120067021839325
486,0.0121877759331806
487,0.0123279884696907
488,0.0123666721379075
489,0.0126767889420274
490,0.0127395711886898
491,0.0127787930466004
492,0.013052588887754
493,0.0128456152161069
494,0.0129904305521913
495,0.0128087242724997
496,0.0128196009802642
497,0.0125647444485908
498,0.0126356346723466
499,0.0123025695573146
500,0.0123780147713662
501,0.0122144357263333
502,0.0124010745135381
503,0.012366990539703
504,0.0122933136857635
505,0.0126810665281041
506,0.0126452090217945
507,0.0126979928891008
508,0.012790266166306
509,0.0128570603084439
510,0.012677159107454
511,0.0129106185849827
512,0.0128037469647956
513,0.0125098624701081
514,0.0124873126992347
515,0.0122785621458364
516,0.0122405707904398
517,0.0122376736153045
518,0.0122275585849826
519,0.0125077504547869
520,0.0127902114703353
521,0.0129644599288945
522,0.0131387083874537
523,0.0133129568460129
524,0.0132994149051735
525,0.0133584158562931
526,0.013443176384006
527,0.0133839618521443
528,0.0135014504328
529,0.0137614321381022
530,0.0137810504304684
531,0.0138652279460109
532,0.0138692447046746
533,0.0140468482129624
534,0.0142558427057895
535,0.0142266328721199
536,0.0145922561130841
537,0.0148259796642099
538,0.0151590042953502
539,0.0155604920072409
540,0.0160981419591151
541,0.0164258849113466
542,0.0167496420045211
543,0.017049096375618
544,0.0173626925607026
545,0.0172497976408822
546,0.017313561402421
547,0.0168108705744835
548,0.016308179746546
549,0.0158054889186086
550,0.0151698276730389
551,0.0148779103158359
552,0.0146760841708009
553,0.0143427438796816
554,0.0141178541388786
555,0.0141239106186224
556,0.0138185479776341
557,0.0137556614025942
558,0.0135630649725037
559,0.01341735882144
560,0.0135452569393971
561,0.0132701848007179
562,0.0134930188837784
563,0.013285356236918
564,0.0133032024574955
565,0.0130878414571493
566,0.013028116190453
567,0.0127918421947305
568,0.0129291287433698
569,0.0127054614723291
570,0.0126707997487636
571,0.0126981513688866
572,0.0126727177925678
573,0.0126994193837195
574,0.0128118412336149
575,0.0127044832755208
576,0.0127967026961387
577,0.0128889221167565
578,0.0129811415373744
579,0.0130733609579923
580,0.0131655803786101
581,0.0133390909585596
582,0.013251606630984
583,0.0133348424940616
584,0.0131919386003897
585,0.0131928320226038
586,0.0128279373079666
587,0.0125947724115927
588,0.012387003977445
589,0.0121792355432973
590,0.0119714671091496
591,0.0119235973542533
592,0.0119855647985389
593,0.0119094676416112
594,0.0119797205290921
595,0.0118320502819477
596,0.0118868407671531
597,0.0118703540711535
598,0.0118713259306919
599,0.0118592542584366
600,0.011916989380138
601,0.0119158053566404
602,0.011939422767771
603,0.0118285661263536
604,0.0119603730885646
605,0.011930389353853
606,0.0122188453051896
607,0.0128041583318817
608,0.0134766002706634
609,0.0142905295884418
610,0.0147914961729942
611,0.0150718373454323
612,0.0147814470545291
613,0.0140422826877827
614,0.013164796191635
615,0.0125965656123111
616,0.0120092925298939
617,0.0117656086419922
618,0.0115155097603241
619,0.0114064560584274
620,0.0112749933687645
621,0.0113196663896675
622,0.0110646957826692
623,0.0109955131152611
624,0.0109306474730259
625,0.0108657818307906
626,0.0108009161885554
627,0.0107903097344049
628,0.010784490405556
629,0.0106943476501302
630,0.0107689615235744
631,0.0104929535127469
632,0.010375999893154
633,0.0102485622745839
634,0.0101159468448102
635,0.0101042036403197
636,0.00993704578707371
637,0.00994900330172666
638,0.00984591698538401
639,0.00984649038973947
640,0.00972586098245162
641,0.00965745318119246
642,0.00956947109820979
643,0.00944487288613247
644,0.00932027467405516
645,0.00919567646197785
646,0.00921216345951957
647,0.00916015651955032
648,0.00892986616969638
649,0.0090710352651397
650,0.00893931221857963
651,0.00899842628689878
652,0.00885475163981617
653,0.00861571848624849
654,0.00843247767150946
655,0.00844085398237183
656,0.00835052461539606
657,0.00835995161385144
658,0.00842653693408689
659,0.00866531398287899
660,0.00870165249422911
661,0.0087014249409157
662,0.00873178163953454
663,0.00862296799377089
664,0.00852140360280588
665,0.00851355792310426
666,0.0084913511045984
667,0.00842103425603805
668,0.00838914580780849
669,0.00820721223683043
670,0.00820245621581191
671,0.00814132513655666
672,0.00810357401382092
673,0.00805544151307338
674,0.00808804983822017
675,0.00802288418191611
676,0.00801463659773777
677,0.00799181309535699
678,0.00792657836702142
679,0.00785819322303689
680,0.0080988530717688
681,0.00786157166352716
682,0.0077400590497009
683,0.00765496213460347
684,0.00738831146591016
685,0.00726423404210984
686,0.00711953519537034
687,0.00706734430459615
688,0.00698513759141308
689,0.00701887777317087
690,0.00711949470362489
691,0.00728208013777527
692,0.00732597272851702
693,0.00738009080401339
694,0.00756541851851131
695,0.00765498177563764
696,0.00786648794275432
697,0.00794241718238536
698,0.0079361716997581
699,0.00802904063510596
700,0.00826651292092609
701,0.00829652933438514
702,0.00858820310736785
703,0.00874123927594524
704,0.00907216483619359
705,0.0092431960228798
706,0.00950459458296246
707,0.00973515731641032
708,0.00985239844933226
709,0.0100395016707058
710,0.00998592504230233
711,0.0100459116882391
712,0.0100901294414775
713,0.00966811694620179
714,0.00945109352885285
715,0.00899162816893987
716,0.00856065724999937
717,0.00826742763166121
718,0.00821040113200735
719,0.00828230522394352
720,0.00848397715901721
721,0.00844708327839652
722,0.00872568752885265
723,0.0086995237002711
724,0.0087373900816313
725,0.00878574925378517
726,0.0087809409773552
727,0.00894993009278359
728,0.00908665874770623
729,0.0092915694575121
730,0.00956719139440932
731,0.00995205629496799
732,0.0102780640676804
733,0.0106632048136316
734,0.0108779628811758
735,0.0109733755871004
736,0.0111395322836326
737,0.0112573519126057
738,0.0113751715415788
739,0.0114929911705519
740,0.0116372139668158
741,0.0117280106269386
742,0.0118087994969228
743,0.0118895883669069
744,0.0119703772368911
745,0.0120440347167598
746,0.0119916020285396
747,0.0120401027447728
748,0.0118226769523076
749,0.0119033048855476
750,0.0118741087563877
751,0.0117652764262391
752,0.0119307890194096
753,0.0117319309184603
754,0.0115858797614636
755,0.0109241466692284
756,0.0102624135769932
757,0.00960068048475806
758,0.00842828056519004
759,0.00748201223164147
760,0.00674016533208169
761,0.00655902438672624
762,0.00674944620658934
763,0.00723562657995923
764,0.00780861310592312
765,0.00836821269312931
766,0.00906409036986769
767,0.00973736076409984
768,0.0101296387006473
769,0.010372987213156
770,0.0106338448418555
771,0.0106763366355332
772,0.0107601296772651
773,0.0108823767553399
774,0.0107436223412187
775,0.0107067321397894
776,0.0107482122403256
777,0.010604845422813
778,0.0106879921163285
779,0.0104955991074852
780,0.0106167280630166
