"wavelength","measurement"
380,0.00571972381751965
381,0.0056836214793919
382,0.00567429787780656
383,0.0056392758224859
384,0.00574667385967485
385,0.00619570719243054
386,0.00650054081002087
387,0.00690214846261359
388,0.00732741321369698
389,0.00763007983893605
390,0.00762395982138657
391,0.00763866171767357
392,0.00776611402225409
393,0.00782029127760018
394,0.00812434290228613
395,0.00850306532332334
396,0.00947686926193741
397,0.0105556577188997
398,0.0116344461758619
399,0.0127132346328242
400,0.0133811982935566
401,0.0141627097096785
402,0.014725411844209
403,0.0148336685589789
404,0.0149317694814802
405,0.0148716479242979
406,0.0152017478179174
407,0.0152816530433232
408,0.015318151304784
409,0.0155652977661202
410,0.0161772171484524
411,0.0161997427377831
412,0.0165982416868553
413,0.0169454065135263
414,0.0168596963169311
415,0.0170184086419934
416,0.0167944701893289
417,0.016622799407353
418,0.0167337318717472
419,0.0163747862321267
420,0.0167335057407523
421,0.0166222863210198
422,0.016670887005021
423,0.0168294881212891
424,0.0168284428157928
425,0.0164599292146017
426,0.0162782220794507
427,0.0158269171951847
428,0.0152617156023151
429,0.0152094490090261
430,0.0152049772741825
431,0.0157504849622729
432,0.016388597102315
433,0.0169514887089342
434,0.0177442353722083
435,0.0181024848033239
436,0.0181843786705382
437,0.0183516243288753
438,0.0185188699872125
439,0.0186861156455496
440,0.0186964744057345
441,0.0190167997245995
442,0.0193953936270709
443,0.0195695072371972
444,0.0198457500914743
445,0.0201219929457513
446,0.0203982358000284
447,0.0207172965786066
448,0.0207720228034381
449,0.021595797996207
450,0.0214711114164458
451,0.0212862194938012
452,0.0212215710114226
453,0.021156922529044
454,0.0210922740466655
455,0.0211424741935349
456,0.0210491370193525
457,0.0213509409292868
458,0.0213955049389912
459,0.0217312942361625
460,0.0216915789657252
461,0.0214585152554975
462,0.0220768016946413
463,0.0214281653173274
464,0.0211687367259694
465,0.0209913054389288
466,0.0206879247465511
467,0.0206386636561474
468,0.0204432846878317
469,0.0202362534141747
470,0.0205966556934812
471,0.0205450070731468
472,0.0206431443671941
473,0.0208270825976843
474,0.0209208804329283
475,0.0212174921738685
476,0.0206953773211663
477,0.0206947822746927
478,0.0206941872282191
479,0.0206935921817454
480,0.0206431729559857
481,0.0201249960621986
482,0.0197763577677715
483,0.0196658238561275
484,0.0191972680161055
485,0.0187779254782411
486,0.0189030669361127
487,0.0190283880949454
488,0.0191490674831955
489,0.0196428930871611
490,0.0197488044093535
491,0.0198544903847505
492,0.0202660377209308
493,0.0200166153339634
494,0.0202870417417592
495,0.0199580472451898
496,0.0200198866091847
497,0.0196394055478083
498,0.0197113865709405
499,0.0192382842575372
500,0.0192998772165163
501,0.0190517015871592
502,0.0193286440274673
503,0.0193667456329251
504,0.0191358244682658
505,0.019728248201522
506,0.0196305000246007
507,0.0197257697012761
508,0.0198149050128956
509,0.0198198613237702
510,0.019502625139752
511,0.019763470246799
512,0.0196372652043799
513,0.0190976773679347
514,0.0190208039001353
515,0.0186765557040649
516,0.0185453883661941
517,0.0185008966962342
518,0.018434634791669
519,0.0187852968331831
520,0.0191343520736443
521,0.0193707411685552
522,0.0196071302634661
523,0.019843519358377
524,0.0197434766035082
525,0.0198069907350754
526,0.0199059112080265
527,0.0197366819771088
528,0.0198994287170362
529,0.0202137016874884
530,0.0202046266280963
531,0.0202651682720944
532,0.0202145217833666
533,0.0204013620850154
534,0.0205034154832698
535,0.0202707555009178
536,0.0205214261210301
537,0.0204518918790922
538,0.0204606925781496
539,0.0205550162707594
540,0.0208801997040313
541,0.0210107532887872
542,0.021095449966351
543,0.0213755877146743
544,0.021477050177402
545,0.0212348185329279
546,0.0212060110076473
547,0.0209587990195668
548,0.0207115870314863
549,0.0204643750434057
550,0.0201630162181115
551,0.0202171277219305
552,0.0202763244643919
553,0.0200061110996072
554,0.0198527556250923
555,0.0199720569959613
556,0.019620578295994
557,0.0195477720543105
558,0.0193616117155336
559,0.0191751201424949
560,0.0193671360806798
561,0.0189911902728592
562,0.0192840284358536
563,0.0189667296771107
564,0.0190254059192553
565,0.0186866776268458
566,0.0185603492734559
567,0.0182398606215275
568,0.0183189939771139
569,0.0180485666824758
570,0.017987683591338
571,0.0179789858245028
572,0.0179382480462049
573,0.0178931509378702
574,0.0179829130170381
575,0.0177614082438183
576,0.0177882112199473
577,0.0178150141960763
578,0.0178418171722053
579,0.0178686201483343
580,0.0178954231244632
581,0.0180618503014888
582,0.0179239835135213
583,0.0179688665741196
584,0.0176108547636721
585,0.0174570974415333
586,0.0168823237001826
587,0.0164965736442282
588,0.0161925432701652
589,0.0158885128961022
590,0.0155844825220392
591,0.0155797974968699
592,0.0156665640059062
593,0.0156270831094302
594,0.0158150651334468
595,0.0157576102550751
596,0.0158192826925839
597,0.0158750583132098
598,0.0159323882725306
599,0.0159312825855155
600,0.0160360704979206
601,0.0160768306874979
602,0.0161214674014378
603,0.0160354060583355
604,0.0161382646951476
605,0.0160380034048233
606,0.0160750229542566
607,0.0161803110739176
608,0.0162373082823117
609,0.0164523462668014
610,0.0165251022407553
611,0.016509963411666
612,0.0162620524278135
613,0.0159431805020777
614,0.015431101810398
615,0.0153001098595543
616,0.014984688654672
617,0.0149666095281376
618,0.0148284555569146
619,0.0148097355889727
620,0.0146932665220883
621,0.0147402732734984
622,0.0143744394561428
623,0.0142669721782991
624,0.014111301321017
625,0.0139556304637348
626,0.0137999596064527
627,0.0137692763133966
628,0.0136343504921305
629,0.0135548670243222
630,0.0136304321174672
631,0.0133754161819857
632,0.0133422428120052
633,0.0133569884182601
634,0.0132472619368549
635,0.0132786845939314
636,0.0130750586617158
637,0.013143412849158
638,0.0129602945199691
639,0.0130058429565739
640,0.0128605166228138
641,0.0127439702171563
642,0.0126131549211242
643,0.0124300233075276
644,0.0122468916939311
645,0.0120637600803345
646,0.0120700236724177
647,0.0119329083774141
648,0.0116325279024313
649,0.0118078857315904
650,0.0116355310044608
651,0.0116907159565655
652,0.0115273276453166
653,0.0112719270651148
654,0.0110287675346373
655,0.011086111109
656,0.0109233359346724
657,0.0110002023438771
658,0.0110961139815556
659,0.0113483559587796
660,0.0114212852059942
661,0.0114435580029559
662,0.0114354947795366
663,0.0113277688489046
664,0.0112103047136594
665,0.0112256908533875
666,0.0111738459264288
667,0.0111259060730298
668,0.011098518210219
669,0.0108602405539769
670,0.0108732035519302
671,0.0107742531756873
672,0.0106920828593486
673,0.0106919132142569
674,0.0106760904145214
675,0.0106133072294064
676,0.0105560876975525
677,0.0105822862463962
678,0.0104319745276926
679,0.0103490771832921
680,0.0105744129770061
681,0.0103396672246716
682,0.0100934574072702
683,0.00991366538703601
684,0.00953661438952718
685,0.00926108477961569
686,0.00906055470102007
687,0.00886630966959559
688,0.00870354756876398
689,0.00874888504287281
690,0.00884941397431691
691,0.00900179388909638
692,0.00902532170400388
693,0.00906648945118554
694,0.00927979946554632
695,0.00932152142710379
696,0.00955514848321977
697,0.00962918366333271
698,0.00957200026419814
699,0.00970132921918828
700,0.00990269635034411
701,0.00991910687943703
702,0.0101997166918939
703,0.0103367305503472
704,0.0106516308824368
705,0.0107840024393797
706,0.0110476250198198
707,0.0112997160662671
708,0.0114411458137948
709,0.0116608587541205
710,0.011618990894315
711,0.0117272453284502
712,0.0118296574452351
713,0.0113634541189132
714,0.0110886628746038
715,0.0105146204202001
716,0.00998976685219431
717,0.00961318846947861
718,0.00959205562158791
719,0.00967180055240683
720,0.00991854550859834
721,0.00992826478384919
722,0.0103194456639335
723,0.0103390519313976
724,0.0103389942592345
725,0.0104151874497115
726,0.0104612708934746
727,0.0107334518171285
728,0.0109265767823144
729,0.011281408888406
730,0.0117114890296263
731,0.0122237867275321
732,0.0126761509494077
733,0.0132105311877378
734,0.0135672818597359
735,0.0138052160719285
736,0.0140907854671724
737,0.0142837526247394
738,0.0144767197823063
739,0.0146696869398733
740,0.0150204824435162
741,0.015178214703952
742,0.0153149308881502
743,0.0154516470723484
744,0.0155883632565466
745,0.0157384274936097
746,0.0156858777804316
747,0.0157934559386974
748,0.015604637408831
749,0.01571425210364
750,0.0157045165406155
751,0.0156054675833205
752,0.0158279477498849
753,0.0155495309716898
754,0.0155053226276431
755,0.0145775494324541
756,0.0136497762372652
757,0.0127220030420762
758,0.011216529141219
759,0.00986976036137385
760,0.00884282215754906
761,0.00854718614099793
762,0.00880119038757498
763,0.0092986838945411
764,0.0101301079468619
765,0.0109315356987324
766,0.0119388809654075
767,0.0129525391898183
768,0.0134366237159503
769,0.0138755760272751
770,0.0141508212185229
771,0.0142523678519367
772,0.0144061349285071
773,0.0145415237927989
774,0.0143902163447489
775,0.0143677969418072
776,0.0143820568582323
777,0.0141664107659079
778,0.0143099457457629
779,0.0141303816044023
780,0.0142724731027944
