"wavelength","measurement"
380,0.0019933002838314
381,0.00201431457090088
382,0.00199289406867703
383,0.00198988263964258
384,0.00202907654474431
385,0.00225284879431542
386,0.00239744993016213
387,0.00251770155162981
388,0.00266541753360924
389,0.00277517433184164
390,0.00277727767124736
391,0.00284470869852209
392,0.00286273277061644
393,0.00295148949512171
394,0.00311885107373489
395,0.0032696403241099
396,0.00370807411891931
397,0.00413499487929115
398,0.004561915639663
399,0.00498883640003484
400,0.00539403359860677
401,0.00579604646263455
402,0.00611090670175351
403,0.00630599964241606
404,0.00650893836361589
405,0.00650164918993804
406,0.00674008216858472
407,0.00691321010001544
408,0.00697390691243134
409,0.0071602687626312
410,0.00762768940939276
411,0.00770726325946266
412,0.00799980925973359
413,0.00828241745706348
414,0.00838667824260517
415,0.00847486426422028
416,0.00847195627735142
417,0.008517348099066
418,0.00870401002421275
419,0.00857336738966541
420,0.00878594751702015
421,0.00880215867974365
422,0.00886283335438777
423,0.00908853689709959
424,0.00911851671252872
425,0.00901504925577083
426,0.00890551504746357
427,0.00877454400922781
428,0.00845811697563842
429,0.00852204035325661
430,0.00862909233370344
431,0.00908915110563957
432,0.00970809512596426
433,0.0104103632757826
434,0.011104246296701
435,0.011393203876645
436,0.0114840588325138
437,0.0113563860818619
438,0.01122871333121
439,0.0111010405805581
440,0.0110720441011018
441,0.0113041634525677
442,0.0115099281569998
443,0.0116852217969883
444,0.0119155226096551
445,0.0121458234223219
446,0.0123761242349887
447,0.0126111333303943
448,0.0126982039371845
449,0.0132638111406595
450,0.0132511748362672
451,0.013165036277844
452,0.0131303910886782
453,0.0130957458995124
454,0.0130611007103466
455,0.0130675821393771
456,0.0130455210787995
457,0.0132889839818147
458,0.0132850503758061
459,0.0135186803193678
460,0.0135069569363825
461,0.0133601185085568
462,0.0137831218651609
463,0.0134374354735965
464,0.013274930406456
465,0.0132281573619719
466,0.013039845804077
467,0.0129964005248895
468,0.012900897009976
469,0.012809367153745
470,0.0130445407179356
471,0.0130395986083745
472,0.013108072471533
473,0.0132901914295816
474,0.0133380661832973
475,0.0135695152390212
476,0.0132394225809705
477,0.0132830403873241
478,0.0133266581936778
479,0.0133702760000315
480,0.0133936606160033
481,0.0131394486485518
482,0.0130030706288008
483,0.0131052755842335
484,0.0128883702702944
485,0.0127352001272811
486,0.0128918034465216
487,0.0129963556304884
488,0.0131050022357088
489,0.0134240820575236
490,0.013454460469902
491,0.0135278039808798
492,0.013831936110903
493,0.0136038200758627
494,0.0137983440377615
495,0.0135830910242571
496,0.013606280281291
497,0.0133916641670252
498,0.0134323803072577
499,0.013051801603864
500,0.0131346592039684
501,0.0130013218924286
502,0.0131593673663569
503,0.0131840531411251
504,0.0130995488063139
505,0.0135147651568679
506,0.0134583715857304
507,0.0135425940183084
508,0.0136419534015015
509,0.0136952929792905
510,0.0135348444689208
511,0.0137693361582985
512,0.0137013844540151
513,0.0133326338507346
514,0.0133418836277164
515,0.0131538149429772
516,0.0131012755047561
517,0.0130801792818648
518,0.0131216579804269
519,0.0133890826798434
520,0.0136553613672213
521,0.0138677748108176
522,0.0140801882544139
523,0.0142926016980102
524,0.0142603338777291
525,0.0143554869552766
526,0.0144379484388325
527,0.0143579776593953
528,0.0145063982943338
529,0.0147696630073699
530,0.014800452576863
531,0.0149145239120037
532,0.0149095341826891
533,0.0151144333268797
534,0.015277717399996
535,0.0152437540254869
536,0.0156525365254491
537,0.0158598210691369
538,0.0161122393634313
539,0.0165392503176033
540,0.0170056975717164
541,0.0173070210430465
542,0.0176264187811923
543,0.0179661567560416
544,0.0182598690685207
545,0.0181044855609156
546,0.0182027971431575
547,0.0177402825541661
548,0.0172777679651746
549,0.0168152533761832
550,0.0161490432115209
551,0.0159092396901932
552,0.0156998427074484
553,0.0153586225501272
554,0.0151487005045846
555,0.0151777526684301
556,0.0148902314730649
557,0.0148025516537182
558,0.0146026180754182
559,0.0144660181878801
560,0.0145439300863226
561,0.0143197925151239
562,0.0145336051467819
563,0.0142901700988729
564,0.0143318937808511
565,0.0140967639715519
566,0.0140350917285063
567,0.0138510648773099
568,0.0138797571484132
569,0.0136628819427258
570,0.0136447498851391
571,0.0136809876979245
572,0.0136480766007582
573,0.0136348198233092
574,0.0137702732370616
575,0.0136489486442945
576,0.0137433783480956
577,0.0138378080518967
578,0.0139322377556978
579,0.0140266674594989
580,0.0141210971633
581,0.0142391529081607
582,0.0141877876294931
583,0.0142607223759172
584,0.0140382244249162
585,0.0140668659525729
586,0.0136617937605609
587,0.0134358023764192
588,0.0132160657184382
589,0.0129963290604571
590,0.012776592402476
591,0.012726631166619
592,0.0127864148668988
593,0.0127203365863396
594,0.0128014416539095
595,0.0126898980988713
596,0.0127062582926879
597,0.0127069878536238
598,0.0127184290723343
599,0.0127203576280182
600,0.0128009709435944
601,0.0127719001193375
602,0.0128042436424345
603,0.0127163448166337
604,0.012826114049698
605,0.0127838902377095
606,0.0130305134350241
607,0.0135842788614383
608,0.014193163280646
609,0.0150017387498302
610,0.0154660777822239
611,0.0157161055761833
612,0.0154303676293782
613,0.0147541840304602
614,0.0138931005736723
615,0.0133176855065784
616,0.012795414327594
617,0.0125075799964333
618,0.0122932055910507
619,0.0121315560878592
620,0.0120300458216176
621,0.0120919061782661
622,0.0118121262607156
623,0.0117772519544732
624,0.0116845692325899
625,0.0115918865107065
626,0.0114992037888231
627,0.0114875886856528
628,0.0114629999119177
629,0.0114066205388226
630,0.0114613983136515
631,0.0112330066628567
632,0.0110769693032777
633,0.0110111953522412
634,0.010876987588164
635,0.0108397115399836
636,0.0106842865347302
637,0.0106775911228085
638,0.0105212008095887
639,0.0105277492111593
640,0.0104483991345695
641,0.0103721239634568
642,0.010253137213916
643,0.0101072897536387
644,0.00996144229336139
645,0.00981559483308411
646,0.00986247125875991
647,0.00975864626813833
648,0.00953783007723999
649,0.00969643621683199
650,0.00954473236293719
651,0.00961393675145706
652,0.00945052677331752
653,0.00924957468927692
654,0.00902179057764793
655,0.00904451220997517
656,0.00891469616661893
657,0.00895159375460678
658,0.00904067457258806
659,0.0092916094137267
660,0.00929786183400721
661,0.00928956749521846
662,0.00931185750550873
663,0.00921564142116848
664,0.00910700373551056
665,0.00908498445328467
666,0.00902355040510751
667,0.00900173101443267
668,0.00896796608436536
669,0.00879348519100447
670,0.00876844435166003
671,0.008725395408681
672,0.00866533400961768
673,0.00864228191996277
674,0.00860648188035322
675,0.00858963823291883
676,0.00851936871478148
677,0.00858309749450719
678,0.00848323384288233
679,0.00841463014524998
680,0.0086157250166349
681,0.00841693102007362
682,0.00829631964439733
683,0.00814018159953514
684,0.00794937330109392
685,0.00771576591999102
686,0.00764538813811741
687,0.00754941350983259
688,0.00747959011797216
689,0.0075399324826867
690,0.00762599582990645
691,0.00783529762153195
692,0.00782871082404613
693,0.0079405054994281
694,0.00817588500158323
695,0.0082345431468163
696,0.00847997145872818
697,0.0085895351187408
698,0.00857860526017489
699,0.00872116316342908
700,0.00894339023683673
701,0.00898805359283656
702,0.00930053997150573
703,0.00951761402565007
704,0.00986131925058997
705,0.00999458178185623
706,0.0103163915939254
707,0.010580549708512
708,0.0107447420189738
709,0.0109526732030454
710,0.0108649160845961
711,0.0109550590100139
712,0.0110203034796486
713,0.0106264866642224
714,0.0103707235711295
715,0.00986792045414661
716,0.00933622123714606
717,0.00905934751701164
718,0.00900489013146499
719,0.0091411579996414
720,0.00933730309466917
721,0.00927460890188568
722,0.00964676191718996
723,0.00965135741184453
724,0.00961212229584278
725,0.00971985342845993
726,0.00970486031440034
727,0.00988883829824227
728,0.0100808429392849
729,0.0102914037383927
730,0.0106110462476452
731,0.0110215507260806
732,0.0113986579633807
733,0.0117794119174571
734,0.0120632320777855
735,0.012176655263336
736,0.0123518770365924
737,0.012472391200602
738,0.0125929053646116
739,0.0127134195286212
740,0.0129694898121843
741,0.0130441822553203
742,0.0131483715468463
743,0.0132525608383723
744,0.0133567501298983
745,0.0133816793220665
746,0.0133321383294733
747,0.0134343392737458
748,0.0132147542182052
749,0.0132414882534403
750,0.0132159539171559
751,0.0130587527543806
752,0.013278959347078
753,0.0130285210846519
754,0.0129560592110893
755,0.0121891176528539
756,0.0114221760946185
757,0.0106552345363832
758,0.0094170861999116
759,0.00829830311891491
760,0.00750508031819006
761,0.00730166497812875
762,0.00751695181690689
763,0.0079944111962232
764,0.00863181326441069
765,0.00929610937538351
766,0.0100911943442941
767,0.0108574486182931
768,0.0112577561543933
769,0.0115479862598192
770,0.0118048243957151
771,0.0118866195680054
772,0.0119929044515789
773,0.0121252114790702
774,0.0119558576700851
775,0.0119499011403907
776,0.0119682274781913
777,0.0118460099476703
778,0.0119010199198307
779,0.0117248508271136
780,0.0118920829276347
