"wavelength","measurement"
380,0.0255056559154327
381,0.0252199258779375
382,0.0244983309277266
383,0.0240771026830811
384,0.0244016650396187
385,0.0255103170876568
386,0.0272285900470152
387,0.0289350689493608
388,0.0299915747629531
389,0.0317094281333978
390,0.0313233524881224
391,0.0319145787158491
392,0.0323726515230811
393,0.0330368706770005
394,0.0339684843383774
395,0.0362026961895861
396,0.041276663542093
397,0.0467857277870202
398,0.0522947920319474
399,0.0578038562768746
400,0.061864757322765
401,0.0671299730118539
402,0.0708125330519273
403,0.0732139555820955
404,0.0747443337447766
405,0.0762908885147834
406,0.0781210568435151
407,0.0801484290211043
408,0.081482979377216
409,0.0842562613111597
410,0.0890942149661794
411,0.0899193445270907
412,0.0936635227274237
413,0.0962291694641487
414,0.0970759007721013
415,0.0989951158883155
416,0.0984572629063844
417,0.0980761747869489
418,0.0997737798302137
419,0.0987448329104901
420,0.100448475854082
421,0.100797596695234
422,0.101297380685615
423,0.102276090650492
424,0.102681492549156
425,0.100607616466853
426,0.100058471113593
427,0.0975443133302367
428,0.0943396149014585
429,0.0936283705612895
430,0.0939499222202103
431,0.0966848653071349
432,0.100178734960884
433,0.103380118694693
434,0.108166265998377
435,0.110483148305557
436,0.111291363655142
437,0.1129985372725
438,0.114705710889859
439,0.116412884507218
440,0.117385771446972
441,0.119412828251641
442,0.122434987415999
443,0.123015652371313
444,0.124766863543237
445,0.12651807471516
446,0.128269285887083
447,0.130222154215433
448,0.130437954437216
449,0.135666949097876
450,0.13493205635922
451,0.133984468268812
452,0.133441212041884
453,0.132897955814957
454,0.132354699588029
455,0.132642477652518
456,0.132131096541627
457,0.133470010306906
458,0.134409278779448
459,0.136163256533687
460,0.136011469088185
461,0.134932296151011
462,0.138615203756352
463,0.135052928372772
464,0.133972218449904
465,0.132937213662492
466,0.131303449041063
467,0.131015653315764
468,0.129517801780081
469,0.128345869418637
470,0.131232421175343
471,0.131199708242745
472,0.13216120715837
473,0.134184379617068
474,0.135116412776975
475,0.13725709307649
476,0.134508172145354
477,0.134630517459539
478,0.134752862773724
479,0.134875208087909
480,0.134986786542522
481,0.132275942461595
482,0.129964195301633
483,0.129023966283539
484,0.125629273384167
485,0.122701906593617
486,0.123235711943869
487,0.124026707022215
488,0.12499377999503
489,0.128528465301863
490,0.128961171103299
491,0.130382826763699
492,0.133636379762024
493,0.132214723035713
494,0.134362045098947
495,0.132696679311692
496,0.133341288887861
497,0.131085053284733
498,0.131546397563445
499,0.128780521429258
500,0.129204506350735
501,0.128036380582638
502,0.13029807003261
503,0.130216346381735
504,0.129166723854521
505,0.133123035684074
506,0.132476665668275
507,0.133290269645349
508,0.134079461431103
509,0.134080789510764
510,0.131995424613805
511,0.133905161282375
512,0.133214657582017
513,0.129348957953871
514,0.128718808098117
515,0.126368912992231
516,0.124978248742917
517,0.124553694553918
518,0.123864306882219
519,0.126281316617436
520,0.128744969595813
521,0.130387348581779
522,0.132029727567746
523,0.133672106553712
524,0.133368859369009
525,0.133460504618355
526,0.134086118732271
527,0.132996116477047
528,0.134313396736655
529,0.136080800581364
530,0.136415028042303
531,0.136725382470921
532,0.13622277804534
533,0.137346670433438
534,0.137821153631872
535,0.136049411648816
536,0.137559144342072
537,0.136903520914736
538,0.135744285173587
539,0.134931831985213
540,0.135634599984769
541,0.134475001214299
542,0.133695532325703
543,0.134183973627206
544,0.135458657935368
545,0.134761219476551
546,0.135590767835053
547,0.135490698142805
548,0.135390628450557
549,0.13529055875831
550,0.134533256609891
551,0.135387192126853
552,0.136619623789472
553,0.135174513636103
554,0.134677684824795
555,0.136141309994255
556,0.134165330119447
557,0.13412358691281
558,0.13308473890251
559,0.132018124834849
560,0.133644703346133
561,0.131049690796858
562,0.133329279545972
563,0.131376109438378
564,0.132017935229638
565,0.130283212194833
566,0.129385184376642
567,0.1277584725297
568,0.128793533888424
569,0.127182160521474
570,0.127180261736243
571,0.127328991206179
572,0.127546375873931
573,0.127244380095283
574,0.128118706199534
575,0.126492493009427
576,0.126849186664856
577,0.127205880320284
578,0.127562573975711
579,0.12791926763114
580,0.128275961286568
581,0.130011278693557
582,0.129180121723064
583,0.129808827017543
584,0.127859983471125
585,0.127291154990808
586,0.123721653090293
587,0.121763857710432
588,0.120278047654086
589,0.118792237597739
590,0.117306427541393
591,0.117684321712355
592,0.119158008912687
593,0.119336091596547
594,0.121230988660737
595,0.121294310604189
596,0.122499998203785
597,0.123186397291924
598,0.123544035350667
599,0.12379855434376
600,0.124983019276616
601,0.125849264589613
602,0.12670893691337
603,0.126207033295623
604,0.127353952583399
605,0.12702498407454
606,0.127149339330448
607,0.126495479231974
608,0.125133753155253
609,0.125345617920759
610,0.124343873648238
611,0.123760879455383
612,0.122166641497166
613,0.122114330615778
614,0.120608690612874
615,0.121863505620336
616,0.12060929394265
617,0.121370344715886
618,0.121481395752776
619,0.122042870884849
620,0.121347323237451
621,0.12242760362105
622,0.120200384378012
623,0.120620006632031
624,0.119880459523709
625,0.119140912415387
626,0.118401365307065
627,0.11819133764601
628,0.118072745982701
629,0.11756111683346
630,0.118483117188702
631,0.116863449745269
632,0.117581269918235
633,0.118343611329146
634,0.118519345526173
635,0.118972538377612
636,0.118039082642089
637,0.119077708463615
638,0.118498201312623
639,0.118564915929505
640,0.118134117875134
641,0.117464954125857
642,0.117323750448858
643,0.116334172814377
644,0.115344595179895
645,0.114355017545414
646,0.114509439324176
647,0.114106665418683
648,0.112106777941306
649,0.113710817267026
650,0.11246440255938
651,0.114337077463416
652,0.112818243729117
653,0.111259692146148
654,0.109131482297235
655,0.11043374445527
656,0.109039099572509
657,0.109716819392014
658,0.111610792044163
659,0.114334411972509
660,0.115613691022612
661,0.116296889914498
662,0.116858421918653
663,0.116830018848632
664,0.116082793218517
665,0.116158319875293
666,0.116438972619683
667,0.116855643136487
668,0.116707161028332
669,0.115294513941084
670,0.115720836707651
671,0.115457359856257
672,0.11493204849973
673,0.115239646876709
674,0.115614070653346
675,0.115316372761744
676,0.115309301217722
677,0.116247234733409
678,0.114974229224437
679,0.115080506766239
680,0.117702897953913
681,0.115340558406809
682,0.113494300298414
683,0.112328902826442
684,0.108750739697202
685,0.10621609636086
686,0.104240267013438
687,0.101764185526457
688,0.101229317060752
689,0.101469308039826
690,0.102737372470989
691,0.104456704052162
692,0.104954334782744
693,0.105839431846036
694,0.107744810889373
695,0.108142879770925
696,0.110239013250578
697,0.11199052163202
698,0.110901099858802
699,0.111845241554312
700,0.114238569271201
701,0.113922062689437
702,0.116785869288709
703,0.118379570670222
704,0.121194040593337
705,0.12207111554246
706,0.124756196838997
707,0.127460094572508
708,0.128439786776652
709,0.13133146212095
710,0.131412237423888
711,0.132763647499478
712,0.13408067647843
713,0.129712041329829
714,0.127816130548655
715,0.121602892655512
716,0.116614089781998
717,0.112344506320109
718,0.111768236411228
719,0.112922426580267
720,0.115661121593971
721,0.115863475037747
722,0.1206826613906
723,0.12097130046512
724,0.121464285083067
725,0.122582576271612
726,0.122976337983314
727,0.125873986302579
728,0.128118095915586
729,0.132254136340266
730,0.136894559903743
731,0.142557167654252
732,0.148005577945653
733,0.15505247160355
734,0.158869066026463
735,0.16161701090847
736,0.165690419002127
737,0.168100743076089
738,0.170511067150052
739,0.172921391224014
740,0.177797228070773
741,0.179539440279946
742,0.182052854229486
743,0.184566268179026
744,0.187079682128566
745,0.18851499124934
746,0.189396543512754
747,0.191280770687167
748,0.190014927031664
749,0.19110590578045
750,0.192680956871224
751,0.192000484878239
752,0.195641992351941
753,0.1944239269111
754,0.193240090763018
755,0.182936402870166
756,0.172632714977315
757,0.162329027084463
758,0.144247580771609
759,0.127944018028959
760,0.114635195207497
761,0.111164132188682
762,0.114542587339794
763,0.121867049737816
764,0.132706150779648
765,0.143539608111442
766,0.157052206213606
767,0.170909098176408
768,0.178430796318927
769,0.184378581971615
770,0.189764098406621
771,0.191592063782124
772,0.193975154239662
773,0.196538674797495
774,0.19568895482157
775,0.196125234821329
776,0.196666293368411
777,0.194899346063066
778,0.197724167680862
779,0.195471602227011
780,0.198264904974148
