"wavelength","measurement"
380,0.00585025022677896
381,0.00582554467474367
382,0.00584096675074749
383,0.00576750393395421
384,0.00571142114073886
385,0.00629206010479611
386,0.00667825222829668
387,0.00701642383746087
388,0.00737555766617172
389,0.0076977338290027
390,0.00770811748901501
391,0.00772826627414445
392,0.00781276473545548
393,0.00785214425177957
394,0.00823124311858779
395,0.00857910253674408
396,0.00948627743953649
397,0.0105649541503044
398,0.0116436308610723
399,0.0127223075718403
400,0.0135110342137971
401,0.0141857062396893
402,0.0147751535152041
403,0.0148549298315778
404,0.0150237005678644
405,0.0149225304540241
406,0.0152401631377293
407,0.0152500138161261
408,0.0152915974917313
409,0.015565192019865
410,0.0161890315469517
411,0.0161147571830593
412,0.0165484448938854
413,0.0169494053570693
414,0.0168194127648173
415,0.0169435626400013
416,0.0167064559219435
417,0.0165901211768069
418,0.0166841433290974
419,0.0163586000835622
420,0.0167260984627409
421,0.0166569272692144
422,0.0166979284839535
423,0.0168130779842347
424,0.016983710186463
425,0.0164603045195903
426,0.0162554645572875
427,0.0157653099493681
428,0.0152682398054685
429,0.015199061866809
430,0.0151288083306466
431,0.0157727065291921
432,0.016302444359663
433,0.016953351435948
434,0.0176433968852567
435,0.0180332415957021
436,0.0181868314785908
437,0.0183409676190076
438,0.0184951037594243
439,0.018649239899841
440,0.0186084136953589
441,0.0189760124357328
442,0.0193405518906613
443,0.0194588371240205
444,0.0197275467840691
445,0.0199962564441176
446,0.0202649661041662
447,0.0206072794622022
448,0.0206387073097049
449,0.0214656309789036
450,0.0213638109631668
451,0.0211858412500921
452,0.0211186543376398
453,0.0210514674251876
454,0.0209842805127353
455,0.0209857049503487
456,0.0209989027621743
457,0.0211700888240929
458,0.0213034690095889
459,0.0215816611046743
460,0.021553024268397
461,0.0213006538569936
462,0.0219737502751861
463,0.0212965578359159
464,0.0211207264460238
465,0.0208974802340264
466,0.0205875504021153
467,0.0204984168692786
468,0.0202785073929593
469,0.0200808089527535
470,0.0205046487581375
471,0.0204122190044385
472,0.0205227597269927
473,0.0207426910749613
474,0.0207840265008196
475,0.0210628602550434
476,0.0206108960046053
477,0.0206069279680966
478,0.020602959931588
479,0.0205989918950794
480,0.0205134038999552
481,0.0200132282476353
482,0.0196846574412919
483,0.0194832951728661
484,0.0191127280177749
485,0.0186931678852895
486,0.0188360256938091
487,0.0189728126931849
488,0.0190490426987624
489,0.0195806381920355
490,0.0196267002054263
491,0.0198133263200203
492,0.0202141080880338
493,0.019946237722057
494,0.0201682400993517
495,0.0199237382160309
496,0.0199201817078979
497,0.0195723923826096
498,0.0196121371198055
499,0.0191369014983157
500,0.0192120566384923
501,0.0190012521325031
502,0.0192354931090329
503,0.0192687576238201
504,0.019072649747542
505,0.0196315063785107
506,0.0195225737256846
507,0.0196413174487745
508,0.0197575545835805
509,0.0197168244597324
510,0.0194572064260388
511,0.0197225122891746
512,0.0195935255905237
513,0.0190157964556067
514,0.0189198110247782
515,0.0185941760152665
516,0.0184819771418925
517,0.0183881823370684
518,0.0184043064581088
519,0.0186873511887029
520,0.0190342113141705
521,0.0192853216263762
522,0.019536431938582
523,0.0197875422507877
524,0.019672478009769
525,0.0197797880423677
526,0.019806517285968
527,0.0196787211364484
528,0.0198678498295593
529,0.0201762144441064
530,0.0201606575328835
531,0.02024015516821
532,0.0201573069266092
533,0.0203886988773455
534,0.0204943055158658
535,0.020243702165005
536,0.0204350905062239
537,0.0204854760963855
538,0.0204592761025747
539,0.0205525683312176
540,0.0209373554136352
541,0.0210391058526218
542,0.0212215890075627
543,0.0214225837976917
544,0.0216030143270479
545,0.0213152072783486
546,0.0212854465414814
547,0.0210037929087808
548,0.0207221392760803
549,0.0204404856433797
550,0.0201016581483057
551,0.0202134935439522
552,0.0202593390438459
553,0.019954757947996
554,0.019814949355084
555,0.0199272259289333
556,0.0195480035702991
557,0.0195108150677169
558,0.0193495276661426
559,0.0190662239140445
560,0.0193202084082203
561,0.0189010168633413
562,0.0192363338900104
563,0.0189150355638479
564,0.0189440988957083
565,0.0186328562322038
566,0.0184662322431649
567,0.0181633700258541
568,0.0182307983904348
569,0.0179682079476939
570,0.0179370367161768
571,0.0179251285494198
572,0.017865880949973
573,0.0178131245717995
574,0.0179292716144315
575,0.0177040528315985
576,0.0177282417024488
577,0.0177524305732991
578,0.0177766194441494
579,0.0178008083149997
580,0.01782499718585
581,0.0180160997562982
582,0.0178564812734979
583,0.0179287689640558
584,0.017579583848621
585,0.0174203203268849
586,0.01684291199611
587,0.0164205497214295
588,0.0161255156974898
589,0.0158304816735501
590,0.0155354476496104
591,0.0155128869618404
592,0.0156081851293906
593,0.0155712472920479
594,0.0157036878007593
595,0.0156321890419426
596,0.0157235227360639
597,0.0157787702670848
598,0.0157862219657795
599,0.0158312167389901
600,0.015999164611171
601,0.0159911067885047
602,0.0160847157018767
603,0.0159644287716481
604,0.0160207535102126
605,0.0159525700862048
606,0.0160529867218124
607,0.0161693560530317
608,0.0161846167718845
609,0.0164503051451708
610,0.0165238194844065
611,0.016525717566944
612,0.0162953300955358
613,0.0159196351344406
614,0.0154406205018668
615,0.0152713730650757
616,0.0149302211466432
617,0.0149279227716495
618,0.0147921612961403
619,0.0147369701502225
620,0.0146332006652474
621,0.0146923392772914
622,0.0143151549877229
623,0.0141600985773671
624,0.0140071958884234
625,0.0138542931994797
626,0.0137013905105359
627,0.01361613813224
628,0.013566342985721
629,0.0134764236302525
630,0.0135596855323919
631,0.0132701094998725
632,0.0132319570574094
633,0.0132773308214712
634,0.0132037889355048
635,0.0131887253402721
636,0.0130158120687809
637,0.0130686407955481
638,0.0129380369875851
639,0.0129357994966153
640,0.012776809784818
641,0.01267846026582
642,0.0125602901512431
643,0.0123713615132509
644,0.0121824328752587
645,0.0119935042372665
646,0.011969183770016
647,0.0118553718608088
648,0.011586164469886
649,0.0117488334930836
650,0.0116010883833273
651,0.0116381135857693
652,0.0114418256670484
653,0.0112046591380059
654,0.0109889372154731
655,0.0110320962783466
656,0.0108836652285703
657,0.0109454384080218
658,0.0110440658238687
659,0.0112873127710158
660,0.0113058385168562
661,0.0113897174274045
662,0.0113732100013921
663,0.0112894035933032
664,0.0112005438199186
665,0.011150833728684
666,0.0110987128063422
667,0.0110732896365538
668,0.0110400874329506
669,0.0108235441060118
670,0.0108238769366643
671,0.0107357079852436
672,0.010687396054791
673,0.0106589278239514
674,0.0106208749106861
675,0.0105874199077033
676,0.010536860370218
677,0.0105564471273531
678,0.0104130026071674
679,0.0103438302043828
680,0.0105459578137219
681,0.0103428373050353
682,0.0100766167946945
683,0.00982357669762546
684,0.00954753227802331
685,0.00926589264775769
686,0.00906866525446153
687,0.00889682208471644
688,0.00879386722487637
689,0.00873415363811164
690,0.00886326656675832
691,0.00900169652126003
692,0.00899402026480406
693,0.00912400548307911
694,0.00928229824667199
695,0.00931861194868839
696,0.00956757075200466
697,0.0096368513310235
698,0.00958430941386301
699,0.00968570608199627
700,0.00988817427270184
701,0.00992284980518472
702,0.0101659005406813
703,0.0103814302049661
704,0.010665525496022
705,0.0107678209347991
706,0.0110405925530709
707,0.0112583558864005
708,0.0114311428354574
709,0.0116670956302469
710,0.0116547281637205
711,0.0116876837602505
712,0.0117844277984217
713,0.0113436354999199
714,0.0111056337452312
715,0.0104794411301024
716,0.00995296201867104
717,0.00957761372911459
718,0.00956762903175643
719,0.00971188669440123
720,0.00986065751627931
721,0.00993977247741511
722,0.0102707851876246
723,0.0103126572875893
724,0.0103380346360075
725,0.010442018587152
726,0.010434203989591
727,0.0107451531365251
728,0.0109278790148213
729,0.0112341871929544
730,0.0116963349855794
731,0.0122151542700771
732,0.0126594795242641
733,0.0131729253390291
734,0.0135278261862207
735,0.0138227660506452
736,0.0140110128818939
737,0.0142171847632592
738,0.0144233566446246
739,0.0146295285259899
740,0.0149335978635017
741,0.0151565302985942
742,0.015282655376164
743,0.0154087804537338
744,0.0155349055313036
745,0.0157278815419824
746,0.0156324917771599
747,0.0156865255857642
748,0.0155775832817546
749,0.015687292311182
750,0.0156042311599908
751,0.0155862596375766
752,0.0157252288104897
753,0.0155084635416552
754,0.0153973209681621
755,0.0145045207387072
756,0.0136117205092523
757,0.0127189202797974
758,0.011237447948944
759,0.00989161951164753
760,0.00884409671573373
761,0.00857258942024955
762,0.00882542970433547
763,0.00936004073796158
764,0.0101853835162948
765,0.0110281599486727
766,0.0120043881277101
767,0.0129632317419533
768,0.0135410849744969
769,0.0138166484582233
770,0.0142203847477846
771,0.0142630958690267
772,0.0143707212533225
773,0.014587949999448
774,0.0143631891681591
775,0.0143979005518985
776,0.0144323186859668
777,0.0141966583179561
778,0.0143533908031421
779,0.0141342538171914
780,0.0143016062913058
