"wavelength","measurement"
380,0.00199316890572095
381,0.00206066914753824
382,0.00200811203313757
383,0.00204987864341508
384,0.00203270586504551
385,0.00222355147568491
386,0.00235748470896301
387,0.00251770155162981
388,0.00259556817155294
389,0.00276962141703992
390,0.00281267093420278
391,0.00282437793592984
392,0.00290915303630902
393,0.00298824909042582
394,0.00309292579327261
395,0.00334195083610198
396,0.00370278396033849
397,0.00414383954563805
398,0.00458489513093761
399,0.00502595071623717
400,0.00540629555558217
401,0.00582944387312871
402,0.00617148952775269
403,0.0063890919180058
404,0.00657006421913826
405,0.00666473321771088
406,0.00683379855403957
407,0.00699377772624935
408,0.00707012824052545
409,0.00734473676751507
410,0.00777177178312407
411,0.00786452285767218
412,0.00818927839135528
413,0.00853336607028817
414,0.00858919322059462
415,0.00872671610195432
416,0.00875561913489594
417,0.00871520353340479
418,0.00897149585709043
419,0.00878028791362531
420,0.00908500788910949
421,0.00912336940125497
422,0.00919471088365011
423,0.00925144575405849
424,0.00944499131699878
425,0.00927139422488229
426,0.00916653707730707
427,0.00898137694778074
428,0.00868237393608988
429,0.00875933549635271
430,0.00895631141413272
431,0.00935654935311029
432,0.0100397285109047
433,0.0107607596445306
434,0.0115135055330188
435,0.0118111570594219
436,0.0118128325539168
437,0.0116831161437689
438,0.0115533997336211
439,0.0114236833234733
440,0.0114009448213449
441,0.011586188463002
442,0.0118011277388138
443,0.0120092878027668
444,0.0122432613634991
445,0.0124772349242314
446,0.0127112084849637
447,0.0129567891389902
448,0.0130550838156832
449,0.0136027666656224
450,0.0135597163286607
451,0.0134544710137076
452,0.0134215906704922
453,0.0133887103272768
454,0.0133558299840614
455,0.0134078295490927
456,0.013377469771205
457,0.0135465376295423
458,0.0136337804321865
459,0.0138457505046052
460,0.0138669439071934
461,0.0137275918420282
462,0.0141258435626234
463,0.0137028718079511
464,0.0135773518685377
465,0.0134711630736023
466,0.0132958229144792
467,0.0132780095046406
468,0.0131994143525421
469,0.0130469425701434
470,0.013293292032263
471,0.0133372488554117
472,0.0133682230265772
473,0.0135453364786176
474,0.0135789523280791
475,0.0138224181016388
476,0.013529395967087
477,0.013557890693171
478,0.013586385419255
479,0.013614880145339
480,0.01363548830391
481,0.0133789246682814
482,0.0132892997387694
483,0.0134114741669907
484,0.0131495849880332
485,0.0129868330014978
486,0.0131558077594723
487,0.0132624313383139
488,0.0133949318291218
489,0.0136788242136876
490,0.0137382371884756
491,0.0138152242523832
492,0.0140786291681666
493,0.0138678572333411
494,0.0140532350891173
495,0.0138207277504404
496,0.0137828524617368
497,0.0135600033192161
498,0.0136405182683745
499,0.013252777268326
500,0.0133196483420237
501,0.0131532256430021
502,0.0133798088875173
503,0.0133857886089925
504,0.0132959152887343
505,0.0137149153288692
506,0.0136457605639366
507,0.0137310953311831
508,0.0138161607759591
509,0.0138677836797716
510,0.0136777181640359
511,0.0139029476966269
512,0.0138639648656979
513,0.0134961952189755
514,0.0134541900158
515,0.0132617289229014
516,0.0131926621183857
517,0.0131866393440334
518,0.0131962544715409
519,0.0134806094301241
520,0.0137704485919761
521,0.0139714248411793
522,0.0141724010903825
523,0.0143733773395857
524,0.0143246566006058
525,0.014411296376596
526,0.0145230814544046
527,0.0144191779625136
528,0.0145845463737003
529,0.0148157767241381
530,0.0148770722908778
531,0.0149324964375133
532,0.014924668941013
533,0.0151428109987371
534,0.0153392023556869
535,0.0152910501452492
536,0.0156677413520986
537,0.0159204028003185
538,0.0162756912499134
539,0.0167074537124133
540,0.0171682473285067
541,0.0175260896629528
542,0.0178354851476229
543,0.0181857333713082
544,0.0185042673881218
545,0.0183615706267159
546,0.0184738958740726
547,0.0179625889146165
548,0.0174512819551605
549,0.0169399749957045
550,0.0162264687112799
551,0.0159769870024823
552,0.0157351571435375
553,0.0153997548468742
554,0.0151487005045846
555,0.0151875184413069
556,0.0148719261230088
557,0.0147578666739012
558,0.0146074571691532
559,0.0144137515962725
560,0.0145199535811654
561,0.0142885770760808
562,0.0145021006758959
563,0.0142901700988729
564,0.0143118454811963
565,0.014074061834066
566,0.0139940404482608
567,0.0138368760413812
568,0.0138702103390538
569,0.0136542898143023
570,0.0136494794971153
571,0.0136503765981895
572,0.0136433141442543
573,0.0136339001765361
574,0.013764306481212
575,0.0136281383515991
576,0.013725167590279
577,0.0138221968289589
578,0.0139192260676388
579,0.0140162553063187
580,0.0141132845449986
581,0.014288813833911
582,0.0142104372157348
583,0.0143103833016675
584,0.014130154068069
585,0.0141567285801212
586,0.013746926776133
587,0.0135070750013387
588,0.0132787257783392
589,0.0130503765553397
590,0.0128220273323402
591,0.0127828215844588
592,0.0128213395479269
593,0.0127348056955706
594,0.0128062807476444
595,0.012680176118698
596,0.0126984807085492
597,0.0127108416115304
598,0.0127096792901783
599,0.0126873028954288
600,0.0127458052750162
601,0.0127699644818435
602,0.0127790803550129
603,0.0126768569359026
604,0.0127920871190912
605,0.0127646214481767
606,0.0130526725429868
607,0.0135987304535879
608,0.0142519330887209
609,0.015147021043637
610,0.0156593437412376
611,0.0159132986458819
612,0.015644251193192
613,0.0148854307628005
614,0.0139419294380565
615,0.013360046188658
616,0.0127739734199684
617,0.0125016625073751
618,0.0122686816770999
619,0.0121316217769144
620,0.0120162511200202
621,0.0120347074334286
622,0.0117784759473588
623,0.0117673110107825
624,0.0116766106386101
625,0.0115859102664377
626,0.0114952098942654
627,0.0114497189453154
628,0.0114619401284934
629,0.0113990334529441
630,0.0114089653097707
631,0.0111637616401084
632,0.0110523753210013
633,0.0109490797816201
634,0.0108098095810202
635,0.0107713949225493
636,0.0106144065177815
637,0.0105991058396252
638,0.0104641564340309
639,0.0104836718551031
640,0.010383813655472
641,0.0103158590980212
642,0.0101894352526112
643,0.0100539173962681
644,0.00991839953992497
645,0.00978288168358188
646,0.00979073881045381
647,0.0097420532127884
648,0.00950143834064514
649,0.00963970714873937
650,0.00951485698062069
651,0.00955844263760268
652,0.00940250807394778
653,0.00921456242284181
654,0.00897284785223468
655,0.00904451220997517
656,0.00890339764912016
657,0.00894592259950566
658,0.00898435715590818
659,0.00921274313402313
660,0.00926573550673165
661,0.00926422903698286
662,0.00929162527649932
663,0.00919823382153376
664,0.00910229164061572
665,0.00906045616006351
666,0.00902119435766009
667,0.00894832581253445
668,0.00892031962297523
669,0.0087396858547749
670,0.00874919307920864
671,0.00868081443653472
672,0.00859758669732859
673,0.00858154144023105
674,0.00859126391589268
675,0.00852350249211794
676,0.00849603158309508
677,0.00855470668483879
678,0.00838443750382339
679,0.00834646680227779
680,0.00854659823418608
681,0.00836718250891628
682,0.00822263404151586
683,0.0080888302754303
684,0.00786376732432422
685,0.00768674887466281
686,0.00758505274089291
687,0.00747022754339359
688,0.00742467406780375
689,0.00740270366705057
690,0.00755266494792321
691,0.00770616607676993
692,0.00778982290335271
693,0.00786220414559947
694,0.00804750669132113
695,0.00813592635784164
696,0.00831981716281839
697,0.00843125952981047
698,0.00841431693305626
699,0.00852649364826871
700,0.0087581646181826
701,0.0087823680231149
702,0.00909881983108451
703,0.00925157335198735
704,0.00963156083176339
705,0.00974785369042977
706,0.0100482488704954
707,0.0102811389947948
708,0.0103979038073839
709,0.01060890923924
710,0.0105015680237929
711,0.0106350963805519
712,0.0106637345293447
713,0.0102506839585484
714,0.00999314288169413
715,0.00949005073286823
716,0.00903437126984482
717,0.008712299100445
718,0.00870592610332331
719,0.00878172938579995
720,0.00894737286285141
721,0.00890162644631607
722,0.00923181729314238
723,0.00919858465052784
724,0.00921755003745576
725,0.00925382899506912
726,0.00928515104421375
727,0.00943860551372764
728,0.00959624602034671
729,0.00981970377063042
730,0.010099547470957
731,0.0105213898803243
732,0.0108361363078639
733,0.0112263757615148
734,0.0114528931693349
735,0.0115709145887512
736,0.0117668503107553
737,0.0118770002016071
738,0.011987150092459
739,0.0120972999833108
740,0.0123169610131976
741,0.0124079837554626
742,0.0124925626743687
743,0.0125771415932747
744,0.0126617205121808
745,0.0127198270565082
746,0.0126547199474618
747,0.0127074329471626
748,0.0125339878840123
749,0.012562364145628
750,0.0125499763789294
751,0.0124400056468612
752,0.0126045517134309
753,0.0123985718035814
754,0.0122923895483364
755,0.0115615725912046
756,0.0108307556340729
757,0.0100999386769411
758,0.00892841218027909
759,0.00787298838268242
760,0.0071072630204749
761,0.00695723536523042
762,0.00716093027539647
763,0.00759370795934849
764,0.00823508640501227
765,0.00882918281230093
766,0.00958230561273356
767,0.0103636858865157
768,0.0107059680905003
769,0.0109429243721384
770,0.0111758385541212
771,0.0112848903050597
772,0.0113516566530096
773,0.0115009552494525
774,0.0113111852821034
775,0.0113457194860499
776,0.0113553704892904
777,0.0111253834947667
778,0.0113021853545853
779,0.0111012514880482
780,0.011202330330687
