"wavelength","measurement"
380,0.00130732169456368
381,0.00133103171467855
382,0.00128632927685164
383,0.00132999344628582
384,0.00128061471773205
385,0.0014488468158522
386,0.00156120407937243
387,0.00166826414890477
388,0.00172004989047542
389,0.0018471280094317
390,0.00186514471843762
391,0.00188689511891387
392,0.00197492838928635
393,0.00200501686093297
394,0.00213448607982017
395,0.00223173615525279
396,0.00253495086825976
397,0.00288792757331116
398,0.00324090427836257
399,0.00359388098341397
400,0.00390072073654346
401,0.00426707055571521
402,0.0046378056589097
403,0.00480537298311861
404,0.00503478927968138
405,0.00512105849984628
406,0.00531885538753344
407,0.0053967964915047
408,0.00549042757345334
409,0.00566132293405486
410,0.00601774262535713
411,0.00606325509737979
412,0.00641348596595111
413,0.00670130505209686
414,0.00675860503879557
415,0.00692165481514991
416,0.00699064620529403
417,0.00703234009448765
418,0.00716939359172995
419,0.00704103533257464
420,0.00731418494117561
421,0.00743975603664907
422,0.00747645281185503
423,0.00767984985619095
424,0.0077209884476179
425,0.0076802386610116
426,0.00768386619688226
427,0.00755128853845145
428,0.00728806161503145
429,0.00738451914649283
430,0.00758038741335159
431,0.00806405186398439
432,0.00883038879830533
433,0.00978863540132293
434,0.010731417597692
435,0.0110400054368634
436,0.0110090501093298
437,0.0106877969913586
438,0.0103665438733874
439,0.0100452907554163
440,0.00995253210072052
441,0.0100662888797382
442,0.0102567150800264
443,0.0104012156778555
444,0.0106191147514846
445,0.0108370138251136
446,0.0110549128987427
447,0.0112696374268366
448,0.0113476804806365
449,0.0118621771003583
450,0.011794651679536
451,0.0118587142151121
452,0.0118553200201221
453,0.0118519258251322
454,0.0118485316301423
455,0.0119286167484371
456,0.0119531902628974
457,0.0121407122681873
458,0.0122499822092395
459,0.012488349476194
460,0.0124888323549566
461,0.0123992757476865
462,0.0128314944171977
463,0.0124349694536116
464,0.0123856407017111
465,0.0123311566557711
466,0.012152649581917
467,0.012191315614997
468,0.0121089642625207
469,0.0119941875491235
470,0.0122685596799324
471,0.0123123734562003
472,0.0124086745527915
473,0.0125444649299699
474,0.0126572249220492
475,0.0128383744334343
476,0.0126005444071253
477,0.0126582684118707
478,0.0127159924166161
479,0.0127737164213615
480,0.0128716470829012
481,0.0127052248629071
482,0.0126745192142906
483,0.0128822239795061
484,0.0128031365861376
485,0.0126823408112925
486,0.0129359561550713
487,0.0130723767508212
488,0.0131876949361705
489,0.0134693803745747
490,0.0135213345561802
491,0.0135789552213693
492,0.0138376178019528
493,0.013618438928362
494,0.0137810532630946
495,0.0135564183196011
496,0.0135161463244949
497,0.013291242087191
498,0.0133211304074551
499,0.0130274156800163
500,0.0130723868989754
501,0.0128982515109952
502,0.0131091722421704
503,0.0131645871014531
504,0.0130342505159474
505,0.0134870038856648
506,0.0134502450969394
507,0.0135948887440466
508,0.0136659643463337
509,0.013740837177234
510,0.0135902226753278
511,0.0138885742367345
512,0.0138711728923397
513,0.0135250775417868
514,0.0135146460700429
515,0.0133652415856754
516,0.0133627429713205
517,0.0134113452479475
518,0.0134253167301942
519,0.0137786747010107
520,0.0141184137475817
521,0.014372436217069
522,0.0146264586865563
523,0.0148804811560436
524,0.0148987997864438
525,0.0150447948811009
526,0.0151924848490645
527,0.0151644016986915
528,0.015349466470325
529,0.0156568729169536
530,0.015749778281466
531,0.0158982123978671
532,0.0159450664643147
533,0.0162680456887553
534,0.0164997927801262
535,0.0166077016016515
536,0.0171347394971252
537,0.0175775492236895
538,0.0181856271652898
539,0.0189203693217155
540,0.0196700641128306
541,0.0203003464080533
542,0.0208436368164115
543,0.0214384234807456
544,0.0218643998674303
545,0.0217376444886996
546,0.0218451434981825
547,0.0210811353601121
548,0.0203171272220417
549,0.0195531190839713
550,0.0186051176930705
551,0.01811307260187
552,0.0177668348058527
553,0.0172316744377869
554,0.0169193019678373
555,0.0169297499469325
556,0.0165737631197302
557,0.0163891419335895
558,0.0162150625785415
559,0.0160612798122842
560,0.0161575387366239
561,0.0159086150039438
562,0.0161230123666032
563,0.0158759684727831
564,0.0159251444703193
565,0.0156810240541888
566,0.015578910186354
567,0.0153661005286569
568,0.015452290200198
569,0.0152384278809532
570,0.015199187915106
571,0.0152218703869424
572,0.0152315305157652
573,0.0152337835616925
574,0.015416495605336
575,0.015320330754106
576,0.0154479673362127
577,0.0155756039183195
578,0.0157032405004263
579,0.0158308770825331
580,0.0159585136646399
581,0.016187849519847
582,0.0161322981158456
583,0.0162703614101146
584,0.016082242264795
585,0.0161490560859966
586,0.0157358276026495
587,0.0155057815953215
588,0.0152451217050124
589,0.0149844618147033
590,0.0147238019243942
591,0.0146239432611505
592,0.0146759124756467
593,0.0145580080707914
594,0.0146102809565051
595,0.0144017564241343
596,0.0144404486531273
597,0.0144294090930021
598,0.014395771795867
599,0.0143781194975992
600,0.0143949474521912
601,0.0144382094298131
602,0.0144180297417413
603,0.0143292801715019
604,0.0144516647019688
605,0.0144576361988268
606,0.0149257159209194
607,0.0158241967526771
608,0.0169604264062113
609,0.0182801460839675
610,0.0191271958787452
611,0.0196471020203413
612,0.0192146324903828
613,0.018152279195411
614,0.0167543996314039
615,0.015866188320931
616,0.0149790516493623
617,0.0145479879048578
618,0.0141439355612341
619,0.0139974711810687
620,0.013856431616453
621,0.0138836400233496
622,0.0135875573344898
623,0.0135542283165162
624,0.0134779190068192
625,0.0134016096971222
626,0.0133253003874252
627,0.0133535196339276
628,0.0133081936664682
629,0.0132389296502513
630,0.013287770546003
631,0.0129672166657148
632,0.0127623337348431
633,0.0126328984667865
634,0.0124298601956098
635,0.0123128948588925
636,0.0121112453717011
637,0.0121298119054986
638,0.0119735999063265
639,0.0119851286866969
640,0.0118521470331039
641,0.0117768882550643
642,0.0116314593169784
643,0.0114873125878447
644,0.011343165858711
645,0.0111990191295773
646,0.0112048350903888
647,0.0111648629140951
648,0.0108740359409995
649,0.0110561015971658
650,0.0109162048539019
651,0.0109692118049059
652,0.0107894147631323
653,0.0105242232843123
654,0.0102891768291759
655,0.0103001998444177
656,0.0101760656727805
657,0.0101682355208441
658,0.0102526336879718
659,0.0105401890095015
660,0.0105751291620475
661,0.010602602155982
662,0.010605396383398
663,0.0104953334933371
664,0.0103726409024581
665,0.0103049394439821
666,0.0102541694827157
667,0.0101901603490391
668,0.0101737538674153
669,0.0099375979150785
670,0.00995889752952408
671,0.00985830556376575
672,0.0097775629620727
673,0.0097694416261725
674,0.00977035555728187
675,0.0097537531230632
676,0.00968181798153262
677,0.00972194272186517
678,0.0095973846427685
679,0.00952871955404365
680,0.00976254424359602
681,0.0096231734156602
682,0.00939306691488783
683,0.00932877392887168
684,0.00908809548770319
685,0.00890121822570954
686,0.00879858810029217
687,0.00872232907822341
688,0.00865257688010985
689,0.00874983791613141
690,0.00894229144662194
691,0.00916391216446138
692,0.00924594627684935
693,0.00938505250817342
694,0.00962304078655893
695,0.00978542661859227
696,0.0100778763665341
697,0.0102334693639617
698,0.0102981604393765
699,0.0104487539980946
700,0.0107851774003738
701,0.0108607099680714
702,0.0112984914616715
703,0.0116040914576224
704,0.012073380869921
705,0.0123227442365214
706,0.0127598826419406
707,0.0130843123693858
708,0.0133312725857053
709,0.0136385532817078
710,0.0135328027562446
711,0.0136585584117343
712,0.0137814923862449
713,0.0132710295968914
714,0.0129778338249305
715,0.0123618726556041
716,0.011824796625814
717,0.0114729832881724
718,0.0114399857148416
719,0.0115794024316031
720,0.0118633638274151
721,0.0117862982968521
722,0.0122715774503154
723,0.0122570354952184
724,0.0123153347942147
725,0.0123960659155739
726,0.0124246513817591
727,0.0126711538185627
728,0.0129056040630023
729,0.013183973865008
730,0.0136082827653803
731,0.0140824019372838
732,0.0145779534758517
733,0.0150738325239323
734,0.0154291669541697
735,0.0155906176091235
736,0.0158260142710056
737,0.0159852261175703
738,0.0161444379641351
739,0.0163036498106998
740,0.0165732837120348
741,0.0166470907336871
742,0.0167720072218622
743,0.0168969237100373
744,0.0170218401982124
745,0.0171054759519416
746,0.0170757284448407
747,0.0171259396949912
748,0.0168533561146697
749,0.0169326002512798
750,0.016912842101988
751,0.0167802855882135
752,0.016916502796355
753,0.0167061170604214
754,0.0165481365189234
755,0.0155977873835043
756,0.0146474382480851
757,0.013697089112666
758,0.0120447161168219
759,0.0106635252146121
760,0.00963426213894216
761,0.00942464224113979
762,0.00972331580586656
763,0.0102905039835221
764,0.0111416037493033
765,0.0119023370866916
766,0.0130396062302537
767,0.0139048111619551
768,0.0144169652620657
769,0.0148768688049871
770,0.0150819569350956
771,0.0151860456695042
772,0.0153362237864047
773,0.0154633420171941
774,0.0153085171301434
775,0.0153079445781242
776,0.0152761222766247
777,0.0150935315539716
778,0.0151872800985806
779,0.0149800612628405
780,0.0150988424577251
