"wavelength","measurement"
380,0.00183286133534897
381,0.00189349488126004
382,0.00185593238853215
383,0.00189712969366437
384,0.0018941348030476
385,0.00212212757441695
386,0.00225401130917203
387,0.00234222418877113
388,0.00255365855431916
389,0.00258467607168809
390,0.00261907215064259
391,0.00266278286007545
392,0.00274972569927707
393,0.00272829122327698
394,0.00291144883003667
395,0.00312294352598061
396,0.00348227893975799
397,0.00391023612744561
398,0.00433819331513324
399,0.00476615050282086
400,0.00513653250212334
401,0.00549550261271471
402,0.0059237629626868
403,0.00608970747991068
404,0.00627588673348734
405,0.00636186288041847
406,0.00655264939767501
407,0.00670886787147315
408,0.0068111031579608
409,0.00703286702965678
410,0.00746075600298372
411,0.00759493497502729
412,0.00788835682936789
413,0.00817907215093018
414,0.0082282099657795
415,0.00836210243202042
416,0.00843898037162829
417,0.00838544447617347
418,0.00863713856599334
419,0.00850715282199825
420,0.00876138856890656
421,0.00881094349606245
422,0.00887666637460065
423,0.00895820981153247
424,0.00904233930481904
425,0.00889985692852764
426,0.00885660735621312
427,0.00868827676263552
428,0.00847128215712317
429,0.00849283062003306
430,0.00855751315985954
431,0.00906052819464271
432,0.00973242635201973
433,0.0104645676945194
434,0.0111704608643682
435,0.0114586914854343
436,0.0114840588325138
437,0.0113563860818619
438,0.01122871333121
439,0.0111010405805581
440,0.0110094249143907
441,0.0111933460164025
442,0.0114481585487362
443,0.0116063949307179
444,0.0118313150798833
445,0.0120562352290488
446,0.0122811553782143
447,0.0125209422575699
448,0.0126255211872128
449,0.0131705983712947
450,0.0131382115576313
451,0.0130395701823635
452,0.0130178847139153
453,0.0129961992454671
454,0.0129745137770189
455,0.0129845949662757
456,0.0129293390364576
457,0.0131172815499963
458,0.0131682815112375
459,0.0133731615449622
460,0.0134077719370802
461,0.0132605864520793
462,0.0136157461524467
463,0.0132351657347465
464,0.0131394303077899
465,0.0130541339168689
466,0.012882165795914
467,0.0128362122896345
468,0.0127493217046786
469,0.0126024466297851
470,0.012901058304242
471,0.0128818397733453
472,0.0129073376669401
473,0.0130942891498181
474,0.0131870339075231
475,0.013302160784254
476,0.0130201744109799
477,0.0130645950835641
478,0.0131090157561484
479,0.0131534364287326
480,0.0131897574093134
481,0.0129456922112591
482,0.0128300018646337
483,0.0129388633109959
484,0.0127421376748221
485,0.012597769865209
486,0.0127963353529274
487,0.0128495143164376
488,0.0129679836250494
489,0.0132421233745493
490,0.0132534519609124
491,0.0133574810192212
492,0.0136613372552124
493,0.0134241386134696
494,0.0135861421137614
495,0.0133521283060848
496,0.0133966008170117
497,0.013125579700659
498,0.0131762980943672
499,0.0128575864380022
500,0.0128969786850816
501,0.0127432821456924
502,0.0129244797271348
503,0.0129706600555903
504,0.0128360043167498
505,0.0132679669971159
506,0.0131878421599606
507,0.0132517272610408
508,0.0133517720000434
509,0.0133904256947192
510,0.0132146103246971
511,0.0134526273267053
512,0.0133910036680753
513,0.0130335778579157
514,0.0129805500312734
515,0.0128106290428578
516,0.0127221182779953
517,0.0127571697750579
518,0.0127816558098508
519,0.0130229756787208
520,0.0132851641275933
521,0.0134776394831719
522,0.0136701148387505
523,0.0138625901943291
524,0.0138252095759163
525,0.0139061738175351
526,0.0139791760771386
527,0.0139013292438203
528,0.0140450421631344
529,0.0142671417348958
530,0.0143010055521735
531,0.0143819696034806
532,0.0144176545371615
533,0.0146083648454235
534,0.0147669193065635
535,0.014723496708102
536,0.0151232184977135
537,0.015403676269652
538,0.0157045599488916
539,0.0161819368913401
540,0.0166581061256265
541,0.0170211422747057
542,0.0173175707398744
543,0.0176606588565402
544,0.017991603725521
545,0.0178989280848516
546,0.0179482389163482
547,0.0174343773825222
548,0.0169205158486963
549,0.0164066543148704
550,0.0157328811503165
551,0.0154543648791093
552,0.0152446788645215
553,0.0148795522703687
554,0.0146067220062718
555,0.0146308693873272
556,0.0143401075319042
557,0.0142206780025319
558,0.0140274228115132
559,0.0138673281385562
560,0.014016446972863
561,0.0137550768451625
562,0.0139913463751669
563,0.0137576157903498
564,0.0137877256473642
565,0.0135708311197955
566,0.01348137678566
567,0.0133118891120201
568,0.0134024166804422
569,0.0131626291322922
570,0.0131188170333828
571,0.0131329307723682
572,0.0131458509290327
573,0.0131355304523523
574,0.0132642923410124
575,0.0131722037570909
576,0.0132648379600491
577,0.0133574721630074
578,0.0134501063659657
579,0.013542740568924
580,0.0136353747718823
581,0.0137922045764073
582,0.0137383168380191
583,0.0138516109399736
584,0.0136484693639124
585,0.0136317416507601
586,0.0132645063545579
587,0.0130822901568184
588,0.012849622243377
589,0.0126169543299357
590,0.0123842864164943
591,0.0123650129176034
592,0.0123841788854022
593,0.0122900119648286
594,0.0123756014052352
595,0.012242687010897
596,0.0122755745710084
597,0.0122614759225447
598,0.0122527462220307
599,0.0122371752134026
600,0.0123219006638358
601,0.0123296069519644
602,0.012321302087688
603,0.0122294006087888
604,0.0123545980112903
605,0.0122829017098574
606,0.0126075635047797
607,0.0131820428799417
608,0.0138655938585888
609,0.0147356761798158
610,0.015246838370774
611,0.0155733523110027
612,0.0152446778080671
613,0.0145403004666464
614,0.0135122354314756
615,0.0129889117851754
616,0.0123751620278842
617,0.012110402072189
618,0.0118350988784497
619,0.0117578401045062
620,0.0116053660795856
621,0.0116403267681193
622,0.0114083225004342
623,0.011374643734997
624,0.0112842484519922
625,0.0111938531689875
626,0.0111034578859827
627,0.0111268024980034
628,0.0110820997355583
629,0.0110373823594009
630,0.0110565698041087
631,0.0107950008011546
632,0.0106941334894243
633,0.0106117007939826
634,0.0104015739991463
635,0.0104087913377053
636,0.0102284263878179
637,0.0102162043367166
638,0.0101035716928175
639,0.0101150905662336
640,0.0100188321268288
641,0.00992891552858098
642,0.00983594602417969
643,0.00970557928458384
644,0.009575212544988
645,0.00944484580539216
646,0.00945414809147905
647,0.00938026855149954
648,0.00916988378257099
649,0.00936718515496108
650,0.0091844673084592
651,0.00924266221132331
652,0.00907307746199258
653,0.00890942033905618
654,0.00868920251177156
655,0.00875301483777745
656,0.00858138990040543
657,0.00859998213833716
658,0.00870501225892715
659,0.00890413595257437
660,0.00893299854566345
661,0.00897859550778159
662,0.00896212897548889
663,0.00886400790854711
664,0.00877526524808177
665,0.00874190803492399
666,0.00866660921682393
667,0.00866943198039931
668,0.00864039666230822
669,0.00845275606155052
670,0.00842499569531974
671,0.00840963249948303
672,0.00832889218583477
673,0.00829370513804456
674,0.00831374955391726
675,0.00824188037455576
676,0.00820599250792337
677,0.00822888897092099
678,0.00812756702227013
679,0.00811099343564661
680,0.008257522598491
681,0.00808734713365623
682,0.00791418451379965
683,0.00784710331074166
684,0.00757938626644259
685,0.00744550362971249
686,0.00730482323130152
687,0.0072171670270434
688,0.00715519128764723
689,0.00720139736767727
690,0.00727732270404058
691,0.00744925618178354
692,0.00751112613838324
693,0.00756204895592304
694,0.00776300739314009
695,0.0078624672002088
696,0.00800879700340769
697,0.00811854459277494
698,0.00808039756899399
699,0.00820437641779527
700,0.00837545580316929
701,0.00843324383240314
702,0.00870211815249062
703,0.00886811568174447
704,0.00924629014359628
705,0.00939146866948043
706,0.00967697433036167
707,0.00989120876297704
708,0.00999837421496249
709,0.010171104823974
710,0.0101261441250041
711,0.010178688824846
712,0.0102460835162218
713,0.00981275692371267
714,0.00959408187120005
715,0.00905909111715671
716,0.00864531689209673
717,0.00832337172153702
718,0.00827737070703305
719,0.00835628327145702
720,0.00857215697940414
721,0.00848476370185591
722,0.00878870520221417
723,0.00879067313465973
724,0.0088191568656898
725,0.00886316304583283
726,0.00880788940310906
727,0.00901128726131078
728,0.00916514188871371
729,0.00936341883449435
730,0.00967896672597109
731,0.0100181022355393
732,0.0103300021373525
733,0.0107032456427814
734,0.0109773044095033
735,0.0110767577226425
736,0.0112539501675557
737,0.0113481595143395
738,0.0114423688611233
739,0.0115365782079071
740,0.0117807806688261
741,0.0118079317530603
742,0.0118941777142123
743,0.0119804236753643
744,0.0120666696365163
745,0.0120881917563535
746,0.0120702515785941
747,0.0120518824516356
748,0.0119471306231696
749,0.011948587509954
750,0.011953191312207
751,0.0118822617752943
752,0.0119739367832674
753,0.0117758570771263
754,0.0117210173874455
755,0.0110185503667922
756,0.0103160833461389
757,0.00961361632548565
758,0.00845978646030135
759,0.00749420339390123
760,0.00680926681108022
761,0.00659606818106067
762,0.00681062368169066
763,0.0072290844360563
764,0.00777335365656286
765,0.00842947804906564
766,0.00910635775273336
767,0.00983042213619624
768,0.0102724203260129
769,0.010456891052526
770,0.0106737376916006
771,0.0107517053816065
772,0.0108037661397266
773,0.0109324558899101
774,0.0107471659161273
775,0.0107914352380583
776,0.0107986776426072
777,0.0106099346162243
778,0.0107204299436984
779,0.0105436696494842
780,0.0106613371682027
