"wavelength","measurement"
380,0.00601057305770582
381,0.00589412424649675
382,0.00591778530917524
383,0.00588495288902875
384,0.00597840842424612
385,0.00642106444455702
386,0.0068100150869986
387,0.00722918142405306
388,0.00760681066192219
389,0.0079448355159539
390,0.00795944696423354
391,0.00796224600371371
392,0.00802198384053275
393,0.00815654917202846
394,0.0084030396672556
395,0.0088189902655242
396,0.00985583380080288
397,0.0109691294483534
398,0.0120824250959039
399,0.0131957207434545
400,0.0138839385295481
401,0.0147454865853741
402,0.0152685026771902
403,0.0154386691368749
404,0.0155365598543995
405,0.0154424420215028
406,0.0157640461306465
407,0.0158198434727846
408,0.0158485247366735
409,0.0161160785978332
410,0.0167740898005817
411,0.0167557677457381
412,0.0171889395677935
413,0.0175168520271955
414,0.0174539326483108
415,0.0175641138993726
416,0.0173582968674096
417,0.0172493416160925
418,0.0173801559678683
419,0.0169169180049017
420,0.017318225917665
421,0.0171822417241125
422,0.0172669111735204
423,0.0174050994158772
424,0.0173834496433919
425,0.0171014704242843
426,0.0168691433031767
427,0.0163918781042856
428,0.015800718933835
429,0.0157372277232343
430,0.0157469338761435
431,0.0163121701771532
432,0.0169205295544486
433,0.0175310906136272
434,0.0182981419081324
435,0.0186648794600007
436,0.0187949584388579
437,0.0189601312425635
438,0.0191253040462691
439,0.0192904768499747
440,0.0193203583973725
441,0.0196553389444583
442,0.0200969198923502
443,0.0202351563301475
444,0.0205249836810452
445,0.0208148110319429
446,0.0211046383828405
447,0.0214151196233976
448,0.0214335947956942
449,0.0222652351580087
450,0.0221708093363546
451,0.0220173737126222
452,0.0219407223800972
453,0.0218640710475722
454,0.0217874197150472
455,0.0218229690129662
456,0.0217960215772649
457,0.0220468310736277
458,0.0221076925379335
459,0.0224483406355564
460,0.0223955357260478
461,0.0221436433429574
462,0.0228140518577873
463,0.0221234007607512
464,0.021887531001641
465,0.0216952381132645
466,0.0213644957397503
467,0.0213162791053247
468,0.0210875410451303
469,0.0208723424322736
470,0.0212824888434671
471,0.0212258347171245
472,0.0213344943030014
473,0.0215555260481598
474,0.0215921546986411
475,0.0218605880245248
476,0.0213955569608135
477,0.0213893163049824
478,0.0213830756491513
479,0.0213768349933203
480,0.0213103022423138
481,0.0207922830022593
482,0.0204320221243276
483,0.0203214882126835
484,0.0198012723099972
485,0.0193820852362302
486,0.019520045913229
487,0.0196465111564402
488,0.0197791700387283
489,0.0202615526092736
490,0.0203725219887184
491,0.0204349495316143
492,0.0209126807805693
493,0.0206470331969613
494,0.0209349153763656
495,0.0206098315682172
496,0.0206820322858563
497,0.020274750089948
498,0.0203378762284358
499,0.0198310951364185
500,0.0198801305376737
501,0.0196592640382089
502,0.0199399217419988
503,0.0199899333205778
504,0.0197610966886042
505,0.0203576982457729
506,0.020265204098452
507,0.0203373895463036
508,0.0204357103774787
509,0.0204361144368263
510,0.0200923486330377
511,0.0204241050752005
512,0.0202481734179758
513,0.0197103066347774
514,0.019596007922581
515,0.0192632772075268
516,0.0191243322855173
517,0.0190598120226192
518,0.0190036968874512
519,0.0193537261243999
520,0.0197318465821632
521,0.0199710099448397
522,0.0202101733075163
523,0.0204493366701929
524,0.0203545424708366
525,0.020426569903961
526,0.0204971127050548
527,0.0203722235864141
528,0.0205161394638437
529,0.020810815199487
530,0.0208336650209344
531,0.0208658289930752
532,0.0208624786241095
533,0.0210162116419248
534,0.0210946169802981
535,0.0208856050578272
536,0.02112961918701
537,0.021075527347138
538,0.0210403765941617
539,0.0211156942534596
540,0.0214152589551937
541,0.0215348643640786
542,0.0216181158824275
543,0.0218051941358482
544,0.0219734842640918
545,0.0216914122076235
546,0.0217122765562692
547,0.0214734143769862
548,0.0212345521977032
549,0.0209956900184202
550,0.0206953165289544
551,0.0207978189701227
552,0.0208629364860951
553,0.0205807534806307
554,0.0204237686858146
555,0.0205616655334004
556,0.0202203193702016
557,0.0201332257590065
558,0.019958020165006
559,0.0197738101918188
560,0.0199233910003282
561,0.0195577977876111
562,0.0198649517853742
563,0.0195385397650365
564,0.0195657553289984
565,0.0192447718400405
566,0.0190992666617952
567,0.0188003196407103
568,0.0188679355152805
569,0.0185893934326869
570,0.0185178730938729
571,0.0185274894356346
572,0.0184644502230877
573,0.0184158387502984
574,0.0185282745016949
575,0.0182513960445553
576,0.0182792281492162
577,0.018307060253877
578,0.0183348923585379
579,0.0183627244631987
580,0.0183905565678596
581,0.0185738307979153
582,0.0184234918479957
583,0.0184707966450966
584,0.0181009651839789
585,0.0179608011170014
586,0.0173387312558884
587,0.0169702990245266
588,0.0166534946837966
589,0.0163366903430666
590,0.0160198860023367
591,0.0159980200047732
592,0.0161115526141786
593,0.0160728227625674
594,0.0162626813039283
595,0.0161999603529627
596,0.0163121870873729
597,0.0163364669956534
598,0.0163898074396869
599,0.0163921044457325
600,0.0165112695026912
601,0.0165394480485577
602,0.0166063445936783
603,0.0164818682910802
604,0.0166389466740753
605,0.0165100887483762
606,0.0165596330110059
607,0.0166481813697603
608,0.0166289464295653
609,0.0168683878980712
610,0.0168936594436379
611,0.0168414413325091
612,0.0166115576150456
613,0.0162858803031884
614,0.0157899939636218
615,0.0156752293990539
616,0.0153805659356228
617,0.0153602320322679
618,0.0152546811813796
619,0.0152278135809545
620,0.0150790254988993
621,0.0151315993977397
622,0.0147584489144496
623,0.0146795213414661
624,0.0145112586221757
625,0.0143429959028852
626,0.0141747331835948
627,0.0141225411042227
628,0.0140039477717208
629,0.0139316922896225
630,0.0139925561722081
631,0.0137385693652584
632,0.0137169156659293
633,0.0137239931698042
634,0.0136193247456514
635,0.0136623086764475
636,0.0134526919023954
637,0.0135178623602943
638,0.0133477395158642
639,0.0133680392692755
640,0.0132323845540798
641,0.0131319472943987
642,0.012997230615895
643,0.0128014784925633
644,0.0126057263692315
645,0.0124099742458998
646,0.0123873018091562
647,0.0122769482352514
648,0.0119745182617456
649,0.012141029964801
650,0.0119837355483994
651,0.0120463039503114
652,0.0118545248293942
653,0.0115918245529304
654,0.0113302102297962
655,0.0114158745455017
656,0.0112594668302606
657,0.0113007735642366
658,0.0114103791802944
659,0.0116821089105686
660,0.0117408274255028
661,0.0117683509676122
662,0.0117852233095564
663,0.0116445871622565
664,0.0115470618449074
665,0.0115518085473242
666,0.0115184178656134
667,0.0114552381514021
668,0.0114052423054179
669,0.0111920031273926
670,0.0111812129629764
671,0.0110882030669611
672,0.0110050211391718
673,0.0109968724635055
674,0.0109885951465802
675,0.0109181569968963
676,0.0108577165117012
677,0.0108957544179316
678,0.0107283635448694
679,0.0106558122266669
680,0.0108791992450759
681,0.0106537047013523
682,0.0104000632621697
683,0.0101885828416949
684,0.00983988761969163
685,0.00955787231039423
686,0.00932641472978092
687,0.009116620004167
688,0.00897490905589996
689,0.00898227387681817
690,0.00912798155081111
691,0.00927046212496811
692,0.00925864922816438
693,0.00936011952804291
694,0.00955110840143811
695,0.0096173104842429
696,0.00983571081735765
697,0.00991906946404225
698,0.00986251011093231
699,0.00995803109883313
700,0.0101982401683437
701,0.0101829798142773
702,0.0104877495138373
703,0.0105905793353601
704,0.0109522305680535
705,0.0110615715422344
706,0.0113845222877189
707,0.0115921637401305
708,0.0117297222126702
709,0.0119646443589157
710,0.0118853326428142
711,0.012018983560517
712,0.0121322475092252
713,0.0116700293189203
714,0.0114083517996691
715,0.0107908954486669
716,0.0102793176387222
717,0.00989816948739797
718,0.00983676049011343
719,0.00996154402683004
720,0.0101797251921744
721,0.010206173280156
722,0.0105683020807493
723,0.0105990492119796
724,0.0106292413497478
725,0.0107205890052653
726,0.0107430068720658
727,0.0110024375501005
728,0.011214791891386
729,0.0115835435082799
730,0.0120187495854429
731,0.0125283934455176
732,0.0130341935241839
733,0.013563482860734
734,0.0139675690659276
735,0.014191774265578
736,0.0144554254127284
737,0.0146645790833813
738,0.0148737327540342
739,0.0150828864246871
740,0.0154221710162193
741,0.0156081254844151
742,0.0157473743466314
743,0.0158866232088477
744,0.0160258720710641
745,0.0161388504571822
746,0.0161100648545494
747,0.0162018557432093
748,0.0159978871275729
749,0.0161010774327808
750,0.0161023732517638
751,0.0160281328609922
752,0.0162264613515854
753,0.015993624019176
754,0.0158593297047933
755,0.0149431652254194
756,0.0140270007460456
757,0.0131108362666717
758,0.0115529359308391
759,0.0101770482876302
760,0.0091204109671204
761,0.00877249084188022
762,0.00903112835648584
763,0.00956568800768046
764,0.0104248722547395
765,0.0112111302141233
766,0.0122807180502596
767,0.0132586720835202
768,0.0138110513307349
769,0.0142326617314802
770,0.0145288617313448
771,0.0146249955866081
772,0.0147694348173365
773,0.0148865227108425
774,0.0147848674300022
775,0.0147210398362816
776,0.0147652079795508
777,0.0145916860887072
778,0.0146434030968034
779,0.0145014065261262
780,0.0146345248995745
