"wavelength","measurement"
380,0.00147098378602249
381,0.0015880642292347
382,0.00154503467268086
383,0.00143176768918165
384,0.00157994332013022
385,0.0016813422786465
386,0.00187371319070157
387,0.00188905820132826
388,0.00208326657316819
389,0.0021950697971494
390,0.00217067765210183
391,0.00223064594490819
392,0.00226405876586079
393,0.00232278985522083
394,0.00241966416490521
395,0.00264202999419041
396,0.00287457204231558
397,0.00327517039289181
398,0.00367576874346804
399,0.00407636709404427
400,0.0044157229295103
401,0.00478915621847052
402,0.00508728520892442
403,0.00526408403502767
404,0.00545132357886541
405,0.00556371514665826
406,0.00577572276662584
407,0.00592631596567636
408,0.00608846073222505
409,0.00631689970520399
410,0.00668780164354828
411,0.0067933889462097
412,0.00707105530510873
413,0.00740655917126017
414,0.00752014263529356
415,0.0076154626164402
416,0.00764360417277484
417,0.00769185820895029
418,0.00788268914607043
419,0.00784664590585849
420,0.00803721123423013
421,0.00804258011718188
422,0.00819275364047206
423,0.00825546115077907
424,0.00837393765655801
425,0.00827169415572007
426,0.00828027902562507
427,0.00809941553233327
428,0.00787909341533371
429,0.00791540495301317
430,0.00804053924520526
431,0.00844219310002436
432,0.00901864049277018
433,0.00964083502706586
434,0.0102412622898642
435,0.0105604271617444
436,0.0106145216436462
437,0.0105580027170172
438,0.0105014837903882
439,0.0104449648637591
440,0.0104262509121134
441,0.0106282412301098
442,0.01090970808167
443,0.011031830608019
444,0.0112490932276908
445,0.0114663558473625
446,0.0116836184670343
447,0.0119567120999663
448,0.0120109122163546
449,0.0125231403740359
450,0.0125955107444918
451,0.0125343743200788
452,0.0125394043814823
453,0.0125444344428858
454,0.0125494645042894
455,0.0125593192640076
456,0.0125423991919172
457,0.0127680865382931
458,0.0128897936071346
459,0.0131162842929043
460,0.0131562988451015
461,0.0129737309149027
462,0.0134930269960206
463,0.0131191691357576
464,0.013004267379296
465,0.012930048151531
466,0.0127582763954728
467,0.0127622575125762
468,0.0127230167922267
469,0.0125689667823454
470,0.0128879461609227
471,0.0128804524057892
472,0.0129773994447569
473,0.0131807553945048
474,0.0132798214082049
475,0.0134525670997915
476,0.0132512163954843
477,0.0132848872578413
478,0.0133185581201983
479,0.0133522289825554
480,0.0133541769862349
481,0.0131303644283257
482,0.0130206567426248
483,0.0130353232708847
484,0.0128409866197584
485,0.0126669958479919
486,0.0128119461669817
487,0.0129380601499667
488,0.0130726865382819
489,0.0134087274802499
490,0.0135035985112694
491,0.0135696010999052
492,0.0139115223683517
493,0.0137503206549028
494,0.0139416148311468
495,0.0137444992225224
496,0.0137699688338857
497,0.0135681871440211
498,0.0136294660741423
499,0.0133422523735356
500,0.0134251196084542
501,0.0133334196055115
502,0.0135459989853311
503,0.0135965670871558
504,0.0134993290269429
505,0.0139681455602981
506,0.0139463616865289
507,0.0140610095213851
508,0.0142060488102208
509,0.0142532950141285
510,0.0141055533135708
511,0.0144032260880735
512,0.0143835475230975
513,0.0140380214776899
514,0.0140380914962413
515,0.0138542571883951
516,0.0138663415443002
517,0.0139073523557784
518,0.0139565178441796
519,0.0142796632288628
520,0.014661241824342
521,0.0149132950819293
522,0.0151653483395166
523,0.0154174015971039
524,0.0154143274918525
525,0.0155574848193238
526,0.015703282942497
527,0.0156775427017603
528,0.0158673151890183
529,0.0161475701594871
530,0.0162312527806458
531,0.0163465796132133
532,0.016374515231756
533,0.0165972266823007
534,0.0168119471705571
535,0.0167495899609383
536,0.0171290376871317
537,0.0173280950364712
538,0.0175812353059723
539,0.0178987950312024
540,0.0183662327105549
541,0.0185969503791934
542,0.0188670093519769
543,0.0191853764719226
544,0.0194652866754082
545,0.0193415157694199
546,0.0194863020762839
547,0.0190920970435102
548,0.0186978920107365
549,0.0183036869779627
550,0.0177969890393364
551,0.0176146459471717
552,0.0174931479261618
553,0.0171953812347749
554,0.0169986631050903
555,0.0170664707672083
556,0.0168117326704599
557,0.0166620799580509
558,0.0165347405554309
559,0.0163653763452742
560,0.0165363675181086
561,0.0161904998777268
562,0.0164829270794533
563,0.0161824473288425
564,0.0162564187550911
565,0.0160111509701294
566,0.0158824987239835
567,0.0156924437550165
568,0.0157196008622617
569,0.0155133759905045
570,0.015492423857632
571,0.0155011802497606
572,0.0154745800200991
573,0.0154288537800897
574,0.0155943049296552
575,0.0154064096920733
576,0.0154763572700271
577,0.0155463048479809
578,0.0156162524259347
579,0.0156862000038885
580,0.0157561475818423
581,0.0159300856671427
582,0.0157939907228943
583,0.0159132757059095
584,0.0156597652957483
585,0.0156619060524453
586,0.0151682741655024
587,0.0149698114559267
588,0.0147251585286193
589,0.0144805056013118
590,0.0142358526740043
591,0.0141927603026512
592,0.0142905366849913
593,0.0142176686963984
594,0.0143489698948186
595,0.0142170388008406
596,0.0142605920199203
597,0.0142819503018322
598,0.0143053573802548
599,0.014284788487935
600,0.0143901083584562
601,0.0143927219487047
602,0.0144044802792835
603,0.0143244761119297
604,0.0144565256920554
605,0.0143901954354621
606,0.0146097077725819
607,0.0150474236746371
608,0.0154738392937578
609,0.0161504193281542
610,0.0164972776222833
611,0.0166758984670911
612,0.0163797030718328
613,0.0158092819736328
614,0.0149721460813811
615,0.0146130907656409
616,0.0140398558133722
617,0.013891277997506
618,0.0136534572822181
619,0.0135891589619637
620,0.013465253292586
621,0.013494284570765
622,0.0132154244573678
623,0.0132013248154938
624,0.0131017323851114
625,0.0130021399547289
626,0.0129025475243465
627,0.0129169282765481
628,0.0128707833855335
629,0.0127862335261657
630,0.0128399025674765
631,0.0125791125896323
632,0.0124882439622801
633,0.01244563210815
634,0.0123161743373664
635,0.0123128948588925
636,0.0121091695975559
637,0.0121658533004656
638,0.0120000550785009
639,0.0119873095633304
640,0.0118608004713122
641,0.0117520928263519
642,0.0116477502026743
643,0.0114872687951412
644,0.0113267873876081
645,0.011166305980075
646,0.0112158708516667
647,0.0110785650126103
648,0.0108145479325874
649,0.0109971478597362
650,0.0108253437527142
651,0.0108969669819691
652,0.0107268787825578
653,0.0104836110259192
654,0.0102613684624638
655,0.0103103290967335
656,0.0101139238265373
657,0.0101568932106418
658,0.0102672516923946
659,0.0104910404583819
660,0.0105349712529531
661,0.0105484699952059
662,0.0105418093779398
663,0.0104164190416597
664,0.0103077225988141
665,0.0102615277370188
666,0.0102141166761096
667,0.0101782925263951
668,0.0101082399830039
669,0.00991966480300198
670,0.00991690470615368
671,0.00980167283962079
672,0.009748502124041
673,0.00974634973362561
674,0.00974593017691391
675,0.00968885233650055
676,0.00964368767460948
677,0.00971454175497645
678,0.00957515546648023
679,0.00949153954878609
680,0.00976254424359602
681,0.00954233208502952
682,0.00936184271730404
683,0.00925738306365275
684,0.00901759799363533
685,0.00885192515866842
686,0.00873772719062587
687,0.0086660817298691
688,0.00860919582803901
689,0.00870366288957833
690,0.00889084377856944
691,0.00915217134065744
692,0.00924594627684935
693,0.00945030363636395
694,0.00966541460644964
695,0.0098274851310179
696,0.0101123061900129
697,0.0103059112540642
698,0.010370287022014
699,0.0105762892988147
700,0.0109118390366593
701,0.0110055017835991
702,0.0114182152389077
703,0.0116791433928526
704,0.012106418085429
705,0.0123570120269973
706,0.0127530071874936
707,0.0130912754092397
708,0.0132798424347342
709,0.013582376001679
710,0.0135644648808633
711,0.0137459160966434
712,0.013912222364684
713,0.0134420094491023
714,0.0131894927194073
715,0.0125768072443015
716,0.0120465935311473
717,0.0116985507452756
718,0.0116638189808869
719,0.011872813544943
720,0.0120620075304166
721,0.0121300272264947
722,0.0125589802047374
723,0.0126021833084539
724,0.0126595399695077
725,0.012718783106085
726,0.0127673993548437
727,0.013025929457659
728,0.0132388139852681
729,0.013563183643013
730,0.0139933870412742
731,0.0145155730845213
732,0.01501352446324
733,0.0155701834044855
734,0.0159126821933319
735,0.0161086852913342
736,0.0163950128673677
737,0.016549832305773
738,0.0167046517441784
739,0.0168594711825837
740,0.0171913388948392
741,0.0172964620787526
742,0.0174065912307181
743,0.0175167203826836
744,0.0176268495346491
745,0.017747227366601
746,0.0177003656709787
747,0.0177457947579088
748,0.0175290600123399
749,0.017596348740899
750,0.0175615215223385
751,0.0174600359316856
752,0.0175821518893054
753,0.0173377654983871
754,0.0172419268031323
755,0.01622658637623
756,0.0152112459493276
757,0.0141959055224253
758,0.0125461600887902
759,0.0111159695306527
760,0.0100340194534216
761,0.0097336610740013
762,0.010075553657796
763,0.0106338935197127
764,0.0115307982637025
765,0.0123866143188943
766,0.0134477191925578
767,0.0144677006761813
768,0.0150081667590939
769,0.0154224164086338
770,0.0157453550830869
771,0.0158162401897142
772,0.0159572130803425
773,0.0161328974192952
774,0.015982189046372
775,0.0159204293290455
776,0.0159267898857133
777,0.0157157645606884
778,0.01584147739957
779,0.0156394874126258
780,0.0157755886217381
