"wavelength","measurement"
380,0.0230512641328818
381,0.0225155052517129
382,0.0224238553204124
383,0.0215112098515525
384,0.0220167406088338
385,0.0233038591495466
386,0.0246344779896976
387,0.0258327977237622
388,0.0273392026463707
389,0.0287900609953391
390,0.0291140101195013
391,0.0291965393215146
392,0.0299731904918602
393,0.0303311736421351
394,0.0313117286204047
395,0.0337760272175475
396,0.0383197613927435
397,0.0435830932406428
398,0.048846425088542
399,0.0541097569364413
400,0.0579177084475772
401,0.0632395121438915
402,0.0663277746504533
403,0.0685962400404766
404,0.0703725361069224
405,0.0719879755473136
406,0.0739724098731324
407,0.0756798146744157
408,0.0770707619218167
409,0.0797341120421788
410,0.0845860218178863
411,0.0855940219946052
412,0.0889315640699236
413,0.0912731612380125
414,0.0923040003250422
415,0.0937634353459937
416,0.093633469863374
417,0.0931785462173913
418,0.0950546130894604
419,0.093599671216388
420,0.0958314987252697
421,0.0953976776824809
422,0.0966394866251659
423,0.0968340642208079
424,0.0979887180946103
425,0.0961393502574754
426,0.0947095640931451
427,0.0925556040567342
428,0.0894373638085062
429,0.0894175670433202
430,0.0892971417455043
431,0.0917624990422408
432,0.0954984279536448
433,0.098471291905493
434,0.102374194464728
435,0.10517096961728
436,0.106139772987839
437,0.107739655944536
438,0.109339538901233
439,0.11093942185793
440,0.111875211422153
441,0.113406133245581
442,0.116211137621286
443,0.117534085578651
444,0.11924555132581
445,0.120957017072969
446,0.122668482820128
447,0.123998677786742
448,0.12443744851087
449,0.129432986380271
450,0.128814018031208
451,0.128066927240891
452,0.127635858491867
453,0.127204789742843
454,0.126773720993819
455,0.12608197190753
456,0.126613933274244
457,0.127172449138174
458,0.128511924825798
459,0.129790481193524
460,0.130297382229724
461,0.128920826377138
462,0.132999111752635
463,0.129358117792306
464,0.1281211962784
465,0.126934053457452
466,0.125473994365057
467,0.125312312070895
468,0.124270200956127
469,0.123189288314351
470,0.125689041709079
471,0.125750606088983
472,0.12664143347623
473,0.128562302817256
474,0.129179367512348
475,0.131713285337477
476,0.129140621623637
477,0.129286209562326
478,0.129431797501014
479,0.129577385439702
480,0.129972151935777
481,0.126929495824131
482,0.124967973051804
483,0.124383863097016
484,0.120771148601065
485,0.117916126216554
486,0.118613195710754
487,0.119388708097413
488,0.120393370463275
489,0.12369169405093
490,0.124617734107587
491,0.125853669750827
492,0.128557512983938
493,0.127194905389717
494,0.129395411008704
495,0.127721513310373
496,0.128382091747897
497,0.126035801055114
498,0.127070413844708
499,0.124189152216775
500,0.124725001334011
501,0.12330887953226
502,0.125214759773403
503,0.125593048297159
504,0.12440566255711
505,0.12853167031323
506,0.127849484912603
507,0.128571851392762
508,0.129384980060532
509,0.129417073533562
510,0.127427560608168
511,0.129464605994295
512,0.128327299222755
513,0.125182558465357
514,0.124298755026744
515,0.121985923933343
516,0.120876787078168
517,0.120447158554661
518,0.120025909236998
519,0.122474755713838
520,0.124481212323439
521,0.126181891643477
522,0.127882570963515
523,0.129583250283552
524,0.129034361481624
525,0.129281790881273
526,0.129945762437644
527,0.128988307185171
528,0.1297111834289
529,0.131720017349057
530,0.132078667015538
531,0.132299964972612
532,0.132260334640808
533,0.13333402991544
534,0.133496166974531
535,0.132203459036074
536,0.133688416235015
537,0.132803497486149
538,0.13167589093411
539,0.130645022199398
540,0.131510817015384
541,0.130577790593429
542,0.129764962080982
543,0.130527260140532
544,0.131373349841333
545,0.130795564917265
546,0.1316722838184
547,0.131546895071431
548,0.131421506324462
549,0.131296117577494
550,0.130524245480038
551,0.131679735721683
552,0.132609932144963
553,0.131487594117456
554,0.131111041587452
555,0.132264678987802
556,0.130356428772423
557,0.13002044536511
558,0.129074721929044
559,0.128632613495253
560,0.12937181466802
561,0.127322393494808
562,0.129775109684208
563,0.127473276691029
564,0.128347100268057
565,0.126640468654251
566,0.126101565613689
567,0.124026453598846
568,0.125249113613775
569,0.123531203812351
570,0.123463985351834
571,0.123828136800938
572,0.123709843267969
573,0.123653538370959
574,0.124722844972429
575,0.122995655667976
576,0.123331996250123
577,0.123668336832271
578,0.124004677414418
579,0.124341017996565
580,0.124677358578712
581,0.126258170442428
582,0.12560900702274
583,0.12644121764979
584,0.124421653658371
585,0.124000302491948
586,0.120429901516197
587,0.118494830629533
588,0.11693857895271
589,0.115382327275888
590,0.113826075599065
591,0.11433069703905
592,0.115616492001933
593,0.115768398298478
594,0.118197599369341
595,0.118052234177357
596,0.1187893429438
597,0.119475001444318
598,0.119944889720076
599,0.120097990971104
600,0.121365901976754
601,0.122094279500833
602,0.123027857092403
603,0.122476085534298
604,0.123973320329352
605,0.123183092259246
606,0.123786738580039
607,0.123057329435088
608,0.12144942526062
609,0.121558470712648
610,0.120499904477096
611,0.120122179074115
612,0.119066136702457
613,0.118281290544134
614,0.117242574748697
615,0.118823392955179
616,0.11716806689741
617,0.11813472405253
618,0.117915493094702
619,0.118524518017115
620,0.118322222823208
621,0.119015150269952
622,0.116964352553631
623,0.116964722971398
624,0.116210767388067
625,0.115456811804736
626,0.114702856221405
627,0.11476840054444
628,0.114639165362328
629,0.114239923688374
630,0.115321733659322
631,0.113534821476801
632,0.114190346784634
633,0.11497401647753
634,0.115079716707021
635,0.115438297989026
636,0.114489893036848
637,0.115562310917395
638,0.115108647894811
639,0.115431287924344
640,0.114752586782852
641,0.114261187388278
642,0.113644215920503
643,0.112827231187644
644,0.112010246454785
645,0.111193261721925
646,0.110927876014789
647,0.110810950978449
648,0.108515168780536
649,0.11062191117158
650,0.109412353757349
651,0.110813565490676
652,0.109517997320643
653,0.107848286422171
654,0.105912595105867
655,0.107159337303924
656,0.10603313408442
657,0.106960198242267
658,0.108012853235524
659,0.111065873495157
660,0.112438418582733
661,0.112962897639494
662,0.113400151742495
663,0.112915960829036
664,0.112501535310098
665,0.112996639873766
666,0.113156978932975
667,0.113329173703015
668,0.113720069568134
669,0.111459002818247
670,0.112170981377688
671,0.112303874408353
672,0.111746598436782
673,0.111712645448152
674,0.112413984432727
675,0.111953029732488
676,0.112173801170588
677,0.113086452800711
678,0.111570914937494
679,0.111632920328507
680,0.114402260052813
681,0.112036001966761
682,0.110487033668711
683,0.108817145508664
684,0.105703352783869
685,0.103078815980495
686,0.101294977570703
687,0.0990378571230448
688,0.0984688011450567
689,0.0985488704235704
690,0.0998342009413497
691,0.101831673681924
692,0.102304931048878
693,0.102812474062335
694,0.104681176045741
695,0.105247673714122
696,0.107542664042594
697,0.108921461813035
698,0.108275325355761
699,0.109028764520975
700,0.111606871111922
701,0.111697169143285
702,0.114481927747161
703,0.115778694388041
704,0.118653320801521
705,0.11926988716232
706,0.122432921461902
707,0.124617080854339
708,0.126110264047225
709,0.128827624437125
710,0.128460950127129
711,0.129819849179589
712,0.131711001270797
713,0.127455852751295
714,0.125418826475818
715,0.119477491172478
716,0.114230080151085
717,0.110340749555188
718,0.109860101522497
719,0.111530045325027
720,0.113574722544135
721,0.113675506382065
722,0.118845353256051
723,0.119061848769465
724,0.119335218319733
725,0.120493193134736
726,0.120871339267716
727,0.123566273460503
728,0.126335439568846
729,0.130291711302103
730,0.134806026144286
731,0.140532833592756
732,0.146375576257221
733,0.152574183665804
734,0.156497278271884
735,0.15967243376277
736,0.162982657025902
737,0.165492256196693
738,0.168001855367485
739,0.170511454538277
740,0.174598956385684
741,0.176840342436283
742,0.179276884246381
743,0.181713426056479
744,0.184149967866577
745,0.185503599776151
746,0.186496092683673
747,0.188294094011706
748,0.187022374531428
749,0.18867193667514
750,0.189084636299036
751,0.188928703661422
752,0.192207013004709
753,0.191627592955576
754,0.190120907774083
755,0.180011978576162
756,0.169903049378241
757,0.159794120180321
758,0.142029012131141
759,0.126251177592882
760,0.112918243839751
761,0.109586710585159
762,0.113116406026804
763,0.120254741454173
764,0.130696895726279
765,0.141652797392774
766,0.155273811658751
767,0.168646018461301
768,0.17639898998852
769,0.181718074172036
770,0.18688509973805
771,0.188536726190047
772,0.190724164270021
773,0.193708261681361
774,0.192822142936576
775,0.193593881960838
776,0.194104561661843
777,0.19191155240456
778,0.195023543437069
779,0.192397813904627
780,0.195491507884542
