"wavelength","measurement"
380,0.0227010934310403
381,0.0220508943370945
382,0.0220067031563823
383,0.0212524779179556
384,0.0223573897366993
385,0.0233056417651482
386,0.0247828230609117
387,0.0267844028740285
388,0.0282739212602791
389,0.0296089286171904
390,0.0299381680318506
391,0.0301504059312724
392,0.030882637795148
393,0.0316934218411277
394,0.0332949490108024
395,0.0354839846005426
396,0.0404525411685837
397,0.0459237377720745
398,0.0513949343755652
399,0.0568661309790559
400,0.0614138323359446
401,0.0666244595096854
402,0.0702763770812013
403,0.0730992865958985
404,0.0749206342617375
405,0.0761162048389199
406,0.0798524824369818
407,0.0812901912349413
408,0.0833765462308836
409,0.0863008029359178
410,0.0923584656436135
411,0.0934203945741029
412,0.0983385662797138
413,0.101202699327049
414,0.103017387925208
415,0.10509408166833
416,0.10617403043507
417,0.106246032024301
418,0.108811527299181
419,0.107844458398099
420,0.11137884161377
421,0.112138148864069
422,0.113163740663303
423,0.11472159854886
424,0.116079608855647
425,0.114623054407651
426,0.114366483322924
427,0.111903268867649
428,0.108736995565982
429,0.108215925098035
430,0.108599703676667
431,0.112593761464695
432,0.116742968062959
433,0.120547154883069
434,0.126053320659041
435,0.129329451459014
436,0.130963455346302
437,0.133060640457034
438,0.135157825567765
439,0.137255010678497
440,0.138031291393936
441,0.140914675730517
442,0.143915215934914
443,0.144909653028666
444,0.146715017531358
445,0.14852038203405
446,0.150325746536742
447,0.152251512248463
448,0.152414203482288
449,0.158352078259583
450,0.157234235780453
451,0.156051527973877
452,0.155520276966659
453,0.154989025959442
454,0.154457774952224
455,0.154077050818883
456,0.153908269361243
457,0.15486228635221
458,0.156437761097331
459,0.15842847037366
460,0.158571157128231
461,0.156928728962984
462,0.162121814110496
463,0.15762892415943
464,0.156110601491325
465,0.155157936212773
466,0.153171505587602
467,0.1530053993396
468,0.151527168188469
469,0.150242314250989
470,0.153656309799616
471,0.153850182029727
472,0.154794009790242
473,0.157058799775407
474,0.15732043682392
475,0.160419210348835
476,0.157406341141973
477,0.157628121635811
478,0.157849902129649
479,0.158071682623486
480,0.158105457955291
481,0.154084268997041
482,0.151626512328352
483,0.150880579273386
484,0.14677061568925
485,0.143192524006324
486,0.144213039521947
487,0.145034013858564
488,0.146237506875084
489,0.149917028382285
490,0.151195604475933
491,0.152085411756114
492,0.155989430835238
493,0.154653288838764
494,0.156859425960174
495,0.155179012926487
496,0.155976239844764
497,0.153319045862582
498,0.154166073002229
499,0.15053636083687
500,0.151102968704108
501,0.149944283213325
502,0.152264371375578
503,0.152472996831448
504,0.15129739210496
505,0.156007172971903
506,0.155238486655574
507,0.155915064342459
508,0.156588352719488
509,0.156825488178808
510,0.154494354640226
511,0.156144414795373
512,0.155611398600826
513,0.150981066924224
514,0.150046428948464
515,0.146977028336801
516,0.146119126064182
517,0.145369651669788
518,0.144479750140623
519,0.147275268573121
520,0.149373756444776
521,0.151337391953079
522,0.153301027461382
523,0.155264662969685
524,0.154332904850007
525,0.154309006156464
526,0.155364810135179
527,0.154073234186701
528,0.154744006702296
529,0.157452397736258
530,0.1571985983005
531,0.157492815986123
532,0.157172571525227
533,0.158365397453819
534,0.158509738816476
535,0.15707023711606
536,0.158441453816058
537,0.157752484582451
538,0.156527095205908
539,0.155137223728633
540,0.156311063825237
541,0.154908507757871
542,0.153903325587417
543,0.154697386114962
544,0.156125387925972
545,0.154857937689761
546,0.156441331607814
547,0.156328605670682
548,0.15621587973355
549,0.156103153796418
550,0.154988667283861
551,0.15614440385293
552,0.157498370824503
553,0.156123423695695
554,0.155543283134561
555,0.157290198335572
556,0.15509456229529
557,0.155115484458072
558,0.153825401176262
559,0.152391633046998
560,0.154919598371177
561,0.151807182405903
562,0.154642242325167
563,0.152555549584101
564,0.153476575016366
565,0.151681038876666
566,0.151046019588754
567,0.14911755759645
568,0.15027456317317
569,0.148732506234247
570,0.148835956601161
571,0.149389316308349
572,0.149510692944572
573,0.149336135940637
574,0.15103001310832
575,0.149161263848782
576,0.149685142239823
577,0.150209020630863
578,0.150732899021904
579,0.151256777412945
580,0.151780655803986
581,0.15372097324077
582,0.153232787471196
583,0.153902979765652
584,0.151508537131255
585,0.151557220703612
586,0.146918381449037
587,0.145106929194907
588,0.143412643746275
589,0.141718358297643
590,0.140024072849011
591,0.140662903152405
592,0.142322362593212
593,0.142868506840473
594,0.14533256101965
595,0.145417774375895
596,0.146563935819324
597,0.147645264008468
598,0.147838489705835
599,0.148533388671594
600,0.149732478996466
601,0.150729773488228
602,0.151699524412615
603,0.151528661053739
604,0.153053983495926
605,0.152484959051964
606,0.152968002971713
607,0.152397345592965
608,0.150631384284228
609,0.150914261557772
610,0.149768659821589
611,0.149062360480464
612,0.14778375536908
613,0.147212203850508
614,0.145914024096053
615,0.147726228811511
616,0.146234554689974
617,0.147592711619538
618,0.147477488902468
619,0.14791849030027
620,0.147852050779447
621,0.148943286770113
622,0.146443321885831
623,0.146540631032201
624,0.145822654787492
625,0.145104678542782
626,0.144386702298073
627,0.144440665319491
628,0.144476489992015
629,0.143652797193347
630,0.144920184062944
631,0.142861677522019
632,0.143804767710654
633,0.144721009856143
634,0.145022458357795
635,0.145606741857853
636,0.144260840262289
637,0.146058511967307
638,0.145495852705061
639,0.146106001444987
640,0.145134264321447
641,0.144586792547526
642,0.144045735053321
643,0.143144855494557
644,0.142243975935792
645,0.141343096377028
646,0.141402773885966
647,0.141231076677605
648,0.138359045287795
649,0.140829468582298
650,0.139629163719958
651,0.141218907588527
652,0.139506232359326
653,0.137681864320835
654,0.135289029021791
655,0.13690026857418
656,0.135256290412131
657,0.136513542636908
658,0.138157082661355
659,0.142340650726232
660,0.143679870670675
661,0.144544449926342
662,0.145237615909644
663,0.145032055415076
664,0.144310198408968
665,0.144960207730872
666,0.145605415311454
667,0.145826466216662
668,0.146008976251389
669,0.143680553134519
670,0.144275313323476
671,0.144250600942584
672,0.143475627467566
673,0.143953695060024
674,0.144359172801887
675,0.144068855660726
676,0.144328811658568
677,0.1453774866246
678,0.143961930638212
679,0.144260956614028
680,0.147344791586734
681,0.144837621252913
682,0.14244592877482
683,0.140164731444329
684,0.136352829933789
685,0.132979219372529
686,0.130807246229717
687,0.127412928482279
688,0.126648251945914
689,0.127145312608935
690,0.127954203495788
691,0.130367729403304
692,0.130376449368544
693,0.131780530852643
694,0.133558248961407
695,0.133519059977353
696,0.136127855884869
697,0.13744428207705
698,0.13595309331447
699,0.136715667317151
700,0.139238783903903
701,0.138403769919561
702,0.141446559638933
703,0.142417215979283
704,0.145508480301388
705,0.146233470585945
706,0.148899221421184
707,0.151038809810478
708,0.152265253807989
709,0.154991167669452
710,0.154074864025097
711,0.154977331100387
712,0.156596850009701
713,0.150785655395625
714,0.147912283008897
715,0.140698766903334
716,0.134431277297607
717,0.128672570083708
718,0.127633917791154
719,0.128577824654756
720,0.13084253211897
721,0.130498848987156
722,0.135532341453955
723,0.135502979230721
724,0.135532156313928
725,0.13576442924212
726,0.135983137160615
727,0.138809255398042
728,0.14071168994178
729,0.144873673980348
730,0.149107146418508
731,0.15479517591581
732,0.160781825171047
733,0.166896349031095
734,0.170905545661778
735,0.173545957589714
736,0.176803724706006
737,0.178981566506652
738,0.181159408307298
739,0.183337250107944
740,0.187657229702798
741,0.189559332935238
742,0.191873157360042
743,0.194186981784847
744,0.196500806209652
745,0.197529133615682
746,0.198623873146336
747,0.200164070274743
748,0.198983349946738
749,0.199766154886137
750,0.200432169902839
751,0.200100208131859
752,0.203018827717232
753,0.202338026904661
754,0.200936070948621
755,0.190193635237835
756,0.179451199527049
757,0.168708763816263
758,0.150170026964203
759,0.133406869876362
760,0.119209669124401
761,0.115660596439843
762,0.119812042429548
763,0.127176329807333
764,0.138338581736706
765,0.150055366139427
766,0.163944037234127
767,0.177988285632701
768,0.186253618097394
769,0.191795232758546
770,0.196857339315704
771,0.199361044438148
772,0.201370813041479
773,0.204683201771563
774,0.203218757437842
775,0.203758410019492
776,0.204426367801477
777,0.202848749979634
778,0.205740196457207
779,0.202989750344705
780,0.206206371303151
