"wavelength","measurement"
380,0.0182646350891283
381,0.0177285799610765
382,0.0177430290424183
383,0.0170993721870731
384,0.0178030632396685
385,0.0188742989137519
386,0.0198949634674698
387,0.021380673613969
388,0.022566493774963
389,0.0234858527516345
390,0.0237193465976387
391,0.0238636844310913
392,0.0246476475411517
393,0.0249898800616099
394,0.0256532642051436
395,0.027963354920904
396,0.0314967756997774
397,0.0357289244127808
398,0.0399610731257841
399,0.0441932218387874
400,0.0472278331371605
401,0.0513022078391083
402,0.05439833342076
403,0.0560982675521881
404,0.0576003981248416
405,0.0587788096533541
406,0.0610653125286823
407,0.0622213006035751
408,0.0634797855498
409,0.0656051551943562
410,0.0696794558809867
411,0.0707621321847718
412,0.0737156299942559
413,0.075645102029913
414,0.076738100336873
415,0.0779449237037084
416,0.0778662294519579
417,0.077919785773567
418,0.0795385285796534
419,0.0786676300186065
420,0.080564447588784
421,0.0810931463491485
422,0.081352950446628
423,0.0824689973284916
424,0.0824999045703541
425,0.0814997940190081
426,0.0813175838581537
427,0.0793750438023068
428,0.0767131805545283
429,0.0762465608951437
430,0.0768268533149533
431,0.0788281196274851
432,0.0822546345948182
433,0.0846695741375682
434,0.088937236600479
435,0.0906715947111244
436,0.0920523387353774
437,0.0935645984615909
438,0.0950768581878045
439,0.096589117914018
440,0.0972521876286784
441,0.0989606337661557
442,0.101431704892294
443,0.101865811697003
444,0.103618091912859
445,0.105370372128715
446,0.107122652344572
447,0.10830363666127
448,0.108578259274224
449,0.113307123495301
450,0.112716563835673
451,0.111875583821088
452,0.111643624795976
453,0.111411665770863
454,0.111179706745751
455,0.11120389437622
456,0.111188255947453
457,0.111826427453778
458,0.112798753734411
459,0.114375144157009
460,0.114690983134865
461,0.113431696292844
462,0.117337737601722
463,0.113972165696039
464,0.113066461138386
465,0.112407327601802
466,0.111278592687979
467,0.110694178551827
468,0.109886287681701
469,0.109367411145752
470,0.111534763437489
471,0.111561601709584
472,0.112531878749302
473,0.114209026718474
474,0.114816997336328
475,0.117015985218859
476,0.114798856198937
477,0.114863795603307
478,0.114928735007677
479,0.114993674412047
480,0.115217183844213
481,0.11289336344626
482,0.110784429294302
483,0.110531781119507
484,0.107391216788552
485,0.10489451092365
486,0.105672790922618
487,0.10619051137718
488,0.107355584893968
489,0.110487969377789
490,0.111048138936745
491,0.11198646943543
492,0.115227810371334
493,0.113551676916617
494,0.115925754455641
495,0.114474355587327
496,0.1151265535301
497,0.1131588925139
498,0.11389253177705
499,0.111600236427689
500,0.112342131235596
501,0.111332597054248
502,0.113039474538241
503,0.113660992606045
504,0.112743660690814
505,0.116265457627159
506,0.115981965734984
507,0.116712097494283
508,0.117498595223195
509,0.117483811747435
510,0.11579779763428
511,0.117400862244439
512,0.117180219335426
513,0.114222023160324
514,0.113590846729535
515,0.111606957976177
516,0.110689692131619
517,0.110420523697192
518,0.110090450409335
519,0.112033506178777
520,0.114465578500391
521,0.11615342446859
522,0.117841270436789
523,0.119529116404987
524,0.119389152737506
525,0.119521648579926
526,0.120166975733195
527,0.119390570629804
528,0.120519049360761
529,0.122243537253502
530,0.122401641126679
531,0.123162585518049
532,0.122713305592732
533,0.123966920795704
534,0.124786755541187
535,0.123161156159913
536,0.124418022205172
537,0.124048583105416
538,0.123360687210689
539,0.122207995815829
540,0.123061230884307
541,0.122419871573979
542,0.1216939519347
543,0.122621230006855
544,0.123318708904309
545,0.122687051041521
546,0.123893639052459
547,0.123915591987965
548,0.12393754492347
549,0.123959497858975
550,0.122963461509556
551,0.124306520481864
552,0.125502975673055
553,0.124212609832843
554,0.12391822661166
555,0.125060842969655
556,0.123476007154569
557,0.123463633263225
558,0.122525787750053
559,0.121701298232602
560,0.123078744242676
561,0.1210530219085
562,0.123434123381446
563,0.121597822876894
564,0.122609315313395
565,0.120898259846546
566,0.119988839544182
567,0.118801653128279
568,0.119792512970758
569,0.118349921870751
570,0.118531374209361
571,0.118718405038316
572,0.118849916754767
573,0.118851812801887
574,0.119647245871818
575,0.118250734477726
576,0.11860792719099
577,0.118965119904253
578,0.119322312617516
579,0.119679505330779
580,0.120036698044042
581,0.121851594125376
582,0.121108866695297
583,0.121991715773645
584,0.120072774296155
585,0.119550340550433
586,0.116461246492014
587,0.114867219640517
588,0.113580661427741
589,0.112294103214966
590,0.11100754500219
591,0.11122003881157
592,0.112637750997669
593,0.112839110006145
594,0.114640516986772
595,0.114686316756789
596,0.115844459926236
597,0.116466899312734
598,0.116634557896894
599,0.117099827313364
600,0.11825639169477
601,0.118818580449366
602,0.119861192687517
603,0.11930058903677
604,0.121059295383534
605,0.120121357834333
606,0.120531953122589
607,0.120340180212655
608,0.118912244195915
609,0.118946049109041
610,0.117954494521972
611,0.117383321417023
612,0.116386233840145
613,0.115891965790389
614,0.114911282711339
615,0.116151355996889
616,0.114693000638251
617,0.11570428592146
618,0.115798808369249
619,0.11621016114041
620,0.11616744835437
621,0.117034251201186
622,0.114837546523929
623,0.115200293478602
624,0.114592046459137
625,0.113983799439672
626,0.113375552420208
627,0.11323906225278
628,0.113067423910964
629,0.112783627291352
630,0.113912687672309
631,0.112062658792919
632,0.112861954199632
633,0.113549535338481
634,0.114134568568234
635,0.114258247901259
636,0.113297516691654
637,0.114464884250287
638,0.113671784363348
639,0.113854833915724
640,0.113611821572324
641,0.113178965222905
642,0.112806494713043
643,0.111907448128838
644,0.111008401544632
645,0.110109354960426
646,0.110245429270324
647,0.110215117652894
648,0.108218143427843
649,0.109928904628023
650,0.109107602750238
651,0.110227969389063
652,0.109045989843929
653,0.107629316311515
654,0.105584616806214
655,0.106801130938569
656,0.105462106637914
657,0.106531412019255
658,0.107836715442941
659,0.110904839959838
660,0.111798876517885
661,0.112616589597583
662,0.113108233035698
663,0.112840564860091
664,0.112718115179276
665,0.112745537900345
666,0.113087924987988
667,0.113189877265336
668,0.11359236593042
669,0.111656467633949
670,0.111985145680498
671,0.11208176965821
672,0.111633156081046
673,0.111965232719082
674,0.112494738045086
675,0.112176097736844
676,0.112549274064787
677,0.113363759196046
678,0.111982723654825
679,0.11189234083353
680,0.114420776969163
681,0.11265234596321
682,0.111183609969726
683,0.109659247802225
684,0.106505531779824
685,0.103994438206126
686,0.102543391957669
687,0.10016040793123
688,0.0997200650589916
689,0.100051678358713
690,0.101129212758618
691,0.103083922739006
692,0.103540750927108
693,0.104526501284381
694,0.106422154771317
695,0.106675241351586
696,0.108963645553872
697,0.110396224469283
698,0.109839110253371
699,0.110580289181558
700,0.113127429386656
701,0.112901877901864
702,0.115616614321737
703,0.116792109208816
704,0.11966425653839
705,0.120522275048664
706,0.123137697449994
707,0.125338287315558
708,0.127013520817809
709,0.129411921938092
710,0.1291752063916
711,0.130047794909862
712,0.131805115576537
713,0.127645393418586
714,0.125727216937988
715,0.119696834566455
716,0.114555899874044
717,0.110640064412863
718,0.109843061909627
719,0.111192384927465
720,0.113416397847917
721,0.113404704848419
722,0.117962673819631
723,0.118122717935652
724,0.118673381372754
725,0.119269220375471
726,0.1196845040275
727,0.12243590142883
728,0.124664986844755
729,0.128447101011865
730,0.132220498654995
731,0.137578169883797
732,0.142847610646574
733,0.148931541410679
734,0.152935168873044
735,0.154831016902618
736,0.158750899926599
737,0.160736381141324
738,0.162721862356048
739,0.164707343570772
740,0.168874016623439
741,0.170896009636388
742,0.173114397280406
743,0.175332784924424
744,0.177551172568442
745,0.178607549173623
746,0.179096042918632
747,0.181030278143583
748,0.179554664938623
749,0.181381649712556
750,0.181692857184848
751,0.181248528966628
752,0.183964496569703
753,0.183461411584772
754,0.182058397149284
755,0.172549116060244
756,0.163039834971205
757,0.153530553882165
758,0.136417412626326
759,0.121039181610342
760,0.108757773066232
761,0.105270434441073
762,0.109163921028469
763,0.115476506966271
764,0.125657395980094
765,0.136120565412587
766,0.148884909137699
767,0.161594685006774
768,0.168991765064101
769,0.174022188085182
770,0.178928522011358
771,0.180846888127469
772,0.183367234285294
773,0.185695022708668
774,0.184870245947846
775,0.184818047993993
776,0.1859652286589
777,0.183942804447817
778,0.187015987734957
779,0.184825863267161
780,0.187348316521732
