"wavelength","measurement"
380,0.00113104705269061
381,0.00121575524540119
382,0.00117969907759229
383,0.00118252262206549
384,0.00120484614057799
385,0.00136170865259359
386,0.00143315302860313
387,0.0015866865161678
388,0.00167098804073511
389,0.00174781726335939
390,0.00178277423433615
391,0.00188685600823507
392,0.00197520742483486
393,0.00206256083610463
394,0.00221852522979901
395,0.00248556025768628
396,0.00281979630107721
397,0.00322664137404198
398,0.00363348644700675
399,0.00404033151997153
400,0.00444370453263682
401,0.00479120389488607
402,0.00516966043281772
403,0.00535136753463146
404,0.00552801147576707
405,0.00562213271959834
406,0.0059288401733363
407,0.00614738649186537
408,0.00634233504961196
409,0.0065848495723192
410,0.00703408487587403
411,0.00712895594203636
412,0.00745845720176753
413,0.00759257940007835
414,0.007726145282484
415,0.00788350267721681
416,0.0078942134682999
417,0.00790404124472897
418,0.0080638169179664
419,0.00795854202733585
420,0.0081931705149638
421,0.00814760673823797
422,0.00826753320182587
423,0.0082897104811317
424,0.00836212869471521
425,0.00822008323734393
426,0.00811082977701377
427,0.00789874666540806
428,0.00766335741920901
429,0.0076447288475999
430,0.00768208058830694
431,0.00803151793052832
432,0.00831002732746614
433,0.00857081017188118
434,0.00894837126926159
435,0.00903718989989922
436,0.00917156338413964
437,0.00929968018982703
438,0.00942779699551441
439,0.0095559138012018
440,0.00959390038685483
441,0.00969579642411359
442,0.00993753460056106
443,0.00999470510044504
444,0.010146393123406
445,0.0102980811463669
446,0.0104497691693279
447,0.0105460464317522
448,0.0105896215204178
449,0.0109494131455339
450,0.0108526770268379
451,0.0107541126969473
452,0.0106862699908723
453,0.0106184272847974
454,0.0105505845787224
455,0.0105578653392796
456,0.0105921182628285
457,0.0106993170141525
458,0.0107526075018401
459,0.0108454632114836
460,0.0108649342873496
461,0.0107207917186463
462,0.0110161048271948
463,0.0107416763390402
464,0.0106051538585219
465,0.0105354611250597
466,0.0104004783721767
467,0.0104155929935242
468,0.0103716385473634
469,0.010266061177531
470,0.0105158335450753
471,0.0105417787261252
472,0.0105899018065
473,0.0107433507331932
474,0.0107685857223463
475,0.0109375417736377
476,0.0106955472970546
477,0.01074914147149
478,0.0108027356459253
479,0.0108563298203607
480,0.0108631105492851
481,0.0106192318945605
482,0.0104650165708944
483,0.0104229576870261
484,0.0102278431938822
485,0.0100070047600047
486,0.0101128484555294
487,0.0102184354513263
488,0.010264372440777
489,0.0105596868729206
490,0.0106310135649199
491,0.0106517143565638
492,0.0109457539625078
493,0.0107934738018872
494,0.0109190639558269
495,0.0107586464765067
496,0.0107733401074976
497,0.0106053854887241
498,0.0106084575418449
499,0.0103326007950429
500,0.0103741596056192
501,0.0102123106443099
502,0.0102949156780983
503,0.0103506707565506
504,0.0102522062650333
505,0.0105259436808712
506,0.0104827318807679
507,0.010557333776154
508,0.0106403763971147
509,0.0106638130534711
510,0.010527690990127
511,0.0107123692894832
512,0.0106414384031085
513,0.0103199394924232
514,0.010254748597211
515,0.0100919529299104
516,0.0100603353652191
517,0.0100511746315186
518,0.010053743067379
519,0.0102424045571465
520,0.0104265675435496
521,0.0105185439083953
522,0.010610520273241
523,0.0107024966380868
524,0.0106641973227109
525,0.0107016483964632
526,0.0106656508854404
527,0.0106195056697616
528,0.0107219221123136
529,0.0108685856363677
530,0.0108350196337358
531,0.0108275489525745
532,0.010810253301123
533,0.0109057466766078
534,0.0109442948866372
535,0.0107992014824126
536,0.0109280747999256
537,0.0108329483814417
538,0.010718929911672
539,0.010621015645172
540,0.0106435653655316
541,0.0105694645320646
542,0.0105013636052683
543,0.0105395190525465
544,0.010622500223323
545,0.0105219448630353
546,0.0106257771490308
547,0.0106197836117962
548,0.0106137900745616
549,0.010607796537327
550,0.0105492985198106
551,0.0106628083397295
552,0.0107052703146814
553,0.0106041253305559
554,0.0105603580519895
555,0.0106235688009609
556,0.0104412132523751
557,0.0104132875403259
558,0.0102748464791798
559,0.0101550529857082
560,0.0102635301600902
561,0.0100546492870999
562,0.0101374139294934
563,0.00994983410308848
564,0.00992965610376753
565,0.00971286529911218
566,0.00958517951117856
567,0.00935036790774684
568,0.00937828327827476
569,0.0091546817978467
570,0.0091035748144154
571,0.00906538806338517
572,0.00905218889885842
573,0.00898957666947285
574,0.00903079816236842
575,0.00891735734467219
576,0.00899271112966497
577,0.00906806491465776
578,0.00914341869965055
579,0.00921877248464333
580,0.00929412626963612
581,0.00946161442608897
582,0.00942966662325265
583,0.0095268468284624
584,0.00927939291297365
585,0.00911435502865518
586,0.00874969124893167
587,0.00851464991190484
588,0.00833786983944588
589,0.00816108976698693
590,0.00798430969452797
591,0.00803956750916416
592,0.00816673894695518
593,0.00822360984101785
594,0.00847161059701726
595,0.00850410987063928
596,0.0087369267433609
597,0.00887223380269534
598,0.00902301222125348
599,0.00912781568684131
600,0.00933321587992751
601,0.00947742280181738
602,0.00959561696130309
603,0.00958310285507906
604,0.00972381679592397
605,0.00968252624743675
606,0.00968226886176874
607,0.00969767280637992
608,0.00958600585577494
609,0.00956867051924598
610,0.00951685990346948
611,0.00947885343283074
612,0.00944233484756916
613,0.00937183558406346
614,0.00927063894289677
615,0.00938595518304704
616,0.00929666465209707
617,0.00940377348793784
618,0.00941214783377184
619,0.0094004347366616
620,0.00938087002324305
621,0.00938131616327706
622,0.00919148365783866
623,0.00912156443700096
624,0.00900101526343872
625,0.00888046608987648
626,0.00875991691631424
627,0.00870369403800991
628,0.0086425777999327
629,0.00864951026500457
630,0.00875655741481674
631,0.00869269221728575
632,0.00881898963365142
633,0.00895002880713649
634,0.00900195601015175
635,0.00912063389835869
636,0.00906217211558707
637,0.0091865225758616
638,0.00914322480305064
639,0.00923621130418469
640,0.00920467005441128
641,0.00916992324281884
642,0.00908408089200741
643,0.00891676659881287
644,0.00874945230561833
645,0.00858213801242379
646,0.00854265279403604
647,0.00848526945694566
648,0.00830134618382415
649,0.008467680849418
650,0.00845273421578414
651,0.0085161605569302
652,0.00843239892634204
653,0.00838591190990274
654,0.00826698491240874
655,0.00841697833247159
656,0.00842110064925785
657,0.00860609825065697
658,0.00873526748312934
659,0.00908057831109226
660,0.00919027655654256
661,0.0092300508965525
662,0.00931542601761539
663,0.00930138513715075
664,0.00930341511528283
665,0.00935684985621537
666,0.00941388792999861
667,0.00941940432892431
668,0.00947922838606699
669,0.00929794057969135
670,0.00933316849987125
671,0.00934257980136831
672,0.00935799621140221
673,0.00937608704019799
674,0.00939675138736425
675,0.00944796030779009
676,0.00942933569288633
677,0.00949759088876822
678,0.00940039001585634
679,0.00939085791857865
680,0.00959573365896836
681,0.00942600747547669
682,0.00914595151099785
683,0.00888537450197616
684,0.00843788893789397
685,0.00804436513657949
686,0.00772184840427507
687,0.00748692014154607
688,0.00741756623818699
689,0.0074632403128328
690,0.00757709062513238
691,0.00778343741287203
692,0.00787356835813919
693,0.00810562623572733
694,0.00833544472762318
695,0.00844155144762594
696,0.0087086053036874
697,0.00882035776183625
698,0.00880775252308697
699,0.00890145125677141
700,0.00921552797917009
701,0.00930830597750248
702,0.00966690248153837
703,0.00990108884040525
704,0.0102387568646319
705,0.0104889735026854
706,0.0108351220877671
707,0.0111528353989917
708,0.0114079255779605
709,0.0116874175256728
710,0.0117758727952988
711,0.0118466117442508
712,0.0118235188300271
713,0.0111610095761536
714,0.0106693345801017
715,0.00983030684743211
716,0.0091361364250449
717,0.00871660059255569
718,0.00865317701164215
719,0.00881673323043929
720,0.00912126789192215
721,0.00913554907973833
722,0.00942784247327295
723,0.00945121814796967
724,0.00945181430347015
725,0.00960368112282087
726,0.00966359289223037
727,0.0100542108068419
728,0.0105346669555261
729,0.0111993858763312
730,0.0119223554920918
731,0.0128262771459248
732,0.0137172426682046
733,0.0145948806996367
734,0.0152339287189675
735,0.0158029652210274
736,0.0164374110551954
737,0.0170133834402061
738,0.0175893558252169
739,0.0181653282102276
740,0.0189641023162198
741,0.0194559240868431
742,0.0199022457500047
743,0.0203485674131662
744,0.0207948890763277
745,0.0211043523539666
746,0.0212879806208839
747,0.0215216639211144
748,0.0213890988882983
749,0.0216968525898395
750,0.0218302930843444
751,0.021880911870251
752,0.0222214151965615
753,0.0220227559244359
754,0.0216599686219851
755,0.0198072820405829
756,0.0179545954591808
757,0.0161019088777786
758,0.0132244433421092
759,0.0106046021395372
760,0.00902629638895127
761,0.00855729829978368
762,0.00890885462085873
763,0.0101984630882136
764,0.0120587024655353
765,0.0139462115119902
766,0.0162091340086775
767,0.0182905415627242
768,0.0195939445336987
769,0.0206449548909268
770,0.0214810572785324
771,0.0220084327413532
772,0.0224032250411071
773,0.0228153844758557
774,0.0227361372663703
775,0.0228350748116382
776,0.0229276102736358
777,0.0227415531131707
778,0.0230516845122998
779,0.0227635671063683
780,0.0230485742334576
