"wavelength","measurement"
380,0.00182261512471183
381,0.00178734336441701
382,0.00184901664129865
383,0.00179355163090794
384,0.00190485527981946
385,0.00206996344057596
386,0.0021635175458314
387,0.00231800290026128
388,0.00248645765590989
389,0.00266087712955091
390,0.0026903981067888
391,0.00279294104851591
392,0.00288936992341038
393,0.0030176742654599
394,0.00325510918804713
395,0.00355640521099575
396,0.00402567291488433
397,0.00461224330231184
398,0.00519881368973935
399,0.00578538407716686
400,0.00614794263341577
401,0.00661713585618852
402,0.00705327192388235
403,0.00729451795418281
404,0.00751871878102292
405,0.00779648810935733
406,0.00814069185457462
407,0.00840233385108852
408,0.00871991275130194
409,0.00912506257121298
410,0.00979677190249964
411,0.0100512885593542
412,0.0106343464979027
413,0.0111487618158353
414,0.0114015628603295
415,0.0118012999644444
416,0.0119534083966768
417,0.0121925552200707
418,0.0126211608220375
419,0.0126081382454129
420,0.0131644876397284
421,0.0133103730291562
422,0.013602305644314
423,0.0138425935076851
424,0.0139953974734059
425,0.0137269333533494
426,0.0137474648774581
427,0.0135279082171182
428,0.0132439734657041
429,0.0132493212473087
430,0.0133759752846231
431,0.0140003784042765
432,0.0144630309147165
433,0.0149561144137657
434,0.0155457424431345
435,0.0159025048317384
436,0.0160923029327493
437,0.0163297813041592
438,0.016567259675569
439,0.0168047380469789
440,0.0168862573397599
441,0.017058171854793
442,0.0173532682971297
443,0.0174800434095951
444,0.0176466957290208
445,0.0178133480484466
446,0.0179800003678723
447,0.0181724936635345
448,0.0180846728467596
449,0.0185950296488772
450,0.0183850677157173
451,0.0181152439449765
452,0.0179771373544873
453,0.0178390307639981
454,0.0177009241735089
455,0.0176856475002847
456,0.0177186743033866
457,0.0177715429188873
458,0.0178192927136186
459,0.0180470215105235
460,0.0180711156081289
461,0.0178088301910922
462,0.0183309133842053
463,0.0177782842677455
464,0.0176076869690507
465,0.0175136415707647
466,0.0172878289778103
467,0.0172481915511465
468,0.0170933805474781
469,0.0170068836831777
470,0.0173507321658924
471,0.0173256836983991
472,0.01739668940239
473,0.0176062917156563
474,0.0176329164313574
475,0.0178088750789545
476,0.0174647210159234
477,0.0174894845174541
478,0.0175142480189849
479,0.0175390115205157
480,0.0175214890444524
481,0.0170747095994711
482,0.0168223522552759
483,0.0167656406946405
484,0.0163630291533087
485,0.0160215050844442
486,0.0161311876491843
487,0.016292782993378
488,0.0163713840610156
489,0.0168284753160272
490,0.0168326881820447
491,0.0169902276113043
492,0.0173168122818666
493,0.0170590079460222
494,0.0173011137249394
495,0.0170290736306261
496,0.0170075224424459
497,0.0167233710457781
498,0.0167629676577787
499,0.0162799050692463
500,0.0163193004966084
501,0.0160893908950163
502,0.0162737614715899
503,0.0162947728396191
504,0.0160686320840868
505,0.0165515302043813
506,0.0164626480315707
507,0.0165331110508827
508,0.0166300352761372
509,0.0166811749055324
510,0.0164081589430127
511,0.0166296809204172
512,0.0164670763846517
513,0.0160197655936088
514,0.0159025012413188
515,0.0155886265479363
516,0.0155145691669272
517,0.0154695644244833
518,0.0154077003458004
519,0.0156606832683849
520,0.0159021775847541
521,0.016029629359269
522,0.0161570811337839
523,0.0162845329082989
524,0.016167040980095
525,0.01613224067917
526,0.0161604717402322
527,0.0160446837242421
528,0.0161003549309854
529,0.0162841328415642
530,0.0162678312036523
531,0.0162273195485806
532,0.0161536067810381
533,0.0163004230597926
534,0.0163164732813507
535,0.0160686985334581
536,0.0162666274013757
537,0.0160837379051482
538,0.0159263834423923
539,0.015777959091925
540,0.0158041974503125
541,0.0156339174019472
542,0.01550500685575
543,0.0156111832276591
544,0.015670402981631
545,0.015542083087956
546,0.0156489714865312
547,0.0156450350170729
548,0.0156410985476145
549,0.0156371620781562
550,0.0155659497947916
551,0.0156741673950823
552,0.0158120681561845
553,0.0155978010914631
554,0.0155113555769227
555,0.0156560125142816
556,0.0153817801885113
557,0.0153297090014649
558,0.0151625608364464
559,0.0149976916810724
560,0.0151155603970767
561,0.0147973368636085
562,0.015012934066318
563,0.0147081546156258
564,0.0147077744816792
565,0.0143812528970897
566,0.0142102185390753
567,0.0139009743139659
568,0.0139317742626737
569,0.0136286928850191
570,0.013583817761217
571,0.0135548339232984
572,0.0135064947824377
573,0.0134555595314569
574,0.0135656138454687
575,0.0133834170044658
576,0.0134959909592815
577,0.0136085649140973
578,0.013721138868913
579,0.0138337128237287
580,0.0139462867785444
581,0.0142228671348901
582,0.0141725892295614
583,0.0142854808558254
584,0.0139450705529974
585,0.0137869924875632
586,0.0131930694039827
587,0.0127853986880877
588,0.012543924766337
589,0.0123024508445862
590,0.0120609769228355
591,0.012161350698667
592,0.012336185947376
593,0.0123992951480862
594,0.012738115708749
595,0.0128308614233881
596,0.0131319021354253
597,0.0133455769769845
598,0.0135587114665971
599,0.0137215726880382
600,0.0139852336136579
601,0.0142123190584426
602,0.014368141894476
603,0.0144095167766771
604,0.0146072407838997
605,0.0145566676518453
606,0.0146126463908453
607,0.0145650161070132
608,0.0144188557803131
609,0.0144307786124531
610,0.0143645321056427
611,0.0143158322223593
612,0.014212777467756
613,0.014158858833063
614,0.0140559685140133
615,0.0142095771649607
616,0.0140540847125887
617,0.0142201173254453
618,0.014214454404868
619,0.0142608345164771
620,0.0141963505282249
621,0.0142766704632285
622,0.0139671252205989
623,0.0138527582509293
624,0.0136697174090587
625,0.013486676567188
626,0.0133036357253174
627,0.0132430373384638
628,0.0131279189122765
629,0.0131576682576822
630,0.0133680345343643
631,0.013284358252673
632,0.0134244104377063
633,0.013614526271377
634,0.0137390060402179
635,0.0138562131324132
636,0.0138367695827109
637,0.0140387728532755
638,0.0139518746455352
639,0.0140671680202444
640,0.0140182663143158
641,0.0139900790969407
642,0.0138490754239003
643,0.0136299964394792
644,0.013410917455058
645,0.0131918384706369
646,0.0131154209555885
647,0.0130084071018721
648,0.0127668898132861
649,0.0130263063609648
650,0.0129736809113909
651,0.0130669242494063
652,0.0130121626864778
653,0.0128661560376555
654,0.0127120373612651
655,0.0129414749894149
656,0.0128925944972881
657,0.0131717664888105
658,0.013453252403234
659,0.0138862879407294
660,0.014113852823969
661,0.0142357044664589
662,0.0143241935872469
663,0.0143208434689421
664,0.0142983036670011
665,0.0144031460290722
666,0.01446101865698
667,0.014508885420652
668,0.0145140038165571
669,0.0143077258118081
670,0.0144293149096839
671,0.0144157848261373
672,0.0143901245825812
673,0.0144402560650097
674,0.0145198965827142
675,0.014497766176673
676,0.0144988964951605
677,0.0146127060061804
678,0.0144542544393956
679,0.01446370569661
680,0.0147781659319591
681,0.0145916971536323
682,0.0140431759444685
683,0.0136195864727211
684,0.0129563048826141
685,0.0123353954240629
686,0.0118164109134397
687,0.0114747445388653
688,0.0113362397971038
689,0.0113455938099466
690,0.0115231954102002
691,0.0118102711810913
692,0.0118920726969506
693,0.0121200763054755
694,0.0124388922151272
695,0.0126208102819589
696,0.012888928149354
697,0.0130248516585169
698,0.0129359791250396
699,0.0130306635564785
700,0.0133596546395223
701,0.0134122537622773
702,0.0138957136402788
703,0.0141296166285841
704,0.0144967853375601
705,0.0147596266289627
706,0.0152251921088919
707,0.0155778400806558
708,0.0158197644367101
709,0.0162674040238092
710,0.0161971254454984
711,0.0162245139961853
712,0.0161411751245399
713,0.0152182552212435
714,0.0144980088047294
715,0.0132663422448258
716,0.012282136202697
717,0.0116644650011017
718,0.0115312638677138
719,0.0116726168882556
720,0.011962454356334
721,0.0120433195815791
722,0.0123149327804513
723,0.0122786195742679
724,0.0122908559985052
725,0.0124283158567147
726,0.0124779760250585
727,0.0129214440702591
728,0.0134869842853426
729,0.0142485176533406
730,0.0151365408155466
731,0.0162537051217769
732,0.0173017526419518
733,0.0183262771915926
734,0.0191077075299298
735,0.0197465579750988
736,0.0204777258375651
737,0.0211279998237855
738,0.0217782738100059
739,0.0224285477962263
740,0.0234080119799333
741,0.0239528498079597
742,0.0244713423856901
743,0.0249898349634204
744,0.0255083275411508
745,0.025900631937592
746,0.0261011218685241
747,0.0263341318378717
748,0.0262185446198267
749,0.0265450149959426
750,0.026744847704776
751,0.0266692025944418
752,0.0271162125134938
753,0.0269627797603837
754,0.0264310768815911
755,0.0241675972764417
756,0.0219041176712923
757,0.0196406380661429
758,0.0161582109232047
759,0.013016723253221
760,0.0110905398622653
761,0.0105010497373631
762,0.0109777727057622
763,0.0125437112334243
764,0.0147744882582217
765,0.0170691273987508
766,0.0197307556557521
767,0.0224013185874666
768,0.0239912426070256
769,0.02529715315088
770,0.0262797100064622
771,0.0267982512329233
772,0.0273645144117573
773,0.0278439064788532
774,0.0277734623154953
775,0.0278472361323546
776,0.0279730071146689
777,0.0277264110928105
778,0.0281262666596007
779,0.0277652197247705
780,0.0280986795445342
