"wavelength","measurement"
380,0.0011755275680987
381,0.00118216656218443
382,0.00117235381327986
383,0.00114616519695401
384,0.00125569709193237
385,0.00134826523143187
386,0.00144028872242685
387,0.0015332959135428
388,0.00167749632014093
389,0.00169880002640051
390,0.00177387715588783
391,0.0018382883302177
392,0.00189290834073416
393,0.00203446744000376
394,0.00219617771269887
395,0.00240398852620047
396,0.00272567422195701
397,0.00314431328089214
398,0.00356295233982728
399,0.00398159139876241
400,0.00420795698494162
401,0.00462094088964321
402,0.00495058831934289
403,0.00511926149716332
404,0.00525548370313845
405,0.00538735560471623
406,0.00562106530272818
407,0.00580430860283869
408,0.0059715454079622
409,0.00624399368855745
410,0.00659732166833322
411,0.00674088237663753
412,0.00705010527278821
413,0.00722873076621938
414,0.00722519128175284
415,0.00737485862050822
416,0.00736147504638321
417,0.00733910419657594
418,0.00752715882364325
419,0.00735876531424752
420,0.00753834812137111
421,0.00755223840883405
422,0.00761065272349026
423,0.00767702567362694
424,0.00773862676595771
425,0.00755521589158201
426,0.00746138607683322
427,0.00724941908957176
428,0.00704508194025767
429,0.00699520873681586
430,0.00709506796768294
431,0.00738379560605999
432,0.00757461464659657
433,0.00782642941228393
434,0.00817293091391108
435,0.00828058469951277
436,0.00837977315337078
437,0.00849762511438414
438,0.00861547707539749
439,0.00873332903641085
440,0.008736193775671
441,0.00887872774241443
442,0.00903143630252659
443,0.00912053475627283
444,0.00926016433754184
445,0.00939979391881085
446,0.00953942350007986
447,0.00965085537393891
448,0.00974382591345917
449,0.0100515529354026
450,0.00993630342016481
451,0.00985183794205548
452,0.00981617231486669
453,0.0097805066876779
454,0.00974484106048912
455,0.00968778042933199
456,0.00972938863487056
457,0.00983636763438995
458,0.00982856247128872
459,0.0099999166618961
460,0.00997470392304725
461,0.0098810453281129
462,0.0101303531348546
463,0.00983611706485121
464,0.00975890761404545
465,0.00970926587886897
466,0.00959260691353085
467,0.00958189153014527
468,0.00951519160434513
469,0.00947834460617425
470,0.0096640779187159
471,0.00968871554490864
472,0.0097596261515638
473,0.00984975451206702
474,0.00989372769886824
475,0.0100604800186797
476,0.00984411866106401
477,0.00989315462542349
478,0.00994219058978298
479,0.00999122655414247
480,0.0100565655565941
481,0.00972948195815918
482,0.00964313739144545
483,0.00958642583081
484,0.00939646551745834
485,0.00917959594193082
486,0.0093530344775973
487,0.00940110624517663
488,0.00950112685557165
489,0.00972868936973698
490,0.00975337080515482
491,0.00986568918706221
492,0.0100677144616233
493,0.00993596843692872
494,0.0100884517696066
495,0.00991716956669975
496,0.00995510402622808
497,0.00976043469401837
498,0.00979331109429554
499,0.00952460922156377
500,0.00957718015836623
501,0.00942532282716887
502,0.00956561239230765
503,0.00957199801652701
504,0.00947467339487999
505,0.00974326740493086
506,0.00972017900309753
507,0.00976690391603863
508,0.00986610142046104
509,0.00990117865701051
510,0.00975066617666283
511,0.00993134158415781
512,0.00984422621916743
513,0.00958471002392808
514,0.0095213024627616
515,0.00936974986454607
516,0.00934294227405094
517,0.00936351733357903
518,0.00935540702390595
519,0.0095436603599842
520,0.00971378639012561
521,0.00981339955172272
522,0.00991301271331983
523,0.0100126258749169
524,0.00997930188148284
525,0.0100207968144642
526,0.0100177272667443
527,0.00998392673946946
528,0.0100571230266507
529,0.0101878502092373
530,0.0101593217710199
531,0.010196083493879
532,0.0101595401992652
533,0.0102349519642356
534,0.0102813246505513
535,0.010185162226447
536,0.0102605332708579
537,0.0102012148376069
538,0.0100893089765421
539,0.00998313954224173
540,0.0100425804561256
541,0.00995325541111646
542,0.00987429360838946
543,0.00989035393360249
544,0.0099949849295979
545,0.009886327542192
546,0.00998995998913027
547,0.0100112077093383
548,0.0100324554295462
549,0.0100537031497542
550,0.00993152322289389
551,0.010054752616893
552,0.0101082567567753
553,0.00996712746799248
554,0.0099299706761281
555,0.00999584173507389
556,0.0098485643524758
557,0.00977262826261095
558,0.00971500958610696
559,0.00961264655096144
560,0.00967592486782393
561,0.00948308037882188
562,0.0095724698317112
563,0.00938802926669257
564,0.00934332471741628
565,0.00915111679840498
566,0.00902445214016598
567,0.00884396970760728
568,0.00880820152131834
569,0.00864925147704294
570,0.00856887334790931
571,0.00855934370781014
572,0.00854231196839832
573,0.00849713010622793
574,0.00852225117833984
575,0.0084115109282335
576,0.00847868450929259
577,0.00854585809035168
578,0.00861303167141077
579,0.00868020525246986
580,0.00874737883352895
581,0.00891643580229906
582,0.00890530177172622
583,0.00894114644228726
584,0.00875837129450921
585,0.0086321734787605
586,0.00826322352080131
587,0.00801845454097673
588,0.00786775253564224
589,0.00771705053030775
590,0.00756634852497325
591,0.0076225722305905
592,0.00771977635424866
593,0.00782984099657657
594,0.00801940855306551
595,0.00806064321086202
596,0.00824406210396015
597,0.00841645564493239
598,0.00857134528064513
599,0.00863266971821585
600,0.00884219308914949
601,0.00900522821411155
602,0.00910700859279455
603,0.00912755263003077
604,0.00924388690321966
605,0.00920178196248795
606,0.00927071205292265
607,0.00923628218497595
608,0.00912773059032673
609,0.00914169122251766
610,0.00909592234199667
611,0.00906921032126268
612,0.00901127925245355
613,0.00896640844998666
614,0.00887042400888729
615,0.00898342609748671
616,0.00889218321649791
617,0.00898627129855682
618,0.0089955126211297
619,0.00901594474542373
620,0.00896531779751782
621,0.00899754565131979
622,0.00880699887477468
623,0.0087695113083594
624,0.00866120338702276
625,0.00855289546568613
626,0.0084445875443495
627,0.00835798909306847
628,0.00831081318480107
629,0.00832482165692453
630,0.00845667829031164
631,0.00840744988636998
632,0.00851615617817555
633,0.00866223741696821
634,0.00867330682030862
635,0.0087807324722595
636,0.00877020542989116
637,0.0089047529903258
638,0.0088303351757862
639,0.00891522910218026
640,0.00886116044101149
641,0.00882782438217441
642,0.00876914556696883
643,0.00861777814979515
644,0.00846641073262147
645,0.00831504331544778
646,0.00825404515411799
647,0.00815250618987175
648,0.00805214504659053
649,0.00821376530560342
650,0.00815895714575276
651,0.00825364052913751
652,0.00817951986572527
653,0.00813516547610953
654,0.00802832149667823
655,0.00815937866681425
656,0.00815498108557666
657,0.00839819722731176
658,0.00852301707382066
659,0.00881701577806418
660,0.00890295355776496
661,0.00896561390144254
662,0.00906096361573529
663,0.00904907737943948
664,0.00904251845834217
665,0.00909828606674258
666,0.00914744143887706
667,0.00915825646917881
668,0.00918674163900111
669,0.00904741668703615
670,0.00913227557110529
671,0.00913799137692851
672,0.00913940217493766
673,0.00916801901727302
674,0.0092041026910003
675,0.00921285401261966
676,0.00919131946609639
677,0.00931555345648791
678,0.00920697364961585
679,0.00920935147643128
680,0.00944304690309566
681,0.00930591552822392
682,0.00900374170299335
683,0.00872009022496471
684,0.00832840662564411
685,0.00796039268185641
686,0.00765268728051242
687,0.00743255982941938
688,0.00737339796475152
689,0.00740626366173737
690,0.00761303297338642
691,0.0077847692613955
692,0.00791772861542204
693,0.00809188901815711
694,0.00837989339103889
695,0.00852072035195492
696,0.0087574425132323
697,0.00891642939052699
698,0.00884769937844188
699,0.00897090168948221
700,0.00930502576443209
701,0.00941028616894735
702,0.00978085192412797
703,0.0100137405408524
704,0.010447549839938
705,0.0106278964568349
706,0.0109665069935919
707,0.0113657073754078
708,0.0115747642808631
709,0.0118984965679773
710,0.011982479453521
711,0.0120915475586932
712,0.0120896572908607
713,0.0114449152082929
714,0.0109589161718542
715,0.0100786931371765
716,0.00939937821022152
717,0.00895065421818093
718,0.00890427695229584
719,0.00910125285733865
720,0.00938341461189188
721,0.00943425624972009
722,0.0097405120494579
723,0.00976935410356924
724,0.00978902623377008
725,0.00990644319636769
726,0.0100047388592601
727,0.0103805791134375
728,0.0108679719607906
729,0.0115657946423078
730,0.0123153877828327
731,0.0132422940194201
732,0.014150312976985
733,0.015023587478402
734,0.0156897734311931
735,0.0161943554952293
736,0.0168894316545715
737,0.0174739224361853
738,0.018058413217799
739,0.0186429039994127
740,0.019459326065268
741,0.0199306310105682
742,0.0203943762030787
743,0.0208581213955893
744,0.0213218665880999
745,0.0216089752174682
746,0.0217563283799614
747,0.0220966172008784
748,0.0219807899752718
749,0.0222603547226602
750,0.0224071638741686
751,0.0223706671670349
752,0.0227326781817408
753,0.0226214324181293
754,0.0222420030160304
755,0.0203486045044245
756,0.0184552059928186
757,0.0165618074812127
758,0.0135542556768068
759,0.0109393559179808
760,0.00933186860543277
761,0.00887589966831125
762,0.00924193386638908
763,0.0105736057680864
764,0.0124526188802055
765,0.0143944650190305
766,0.016697657832409
767,0.0188272437203839
768,0.020170367511554
769,0.0212866947240046
770,0.0221327325615089
771,0.0225938893385361
772,0.0230521717568943
773,0.0233980245224312
774,0.0234001577399979
775,0.0235121289867006
776,0.0236042490975073
777,0.0233654646425108
778,0.0236970946635963
779,0.0233557872185926
780,0.0237233915103206
