"wavelength","measurement"
380,0.00145433375912306
381,0.00149018150510517
382,0.00147095457444381
383,0.00152313468260923
384,0.001558362867738
385,0.00163865861288826
386,0.00178241421402473
387,0.00190402949078251
388,0.0020696714846811
389,0.00213157831557291
390,0.00222121496251744
391,0.00232645317852538
392,0.00238464149448346
393,0.00249052833420778
394,0.00267061450839434
395,0.00295497659989883
396,0.00331564890519683
397,0.00378170262126449
398,0.00424775633733215
399,0.0047138100533998
400,0.00509855518372394
401,0.0055961497499576
402,0.00591946428792533
403,0.00617155911895913
404,0.00640208113490492
405,0.00656813063306635
406,0.00690329986681774
407,0.00707729595093958
408,0.0073507392308941
409,0.00771468087604253
410,0.0082707217218059
411,0.00849314765677478
412,0.00891601809336476
413,0.00931786348006486
414,0.00947017714160047
415,0.00980722365047386
416,0.0099098338557603
417,0.0099927934124186
418,0.0103413176667236
419,0.0103357211872865
420,0.0107569653102625
421,0.0108682282695346
422,0.0110152584795087
423,0.0112725968697862
424,0.0113604532480221
425,0.0111686988069904
426,0.0111627498088622
427,0.0108852188739175
428,0.0106678365497056
429,0.0107060393289691
430,0.0107967471775532
431,0.0112227266328681
432,0.0116809814928431
433,0.0120187125583353
434,0.0125702391426447
435,0.0128353660515012
436,0.0129069948010394
437,0.0131214618889639
438,0.0133359289768883
439,0.0135503960648128
440,0.0135666211114934
441,0.0137239304179192
442,0.0140193089394208
443,0.0140754350098512
444,0.0142301225141602
445,0.0143848100184691
446,0.0145394975227781
447,0.0147099058782716
448,0.0146902271966492
449,0.0149933901141105
450,0.0149198745034076
451,0.0147430847687672
452,0.0146484087203595
453,0.0145537326719518
454,0.0144590566235441
455,0.0144145764847508
456,0.014347191483143
457,0.0144804435464246
458,0.0145105182030107
459,0.0147283299524506
460,0.0147128305578804
461,0.0145921506335717
462,0.0149434178459148
463,0.0145346060859496
464,0.0143272472148041
465,0.0142607118274552
466,0.0140958859539743
467,0.0140828403215205
468,0.0139778815944536
469,0.0139069749899953
470,0.0141541974363263
471,0.0141444295505592
472,0.0142532520424827
473,0.0143841148529467
474,0.0144082342747479
475,0.0145570570992395
476,0.0142751607366877
477,0.0143128744091389
478,0.0143505880815901
479,0.0143883017540413
480,0.0143946492416602
481,0.0140243621320894
482,0.0138270545903355
483,0.013730901114455
484,0.0134632258911948
485,0.0131767855834645
486,0.0132964711092008
487,0.0134059720489771
488,0.0135064068169051
489,0.0138495446828582
490,0.0138565093999557
491,0.0140020828958713
492,0.0142614844440887
493,0.0140759971004285
494,0.0142567056552187
495,0.0140358710572154
496,0.0140567026014703
497,0.0137809099961163
498,0.013802245417635
499,0.0134709689523287
500,0.0134914259583151
501,0.0132983290113265
502,0.0134582417621598
503,0.0134406957841314
504,0.0132742773820602
505,0.0136551926449141
506,0.0136056843095961
507,0.0136942297219244
508,0.0137868333708745
509,0.013829333626772
510,0.0136004398645396
511,0.0137861665677944
512,0.0136804502243602
513,0.0132981679877434
514,0.0132060169554168
515,0.0129898701534763
516,0.0128871123239369
517,0.01288445633145
518,0.0128280573797653
519,0.0130981609281447
520,0.0132708173077634
521,0.0133800931128662
522,0.013489368917969
523,0.0135986447230719
524,0.0135128454320921
525,0.0135288169004186
526,0.0135586253842498
527,0.0134167557688801
528,0.0135289205783611
529,0.0136720839181816
530,0.0136433171232792
531,0.0136336528029712
532,0.0135739532201516
533,0.0137208769281484
534,0.0137496456929752
535,0.0135800733867382
536,0.013671222874972
537,0.0135543425870868
538,0.0134192821665022
539,0.0132982134506944
540,0.0133189243419525
541,0.013221712869758
542,0.0130694877107437
543,0.0131040823004768
544,0.0132503179388024
545,0.0131036364273317
546,0.0132173423285728
547,0.0132241643784757
548,0.0132309864283786
549,0.0132378084782816
550,0.0131438306852119
551,0.0132426437773761
552,0.0133160426433371
553,0.0132029105096562
554,0.0130934057371808
555,0.0132155805155995
556,0.0130077064638914
557,0.0129325836244415
558,0.0128283662769259
559,0.0126580625889187
560,0.0127802719218361
561,0.0125083712222917
562,0.0126591897046582
563,0.012416290456824
564,0.012388784039164
565,0.0121243916794158
566,0.0119754563241918
567,0.0117301491747671
568,0.0117255443545069
569,0.0114866064499157
570,0.0114029890519991
571,0.011379577281318
572,0.0113617591784647
573,0.0113047164509158
574,0.0113449218470428
575,0.0112144639113614
576,0.0113144251940065
577,0.0114143864766517
578,0.0115143477592968
579,0.011614309041942
580,0.0117142703245871
581,0.0119266064626327
582,0.0119126875508491
583,0.0119674584864469
584,0.0117219498196455
585,0.011553084720622
586,0.0110410389886135
587,0.0107052326632728
588,0.01049835458159
589,0.0102914764999071
590,0.0100845984182243
591,0.0101454757791513
592,0.0103137781120302
593,0.0103984516952043
594,0.0106453286520732
595,0.0107522127193738
596,0.0109933150171997
597,0.011174577298811
598,0.011350893212363
599,0.0114850319573081
600,0.0117249679904837
601,0.0118983080728916
602,0.012049059004511
603,0.0120541599440591
604,0.0122648541215947
605,0.012151032132371
606,0.0121931257321048
607,0.0121629520006094
608,0.0120489269515815
609,0.0120822908928156
610,0.0119829051874863
611,0.0119552811077743
612,0.0118531053802557
613,0.0118233759492537
614,0.0117058008940508
615,0.0118483142708318
616,0.0117621999099593
617,0.0118368593926616
618,0.0118253144643731
619,0.0118756550522006
620,0.0118089136838206
621,0.011842574706933
622,0.0115811110841108
623,0.011534899174385
624,0.0113760987525325
625,0.01121729833068
626,0.0110584979088275
627,0.0109714574779561
628,0.0109377750086658
629,0.0109358525928279
630,0.0110846534669076
631,0.0110131133168021
632,0.0111409997050948
633,0.0113245563498607
634,0.0113988057725845
635,0.0115257732831432
636,0.0114675356691598
637,0.0116577728047242
638,0.0115900920330649
639,0.0116877494554807
640,0.0116401367123652
641,0.0116044998947733
642,0.0115048823206059
643,0.0113075531830673
644,0.0111102240455286
645,0.01091289490799
646,0.0108171909711653
647,0.0107056600705736
648,0.0105616736430545
649,0.0108083865348242
650,0.0106867635370997
651,0.0108351134112561
652,0.0107398941062754
653,0.0106287537984632
654,0.010504885847591
655,0.0106648256784685
656,0.0106503196967337
657,0.0109253943326272
658,0.0111129330787495
659,0.0114895409792413
660,0.0116786979975284
661,0.0117588676162114
662,0.0118625832730854
663,0.011808802567333
664,0.0117913316304389
665,0.0118658058105667
666,0.0118964497693238
667,0.0119389234408939
668,0.0120199048152064
669,0.0118234855257128
670,0.0119072650719332
671,0.0118564033274222
672,0.011847410920731
673,0.0119222108968122
674,0.0119449564429427
675,0.011948564291668
676,0.0119649513729126
677,0.0120420530508265
678,0.0119272032292321
679,0.0118985572729418
680,0.0121595852131051
681,0.0119000130571091
682,0.0115524734293357
683,0.0112384449885796
684,0.0106755305394912
685,0.0101333214614852
686,0.00971212861169248
687,0.00941921644385019
688,0.00932116102487836
689,0.00933426992107533
690,0.00949597143561585
691,0.00975549044574072
692,0.00986038738766227
693,0.00998839261083356
694,0.0103099117038469
695,0.0104345002153274
696,0.010734782875807
697,0.0108237504861517
698,0.0107431420193272
699,0.0108413992080617
700,0.0111430892990747
701,0.0112887292282555
702,0.0116388531012006
703,0.0118840642316606
704,0.0122842702082066
705,0.012469317640391
706,0.012851184765725
707,0.0132227124842896
708,0.0134193661138865
709,0.0138143555300955
710,0.01377371377384
711,0.0138460017412049
712,0.0137877034813125
713,0.0129868920541529
714,0.0124299636707331
715,0.0113864269406337
716,0.0104898373309351
717,0.0100333866955588
718,0.0099186621460213
719,0.0100571567722377
720,0.0103962631484556
721,0.01040261836968
722,0.010674004297666
723,0.010619727106766
724,0.0106602578896492
725,0.0108031775110502
726,0.0108700171721763
727,0.0112670048892867
728,0.0117589507222128
729,0.0124896039769924
730,0.0132660874325575
731,0.0142957730793617
732,0.0152206660898294
733,0.0161882501379003
734,0.0169340352692603
735,0.0174476658284882
736,0.0181900797888828
737,0.0187902667661624
738,0.0193904537434421
739,0.0199906407207217
740,0.0208818545169459
741,0.0213973225195478
742,0.0218717630173716
743,0.0223462035151954
744,0.0228206440130192
745,0.023119349880978
746,0.0233534835628775
747,0.0236200733899074
748,0.0234403707959211
749,0.0237704648669415
750,0.0238653750525634
751,0.0239329581236028
752,0.0243280387109798
753,0.0241776364405662
754,0.0236344555911904
755,0.0216284038092638
756,0.0196223520273372
757,0.0176163002454107
758,0.0144675058782744
759,0.0116222549139609
760,0.00986740230080032
761,0.00934386601998976
762,0.00977406133058107
763,0.0111131350469137
764,0.0131526407608669
765,0.0152450671802008
766,0.0176814326691859
767,0.0199701681172847
768,0.0215142125253526
769,0.0225986126732084
770,0.0235564689866083
771,0.0240109323076472
772,0.0244680418386661
773,0.0249491297871462
774,0.0248292311667927
775,0.024978935896664
776,0.0250377868390664
777,0.0247979601148144
778,0.0251653567358997
779,0.0248928936343688
780,0.0251801934396146
