"wavelength","measurement"
380,0.020780891780372
381,0.0200261286961957
382,0.0199313207180131
383,0.0195630071454001
384,0.0192036536704318
385,0.0197408862061986
386,0.0209461202908382
387,0.0217320163401306
388,0.0230894716329542
389,0.0236164629042852
390,0.0233408988533422
391,0.0231324672098099
392,0.0231894978885963
393,0.023331109095781
394,0.0240198680638799
395,0.0250802249660502
396,0.0278271424943002
397,0.0309195386269057
398,0.0340119347595111
399,0.0371043308921166
400,0.0394621594193309
401,0.0414708403655587
402,0.0427518193964533
403,0.0439852412471346
404,0.0442234750623656
405,0.0446082725479163
406,0.0453111438533059
407,0.046150385230556
408,0.0463657968622138
409,0.047632802065925
410,0.0498972805839515
411,0.0501843712957192
412,0.052445887382465
413,0.0534599086203921
414,0.0536792689175878
415,0.0545432418455093
416,0.0544954090023612
417,0.0545575728326943
418,0.0552941654485824
419,0.0545570925096423
420,0.0559819241997767
421,0.0562392107433207
422,0.0565399037444204
423,0.0562857032944534
424,0.0580461599667766
425,0.0559594971697232
426,0.0559534576848657
427,0.0546580312066461
428,0.0533348338747385
429,0.0529660313639968
430,0.0532505707286902
431,0.055045367954335
432,0.0574002382374855
433,0.0588578973079663
434,0.0613218426458408
435,0.0622158888462824
436,0.0628564916637523
437,0.063929514199933
438,0.0650025367361137
439,0.0660755592722944
440,0.0658688111626598
441,0.0675931519174005
442,0.0683608871411923
443,0.0688524603303439
444,0.0698038488374246
445,0.0707552373445053
446,0.071706625851586
447,0.0727308208188689
448,0.0726856388140653
449,0.0755521356540511
450,0.0748681383069581
451,0.0742436371146825
452,0.0738095739662564
453,0.0733755108178303
454,0.0729414476694042
455,0.0727187636755828
456,0.0733222129866545
457,0.0738951081182315
458,0.074246974947906
459,0.0747478130276295
460,0.0748308179621083
461,0.0741103838161952
462,0.076173214281407
463,0.0741343826356379
464,0.0733767058855868
465,0.0728969060075751
466,0.0719924145289484
467,0.0718478501204958
468,0.0711052969377094
469,0.0708878428818285
470,0.0717096206363988
471,0.0718478082202666
472,0.0723653251622732
473,0.0732776906724171
474,0.0732444658092177
475,0.0747652841166998
476,0.0728105644581841
477,0.073024111411753
478,0.073237658365322
479,0.0734512053188909
480,0.0729403627843753
481,0.0712751230516789
482,0.0698000716049365
483,0.0695552665855831
484,0.0677283362382995
485,0.0664408777262165
486,0.0666880945579997
487,0.067165897963268
488,0.0675482859845036
489,0.0692957903052244
490,0.0697987949400363
491,0.0703313489451874
492,0.071929637435711
493,0.071115861059845
494,0.0720809262257247
495,0.0710638830702866
496,0.071460876846757
497,0.0701052072797595
498,0.0703421023608367
499,0.0687692189029221
500,0.0692597201908255
501,0.0685299648149686
502,0.0694969895443208
503,0.0700510684152704
504,0.0693797947256044
505,0.0713401663963203
506,0.0709568430162269
507,0.0713446463997004
508,0.0716375406522478
509,0.0718163605983363
510,0.0706784845489884
511,0.071316470006612
512,0.0712563489118055
513,0.0688314975383341
514,0.0687172930300504
515,0.0675531166085895
516,0.0669670602078039
517,0.0669779374907053
518,0.0668127349437725
519,0.0682630686467525
520,0.0694664081634821
521,0.0702188393174151
522,0.0709712704713482
523,0.0717237016252812
524,0.0715722172524402
525,0.0717059399273115
526,0.0716688364103306
527,0.0717005555263884
528,0.0721393170832428
529,0.0732819645015705
530,0.0728990395387944
531,0.0733529662721948
532,0.0731153902371475
533,0.07358105253339
534,0.0742342931238757
535,0.0731333786352226
536,0.0740684846557629
537,0.0735937170494544
538,0.0727345903181625
539,0.0723174548222891
540,0.0726329167911622
541,0.0720044270046921
542,0.0717321941618664
543,0.0722003156522864
544,0.0723847397561581
545,0.0720453439818498
546,0.0725926564590972
547,0.0725425876336646
548,0.072492518808232
549,0.0724424499827993
550,0.0720926138166469
551,0.072478567367644
552,0.0732140033043377
553,0.0723185967826856
554,0.0721593630336005
555,0.0727194571063198
556,0.0717781860983505
557,0.0717273098534474
558,0.0709236372382539
559,0.0704174700094107
560,0.0709791802014441
561,0.0700456290704729
562,0.0708010700342592
563,0.0699188845153085
564,0.0701627663688294
565,0.069053400319054
566,0.0685919041686059
567,0.0677269881472552
568,0.0680216214305865
569,0.0672351581686442
570,0.0670140058482109
571,0.0671434688024972
572,0.067087931975241
573,0.066874269148949
574,0.0673036116289236
575,0.0663490115850341
576,0.0665417394864803
577,0.0667344673879265
578,0.0669271952893728
579,0.067119923190819
580,0.0673126510922652
581,0.0682256432652769
582,0.067765355526681
583,0.0680812134991967
584,0.0671570214274678
585,0.0667820819036283
586,0.0648859211073566
587,0.0638304902849301
588,0.0631194250224624
589,0.0624083597599948
590,0.0616972944975271
591,0.0619277394075256
592,0.0625370963536738
593,0.0628232297424828
594,0.0638087726308376
595,0.06389439605147
596,0.0642644280475712
597,0.064825424279073
598,0.0650035038164769
599,0.0653708372156282
600,0.0657799579365112
601,0.0663743465718981
602,0.0668095986239376
603,0.0664015793267082
604,0.0671720415379653
605,0.0667792198798749
606,0.0669277988864142
607,0.0665546800704014
608,0.0658740936317849
609,0.065975861435903
610,0.0652414928474888
611,0.0651049869798126
612,0.0644895629512258
613,0.064226584683488
614,0.0634278602639271
615,0.064591949767977
616,0.0634977035601715
617,0.0641984332384847
618,0.0640502299665087
619,0.0643828470062257
620,0.0639819999250898
621,0.0645520434013714
622,0.0632487404238084
623,0.0630859177647407
624,0.0627798281064219
625,0.0624737384481032
626,0.0621676487897845
627,0.0617992707567879
628,0.0618123332389675
629,0.061657308104541
630,0.0624191058261935
631,0.061442026053577
632,0.0619542076035776
633,0.0625157192560885
634,0.0627061527230842
635,0.0626692719238444
636,0.062640729191663
637,0.063136784271593
638,0.0628434472489154
639,0.0628324618037595
640,0.0623866751221412
641,0.0623820464505066
642,0.0619600672034993
643,0.0615388092119255
644,0.0611175512203516
645,0.0606962932287777
646,0.0606544756609937
647,0.0603565962932361
648,0.0593368749605681
649,0.0604795968053096
650,0.0599234476748821
651,0.0603753030923684
652,0.0598257224896721
653,0.0589067825817727
654,0.0578803548429627
655,0.0587543137423889
656,0.0580444767553151
657,0.0587097609950428
658,0.0594136068617007
659,0.0611443189966802
660,0.0617381691411263
661,0.0618579663797235
662,0.0622612310032691
663,0.0620107387667155
664,0.0615409050794713
665,0.0618262389084753
666,0.0618877035371823
667,0.0624368635799367
668,0.0620438473781723
669,0.0613558541582126
670,0.0613723582661639
671,0.0614169658378706
672,0.0611262455285483
673,0.0612803017647109
674,0.0614508089208306
675,0.0615876758641848
676,0.0614641397334018
677,0.0620536672504488
678,0.0612335717916801
679,0.0611376268155285
680,0.0629138777224522
681,0.0618414187695234
682,0.0604165882680814
683,0.0592906447354658
684,0.0573358467308016
685,0.0557572919790793
686,0.0543874457130535
687,0.05352425095458
688,0.0531666444103397
689,0.0533604185590076
690,0.0545721170572828
691,0.0555277666522398
692,0.056150621427041
693,0.0568889301109518
694,0.0582783758663285
695,0.0586315872269067
696,0.0598311001970412
697,0.0606000933739926
698,0.0603538189699103
699,0.0610254530970577
700,0.0628753667895446
701,0.0627058668115014
702,0.0646169752769804
703,0.0653844611099916
704,0.0673555779925039
705,0.0680168874115268
706,0.069833835547766
707,0.0712087340468342
708,0.0723899555989176
709,0.0739022170096578
710,0.07397779237661
711,0.0750018493973903
712,0.0759321439189537
713,0.0735472731910131
714,0.0719788479311609
715,0.0689481393750667
716,0.0663228794664858
717,0.064335174600052
718,0.0643998346080709
719,0.0660211773094184
720,0.0672793025598487
721,0.0680756304500694
722,0.070760056666265
723,0.0711537510942376
724,0.0717663250968775
725,0.0725002912668636
726,0.0732789696525063
727,0.0751637868962001
728,0.0774943901024906
729,0.0806240440146109
730,0.083451939955963
731,0.0876850565723596
732,0.0912708437557817
733,0.0955162487622298
734,0.098099278366291
735,0.100361766367173
736,0.102944703179243
737,0.104918257689595
738,0.106891812199947
739,0.108865366710299
740,0.111611080661734
741,0.11314335945612
742,0.114895586589487
743,0.116647813722854
744,0.11840004085622
745,0.119684833609778
746,0.12014219127259
747,0.121847904700806
748,0.120847084843048
749,0.122402200325562
750,0.122991025577571
751,0.122542135080548
752,0.124503001420528
753,0.124156158462454
754,0.123240988819673
755,0.115298842621784
756,0.107356696423896
757,0.0994145502260072
758,0.0866369444315399
759,0.0751032041302286
760,0.0669249395900962
761,0.0658629993684239
762,0.0683117954525801
763,0.0738319272072549
764,0.0818743927427511
765,0.0899851888195072
766,0.0995425785398496
767,0.109318725506862
768,0.114078196065185
769,0.118240599866342
770,0.122041083066859
771,0.122897917873816
772,0.125199085587917
773,0.126256638272273
774,0.126144924987551
775,0.125837147240919
776,0.126528497664798
777,0.125942970035443
778,0.127734393988568
779,0.126237978912779
780,0.127854707172253
