"wavelength","measurement"
380,0.00682866055803346
381,0.00668808864351568
382,0.00650319674684994
383,0.00647566128957148
384,0.00654697428859481
385,0.00700529140293181
386,0.00719733801133102
387,0.00766280427141176
388,0.00805211234214568
389,0.00849129294620736
390,0.00836129476143622
391,0.00849930882610769
392,0.00868647693961326
393,0.00868056340933384
394,0.00934159390130096
395,0.00996650906844975
396,0.0111051113664502
397,0.0125823010677653
398,0.0140594907690804
399,0.0155366804703955
400,0.0162823286769273
401,0.0176006903212182
402,0.018422298029043
403,0.0188389362641615
404,0.0191605634654548
405,0.0193630286484459
406,0.0199416117781838
407,0.0203338729112242
408,0.0206675253687506
409,0.0211563495966369
410,0.0224415406516062
411,0.0224710576411153
412,0.0232096515609503
413,0.0236595544067661
414,0.0237987751437087
415,0.0239527297146091
416,0.0237696743988897
417,0.0235737170766266
418,0.0238264696452982
419,0.0235042171847249
420,0.0239279739649428
421,0.0236095494520531
422,0.0239013769261896
423,0.0238192523166823
424,0.0237651308724064
425,0.0232673394260232
426,0.0229491116815788
427,0.0222307629769318
428,0.0214788839779911
429,0.0214287039987641
430,0.0212712786178697
431,0.0221282629533569
432,0.0227812618791191
433,0.023425703712048
434,0.0243488032138168
435,0.0246918276465062
436,0.0249963241153309
437,0.0252321270162068
438,0.0254679299170827
439,0.0257037328179586
440,0.0257000424060006
441,0.0260313023058397
442,0.0266795237450184
443,0.0267395481878981
444,0.0270423738426548
445,0.0273451994974116
446,0.0276480251521683
447,0.0278502248947798
448,0.0279064861186209
449,0.0286038430179508
450,0.0282740847429068
451,0.0280279823343296
452,0.0278390982955469
453,0.0276502142567643
454,0.0274613302179816
455,0.0272582607489171
456,0.0270807223522676
457,0.0274833044698129
458,0.0273455237175899
459,0.0277294922606226
460,0.0275738024904955
461,0.0272337164416258
462,0.0277584704005747
463,0.026944151734426
464,0.0266178148863978
465,0.0263624703320236
466,0.02589336666162
467,0.0258203132538403
468,0.0255495652014082
469,0.0253932203560277
470,0.0258331385237316
471,0.0258237614119606
472,0.0259422892565563
473,0.026120341760976
474,0.026203444854127
475,0.0264358714491339
476,0.0259058121536714
477,0.0258727103826249
478,0.0258396086115784
479,0.025806506840532
480,0.0256429473550617
481,0.0249584458047452
482,0.0244412752391523
483,0.0243760228022773
484,0.0237225744920338
485,0.0231735923484871
486,0.0233444494427776
487,0.0234913674425823
488,0.0236904030813999
489,0.0241957230591795
490,0.0242950579101993
491,0.0243841600597792
492,0.0248241507527698
493,0.024407095775604
494,0.0247020418211086
495,0.0242572204590655
496,0.0242233514341752
497,0.0237521764127766
498,0.0237516236077758
499,0.0232112315948389
500,0.0232227639301859
501,0.0228641636279064
502,0.0231678101830123
503,0.0231652640392658
504,0.0228380688166319
505,0.0235509279269441
506,0.0232837354310705
507,0.023349971786668
508,0.0233043729122859
509,0.0232524697445613
510,0.0227532089283024
511,0.022932629188598
512,0.0226725990413271
513,0.0218982949515898
514,0.0216915840069771
515,0.0212658117411248
516,0.0210766391889323
517,0.0209195048943704
518,0.0208040868823287
519,0.0211648505361565
520,0.0213953398761481
521,0.0215194364968466
522,0.021643533117545
523,0.0217676297382435
524,0.0215962734018846
525,0.0214706157063439
526,0.021453047727359
527,0.0212149862863957
528,0.0213674390229121
529,0.0214386291573794
530,0.0213611748513591
531,0.0212659353679607
532,0.0211567413828399
533,0.0212909038881366
534,0.0212935987840042
535,0.021066552575529
536,0.021152613720141
537,0.0209296969625382
538,0.0207575325489676
539,0.0205455384311656
540,0.0205989415382152
541,0.0204424076778926
542,0.0201611704977399
543,0.0202579199015406
544,0.0202904899810265
545,0.0200834139834541
546,0.020199400173505
547,0.020111496609625
548,0.0200235930457449
549,0.0199356894818648
550,0.0198549170104886
551,0.0199239215919906
552,0.0199975306406043
553,0.0197511277238052
554,0.0196237096899858
555,0.0197148947463005
556,0.0193905579039585
557,0.0192872646814696
558,0.0191350702937861
559,0.0188398508684118
560,0.0189720506623204
561,0.0185610575785612
562,0.0188109466825258
563,0.018417520648352
564,0.0184454934274618
565,0.0181300560400611
566,0.0178975438793038
567,0.0176982080943875
568,0.0176367773696044
569,0.0173983834983551
570,0.0172641270327168
571,0.0172491786649136
572,0.0172112768137974
573,0.0171529484200245
574,0.0171517050181609
575,0.0169096272331736
576,0.0169860579284147
577,0.0170624886236557
578,0.0171389193188968
579,0.0172153500141378
580,0.0172917807093789
581,0.0176087810135217
582,0.0174685695928466
583,0.0176019094682033
584,0.0173530974391221
585,0.0172924537378405
586,0.016869233682695
587,0.0165414220734751
588,0.0163831487990789
589,0.0162248755246827
590,0.0160666022502865
591,0.0160918417922167
592,0.0162541486403601
593,0.0162790207369877
594,0.016558495414024
595,0.0164516223096392
596,0.0165284545572277
597,0.0166484742093652
598,0.016594691029042
599,0.0166346431163517
600,0.016718791561515
601,0.0168652865802919
602,0.0168624190711698
603,0.0168734169879433
604,0.017019939948181
605,0.0168232308626298
606,0.0168931260197554
607,0.0167235751537237
608,0.0166312550665897
609,0.0165105589539936
610,0.0164169055536732
611,0.0163532895713598
612,0.0161919154589442
613,0.0160720996955562
614,0.0159318576786533
615,0.0161782486558274
616,0.0159631862262919
617,0.0160843610444675
618,0.0159594011967293
619,0.0160454823907854
620,0.016027111373026
621,0.0160590184336635
622,0.0157845912692344
623,0.0156979922994402
624,0.0155340112353928
625,0.0153700301713455
626,0.0152060491072981
627,0.0151623633848823
628,0.0151280525086373
629,0.0150698130249305
630,0.0152528659873663
631,0.0151255853037368
632,0.0152481526681801
633,0.0153500323056524
634,0.015445628506688
635,0.0154757262074559
636,0.0154565979160042
637,0.0155258722960893
638,0.0154971487613788
639,0.0155856023399859
640,0.0155450625884884
641,0.0154390162710475
642,0.0153270422331002
643,0.0152143061425469
644,0.0151015700519936
645,0.0149888339614403
646,0.0150088453756395
647,0.0149896902755063
648,0.014709508311667
649,0.0149221654050443
650,0.0147939728491075
651,0.0149064901769611
652,0.0147138797463843
653,0.0145205914178474
654,0.01422083648103
655,0.0144248403028015
656,0.0142583167029791
657,0.0143898751594909
658,0.0146391727201982
659,0.0148682606165764
660,0.0149922223972296
661,0.0150870757808828
662,0.0150411005085958
663,0.0149769570285436
664,0.0149381270046641
665,0.0148545257568882
666,0.0148957212754162
667,0.0149937734188243
668,0.0148546489522681
669,0.0146918074502386
670,0.0147183717155221
671,0.0146774632381699
672,0.0146430948005693
673,0.0146063364864814
674,0.0147243533771311
675,0.0147602647159611
676,0.0146037822684067
677,0.014791798956529
678,0.0145804902705628
679,0.0146381967972522
680,0.0148908761662179
681,0.0145702255104222
682,0.0142199819726889
683,0.013918327462608
684,0.013364652581089
685,0.0128608912368255
686,0.0124814221889114
687,0.0122436383084933
688,0.0122815161212314
689,0.0125154112245402
690,0.0128757623741099
691,0.0135501720288046
692,0.0137223483842023
693,0.014179319157508
694,0.0146305392189666
695,0.0147993209754033
696,0.0152859730363775
697,0.0155388343538093
698,0.0155493409035647
699,0.0157888413186412
700,0.0162909817011998
701,0.0163885786051135
702,0.0169149529659286
703,0.0170402130853776
704,0.0176681487999131
705,0.0177786537271896
706,0.0182698174201855
707,0.0185846629188783
708,0.0188826857213233
709,0.0193011425741694
710,0.0193270187375942
711,0.0194735513259035
712,0.0195695509507324
713,0.0189915835984041
714,0.018533595523613
715,0.017710186812704
716,0.0170868909562087
717,0.0166259040547566
718,0.0168002890929593
719,0.0170293670489565
720,0.0173852496745256
721,0.0173183978975323
722,0.017939273647412
723,0.0179233059169808
724,0.0180293950681497
725,0.0182550154130058
726,0.0183661530782918
727,0.0187952838340244
728,0.0192332050931337
729,0.01996340739634
730,0.0205742850160171
731,0.0214863190422727
732,0.0222252891982239
733,0.0231044858417247
734,0.0234683163184939
735,0.0238763849056248
736,0.0243374655872257
737,0.0246790745212204
738,0.0250206834552151
739,0.0253622923892099
740,0.0259489563516343
741,0.0261920540547342
742,0.0264358171104235
743,0.0266795801661128
744,0.0269233432218021
745,0.0271330166697241
746,0.0271841570495296
747,0.0274492844173239
748,0.0271225795392546
749,0.0274485287980769
750,0.0274404282395904
751,0.0274698507019585
752,0.0279600591748776
753,0.0276852762052995
754,0.0271748768268275
755,0.0249316797106842
756,0.0226884825945408
757,0.0204452854783975
758,0.0170361271383447
759,0.0141971843497687
760,0.0123777168406313
761,0.0119741808179218
762,0.0125634166073657
763,0.0141727990431418
764,0.0163658970372262
765,0.0185311039899008
766,0.0210782580287247
767,0.0231888059982898
768,0.0247962044117263
769,0.0259066283283455
770,0.0267838035927898
771,0.0272095573451106
772,0.027646554842695
773,0.0281455221734282
774,0.0279923010873197
775,0.028126280169907
776,0.0282063444552097
777,0.0278765109108497
778,0.0283586757609396
779,0.0280581988403496
780,0.0284662645695238
