"wavelength","measurement"
380,0.0046848282106181
381,0.00453045066115005
382,0.00438342357480343
383,0.00439910294627392
384,0.00445031675532411
385,0.00467850437150222
386,0.00490551438528634
387,0.00514435331814143
388,0.00533660109736706
389,0.00558310106173448
390,0.00551379284707239
391,0.00550862008892641
392,0.00557579116608499
393,0.00564608148323839
394,0.00579609412467271
395,0.0061820334616289
396,0.00690718399044128
397,0.00771418506470934
398,0.0085211861389774
399,0.00932818721324545
400,0.0097905443802212
401,0.0103849968274064
402,0.0108700706220236
403,0.0110157352383752
404,0.0111243277665826
405,0.0110787936949469
406,0.0114192019283089
407,0.011482967704508
408,0.0116166035869652
409,0.0118496006494597
410,0.0123818840702721
411,0.0124863011837234
412,0.0128435798302551
413,0.0130944629048075
414,0.0130868398533258
415,0.0131466783507378
416,0.0130566725547973
417,0.0129855481432429
418,0.0131903272893376
419,0.0129001895819907
420,0.0131981571484608
421,0.013149925187032
422,0.0133216267879351
423,0.0133631768662368
424,0.0134707182006131
425,0.0131346218017357
426,0.0130399676743379
427,0.0126617334012118
428,0.0122745487975242
429,0.0122391823895298
430,0.0122667105081561
431,0.0126654813748446
432,0.0131576264059998
433,0.0135630176244524
434,0.0141950662302441
435,0.0143946361198585
436,0.01454704856579
437,0.01472988570144
438,0.01491272283709
439,0.01509555997274
440,0.0151731466356445
441,0.0154241678062697
442,0.0156977638933312
443,0.0158488577007954
444,0.0160419456079611
445,0.0162350335151267
446,0.0164281214222924
447,0.0166737543432758
448,0.0166697357011809
449,0.0173044459079037
450,0.0171316579497023
451,0.0169364839657962
452,0.0168604373922729
453,0.0167843908187495
454,0.0167083442452262
455,0.0166718346712554
456,0.0165728322746636
457,0.0168302542196856
458,0.016896537482583
459,0.017112682292152
460,0.0171454785217528
461,0.0169125551430809
462,0.0173134220371849
463,0.0168260354409309
464,0.016575037887195
465,0.016423115208958
466,0.0161678636497528
467,0.0160815485688996
468,0.0159148668733402
469,0.0157569425129621
470,0.0160790831635044
471,0.0160288757446304
472,0.0160921889650408
473,0.0162133089475998
474,0.0162282060606281
475,0.016454017071859
476,0.0160447717520138
477,0.0160002252778988
478,0.0159556788037837
479,0.0159111323296686
480,0.0158773295370293
481,0.0154391569358866
482,0.0151575980870333
483,0.0151036035700301
484,0.0147040198832553
485,0.0144023235011853
486,0.0144911242779954
487,0.0146046707009491
488,0.0147399010079153
489,0.0151248320753932
490,0.0152318358769291
491,0.0153922315522786
492,0.0157041043153614
493,0.0155250600088624
494,0.0157782077496523
495,0.0155290986185844
496,0.0155158160611618
497,0.0153061781325967
498,0.0153606007877481
499,0.014986045791655
500,0.015089209661012
501,0.0149369702286861
502,0.0152041894476668
503,0.015271713594053
504,0.0151742135897378
505,0.0156312955296899
506,0.0155878935413995
507,0.0156488897102593
508,0.0157661445152653
509,0.0157297679836823
510,0.0155265328310984
511,0.0157882691996056
512,0.0156712042671534
513,0.0152415463475528
514,0.0151704464970589
515,0.014908172132077
516,0.0148705389945456
517,0.0148625409310754
518,0.0148227867531788
519,0.0151526567657439
520,0.0154661400400869
521,0.0156621428093526
522,0.0158581455786183
523,0.016054148347884
524,0.0159578714991217
525,0.0160159172821507
526,0.0160816231385016
527,0.0159985109862436
528,0.0161432823335103
529,0.0162824727047948
530,0.0163603126513616
531,0.0163797529260116
532,0.0163430686182865
533,0.016512629453558
534,0.0165837364507125
535,0.0164238758792523
536,0.0165614797832393
537,0.016513932565507
538,0.0163851680160316
539,0.0162766337240064
540,0.0164071913211807
541,0.0162395587938698
542,0.0161895311440474
543,0.016264442241383
544,0.0163533389568044
545,0.0162307232109548
546,0.0164067804130138
547,0.0163865874816401
548,0.0163663945502663
549,0.0163462016188925
550,0.0162229836603113
551,0.0163772754963574
552,0.0164691198241366
553,0.0163116447672848
554,0.0162603731109762
555,0.0164226914276273
556,0.0162023730115301
557,0.0161356482387647
558,0.0160441612793573
559,0.0159108085683911
560,0.0160891656890663
561,0.0157705292081088
562,0.0160022068479205
563,0.0157474933844654
564,0.0157764990460488
565,0.0155181152767979
566,0.01544788384113
567,0.0151960583920297
568,0.0152546105007056
569,0.0150409514382789
570,0.0149469555938134
571,0.0149592889755572
572,0.0149113286829137
573,0.0148828569137365
574,0.0149250183087104
575,0.014730570976666
576,0.0147909552436821
577,0.0148513395106982
578,0.0149117237777143
579,0.0149721080447304
580,0.0150324923117465
581,0.0152316657541781
582,0.0151726993824226
583,0.0152892605993891
584,0.0150358878655879
585,0.0149778137759016
586,0.0145479402978891
587,0.0143357348950437
588,0.0141614413056785
589,0.0139871477163134
590,0.0138128541269483
591,0.0138894344125101
592,0.013999642986589
593,0.0140265852294479
594,0.0142012629159653
595,0.014170072769334
596,0.0142541392441203
597,0.0143319616521724
598,0.0143214023321035
599,0.0143464043406419
600,0.0144308862168117
601,0.0145119611703776
602,0.0145816027703782
603,0.0144950537511844
604,0.0146501739112279
605,0.0145602053984799
606,0.0146043927340538
607,0.0145078742610126
608,0.0143438332671612
609,0.0143379098171584
610,0.0142330044370249
611,0.0141476387438681
612,0.014030293516046
613,0.0139815003218753
614,0.0137811777150477
615,0.013912094651317
616,0.0137928733410674
617,0.0139170426134699
618,0.0138653707538779
619,0.0139330480075807
620,0.0138710484659581
621,0.0139291851025423
622,0.0136287736273486
623,0.0136431609350142
624,0.0134981698731142
625,0.0133531788112142
626,0.0132081877493141
627,0.0131501721635134
628,0.013071405188875
629,0.0130404003870699
630,0.0132152212466003
631,0.0130903806071754
632,0.0132083017448309
633,0.0133341266002412
634,0.0133985894530248
635,0.0134332579210607
636,0.0133721956004151
637,0.0135389873746552
638,0.0134424355925531
639,0.0134908149749145
640,0.0134428443236847
641,0.0134145145053035
642,0.0133078352023224
643,0.013208456002819
644,0.0131090768033155
645,0.0130096976038121
646,0.0130145835297078
647,0.0129802718769653
648,0.0127494279774337
649,0.0129509233191234
650,0.012842110649821
651,0.0129332630055852
652,0.0128320445641217
653,0.0125764531794657
654,0.0123314628308065
655,0.0124634986572856
656,0.0123380057101183
657,0.0124448545515747
658,0.0126121962682683
659,0.0129277573452109
660,0.0130303554380735
661,0.0130559750626382
662,0.0131034785427516
663,0.0130329972593891
664,0.0129181409072937
665,0.0129672884120506
666,0.0129891476607184
667,0.0129894195804391
668,0.0130166435397043
669,0.0127724301951266
670,0.0128413259544599
671,0.0127679756746218
672,0.0127486456535033
673,0.0127616280294334
674,0.0127966645780062
675,0.012816055522766
676,0.0127586625481777
677,0.0128817550506917
678,0.0127620646353264
679,0.0127229034880592
680,0.0130102944687985
681,0.0127640774735255
682,0.0125132665030385
683,0.0122191874925028
684,0.0116573736086625
685,0.0112186102792837
686,0.0108807686215016
687,0.0105568896722698
688,0.0105643136871968
689,0.0107595462792325
690,0.0110785522140321
691,0.0115607379837193
692,0.0117778107113873
693,0.0120646772471871
694,0.0124231760629799
695,0.0125945263358564
696,0.0129373655145907
697,0.0131191121380772
698,0.0130835070139589
699,0.0132264061851313
700,0.0135870030174187
701,0.0136230512720896
702,0.0139887066488743
703,0.0141387847269998
704,0.0145496622351368
705,0.0146701227561437
706,0.015039376943689
707,0.0153176011802998
708,0.0154023302832696
709,0.0157346908293092
710,0.0157254905571695
711,0.0158593345386683
712,0.0159678466721085
713,0.0154233731997436
714,0.0151625335734444
715,0.0144503364545808
716,0.0138413250987725
717,0.0134191183724156
718,0.013406759374099
719,0.0135500619612833
720,0.0138801369141679
721,0.0138273054740336
722,0.0143749179574136
723,0.0143509830705335
724,0.0144011525545976
725,0.0145288400543738
726,0.0145035262518792
727,0.0149024902164707
728,0.0152051092298193
729,0.0156369023930214
730,0.016150047561833
731,0.0167870874274905
732,0.0173980187409726
733,0.0180272523781253
734,0.0185107920698672
735,0.0186672619887746
736,0.0190574971770822
737,0.0192763599572777
738,0.0194952227374731
739,0.0197140855176685
740,0.0200986558730111
741,0.0202981169469872
742,0.0204825911390554
743,0.0206670653311236
744,0.0208515395231918
745,0.0209558979459799
746,0.020954080154003
747,0.0210994371504794
748,0.0208929726248115
749,0.0210084828510095
750,0.0210554975234694
751,0.0210177533641593
752,0.0212735843567443
753,0.0210589804163403
754,0.0208742193160475
755,0.0192531648368584
756,0.0176321103576693
757,0.0160110558784802
758,0.0134306155678348
759,0.0110226123383294
760,0.00928807255910973
761,0.00886581486864809
762,0.00929244360795621
763,0.0104027374113268
764,0.0120404102204989
765,0.0137143279471944
766,0.0156314290891023
767,0.0174919431148915
768,0.0185628150399346
769,0.0194265377990453
770,0.020085090632266
771,0.0203826337332957
772,0.020657427459667
773,0.0209820389696246
774,0.0208717160384369
775,0.0209209000022604
776,0.0210634089523252
777,0.0208340193233239
778,0.0211152587034478
779,0.0209579913445189
780,0.0212132510441953
