"wavelength","measurement"
380,0.0148058079212382
381,0.0141736413531621
382,0.0140015279526088
383,0.0137892610743568
384,0.0136538239026837
385,0.0143736624359883
386,0.0152261144461593
387,0.0157306387846651
388,0.0161051057457346
389,0.0162578654089535
390,0.0161759031657788
391,0.0159174731313603
392,0.0159475976506346
393,0.015811292791944
394,0.0160428123974886
395,0.0170837435197581
396,0.0189139120979914
397,0.0206554367201981
398,0.0223969613424048
399,0.0241384859646116
400,0.0252860246471768
401,0.0264929245790916
402,0.027302166528017
403,0.0272484339567959
404,0.027157506985519
405,0.0271204227031596
406,0.0272918087741149
407,0.0273050682348589
408,0.0273665309101544
409,0.0274861746040907
410,0.0285120755932255
411,0.0284991057741596
412,0.0291968978364261
413,0.0294770347556777
414,0.0291794697400529
415,0.0292536866033431
416,0.0288730793222996
417,0.0284358219829242
418,0.0290184400278373
419,0.0282192929944941
420,0.0285332051306405
421,0.0284775883532507
422,0.0287328220614499
423,0.0289466209503113
424,0.0285303946289416
425,0.0279795577514288
426,0.0276653337828839
427,0.0268883725499343
428,0.0260764256819041
429,0.0257999858257876
430,0.0258996464637388
431,0.0268857524287608
432,0.0279047618807192
433,0.0284666478597817
434,0.0299212132118153
435,0.0301385519404293
436,0.0303999441758526
437,0.030812957880069
438,0.0312259715842854
439,0.0316389852885018
440,0.0317525782067343
441,0.0322375096922653
442,0.0330286807939957
443,0.0334276220874489
444,0.0339120099132271
445,0.0343963977390054
446,0.0348807855647836
447,0.0352945044523938
448,0.0354326914586844
449,0.0367077412451451
450,0.0365342440731332
451,0.0362338107021587
452,0.0360968807730498
453,0.0359599508439408
454,0.0358230209148319
455,0.0359246640926908
456,0.0358907717581902
457,0.0361426749411676
458,0.0364473889176642
459,0.0369406016635965
460,0.0370737757717621
461,0.0365948328576755
462,0.0374439717197109
463,0.0364189783966131
464,0.0360184595977818
465,0.0356189166744057
466,0.0351436201052894
467,0.0350057604755221
468,0.034872253208089
469,0.0344837944490778
470,0.0350908144543403
471,0.0351239566004321
472,0.0353366194083328
473,0.0357865790771863
474,0.0356506509008445
475,0.0360049359338238
476,0.0351950311056245
477,0.035251225061547
478,0.0353074190174695
479,0.035363612973392
480,0.0351310412525204
481,0.0342211682601474
482,0.0337533223727359
483,0.0335746943444459
484,0.0327915088826963
485,0.032070491689724
486,0.0324916966562664
487,0.0328627489162265
488,0.0331110558846883
489,0.0341158133393288
490,0.034201991016691
491,0.0346013108991217
492,0.0353595177711413
493,0.0349389655495371
494,0.0354148514711347
495,0.0349716751090609
496,0.0351394786902073
497,0.0345716106033892
498,0.0347653225276657
499,0.0339298860716653
500,0.0341155654580583
501,0.0339742334602899
502,0.0347636432185751
503,0.0348189018959785
504,0.0346210864551463
505,0.035764455653938
506,0.0355276183823962
507,0.0359102623774048
508,0.0361598194683777
509,0.0363108892721264
510,0.0358879664537003
511,0.036275520704491
512,0.0360839685460602
513,0.0353005079728393
514,0.035121181510538
515,0.0347183424799477
516,0.0347106581680773
517,0.0348113293923473
518,0.0349234906577683
519,0.0358825280669121
520,0.0366307855369132
521,0.0371503246569359
522,0.0376698637769586
523,0.0381894028969813
524,0.0380630373271012
525,0.0383134812754482
526,0.0385290763835918
527,0.0383984217475712
528,0.0389623092743129
529,0.0393678983788939
530,0.0394439791922184
531,0.0396020439610547
532,0.0395759877726281
533,0.0401954363000256
534,0.0402510245589156
535,0.0400173345952055
536,0.0404223089481893
537,0.0402140271269395
538,0.0400981306355225
539,0.0398066792247034
540,0.0402055444282287
541,0.0399221738770663
542,0.03980273549945
543,0.0399819505934101
544,0.0402767538386565
545,0.0400876379618695
546,0.040441898186036
547,0.040406274762338
548,0.04037065133864
549,0.040335027914942
550,0.0402918589685649
551,0.0406440627453052
552,0.0409263030311543
553,0.0406292809423697
554,0.0405764561890945
555,0.0409339263284639
556,0.0403198218062379
557,0.040184059826925
558,0.0399922476211253
559,0.0396739664069514
560,0.0401983207267054
561,0.0394183247457964
562,0.0399265203426949
563,0.0392587544312542
564,0.039413776879995
565,0.0386513232216453
566,0.0382534070351974
567,0.0377192968684892
568,0.0378868778927963
569,0.0374014025931511
570,0.0373304658678407
571,0.0372775393949277
572,0.0370906697277317
573,0.0369071935176242
574,0.037037698902698
575,0.0365291170568512
576,0.0367105755964192
577,0.0368920341359872
578,0.0370734926755553
579,0.0372549512151233
580,0.0374364097546914
581,0.0380736828877018
582,0.0378242029070129
583,0.038131045987131
584,0.0373430945831819
585,0.0373739965762609
586,0.036305138848603
587,0.035718516472405
588,0.0353512933201835
589,0.0349840701679619
590,0.0346168470157404
591,0.0347660191526886
592,0.0351829851801407
593,0.0352052182979521
594,0.0356162409273076
595,0.0356035250415148
596,0.0359360599520718
597,0.0362217338948912
598,0.0362669342471254
599,0.0364099687999968
600,0.0366074446278297
601,0.0369631527213663
602,0.0371158619922786
603,0.0368436257661249
604,0.0374486454973617
605,0.0371215452244981
606,0.0372264016088404
607,0.0370977900419805
608,0.0367275983738113
609,0.0366723476052743
610,0.0364790924599187
611,0.0361933464763429
612,0.0360161284369444
613,0.035809854365657
614,0.0355327735552485
615,0.0360008950596245
616,0.0355872868469715
617,0.0359363328057283
618,0.0358190947189121
619,0.0357797255947231
620,0.035806107642214
621,0.0360301527791592
622,0.0353443339068795
623,0.0352425482792385
624,0.0349128604800709
625,0.0345831726809033
626,0.0342534848817357
627,0.0340317956773445
628,0.0340454816247849
629,0.0339576841911102
630,0.0345080176745911
631,0.0341980684536086
632,0.0345872333928122
633,0.0349767732992208
634,0.0350592005390106
635,0.0354927029506911
636,0.0351306093983185
637,0.0355370700955478
638,0.035398482231976
639,0.0355121693294646
640,0.0354378553224066
641,0.0352197809314847
642,0.0350978105753641
643,0.0348013179477731
644,0.034504825320182
645,0.034208332692591
646,0.034282798619199
647,0.0342072172547445
648,0.0336146024846336
649,0.0341009103549135
650,0.0338433639659283
651,0.0340202105841365
652,0.0335828717004169
653,0.0332696706442395
654,0.0327319934041712
655,0.0330169269503102
656,0.0327770369606648
657,0.0332726131984612
658,0.0336265730069007
659,0.0342444722608371
660,0.0345372598924961
661,0.0346915464796035
662,0.0347351835390202
663,0.0344684740047929
664,0.034261352505449
665,0.0344701860161284
666,0.0345807781444574
667,0.0345008144536289
668,0.0344904604868042
669,0.0338219293465086
670,0.0340216143045471
671,0.0339566705719942
672,0.0339850966867435
673,0.0339860213910206
674,0.0342113957354406
675,0.0340771441745333
676,0.0341787767078182
677,0.0345792690859861
678,0.0341479834463402
679,0.0341722154210771
680,0.0352340380765165
681,0.0343980837765037
682,0.033542764155022
683,0.0329244828730897
684,0.0314355394297425
685,0.0304550366053011
686,0.0296040579266446
687,0.029141496143144
688,0.0292838360557757
689,0.0300511216754297
690,0.0311731125300471
691,0.032747679949711
692,0.0335350463874199
693,0.0346761591649581
694,0.0360333058134429
695,0.0368698950742196
696,0.0382543043930049
697,0.0390646242172712
698,0.0392818749984709
699,0.0399463110972708
700,0.0415428935414567
701,0.0420366948958713
702,0.0436459188246304
703,0.0444777231509621
704,0.0458453946792097
705,0.0467361077856205
706,0.0479709988486827
707,0.0493076994266838
708,0.050084785255975
709,0.0512953192239004
710,0.0513928094967829
711,0.0520833385573594
712,0.0524593671121259
713,0.0508530932102825
714,0.049819535102049
715,0.0474274079421781
716,0.0458295881580971
717,0.0448680405042833
718,0.0450430308119895
719,0.0456503238118957
720,0.0468439083119384
721,0.0467007634474868
722,0.0485071080800314
723,0.0486200741744236
724,0.0489739940578199
725,0.0496363252244793
726,0.0498887811358437
727,0.051107745449172
728,0.0525160986080344
729,0.0544991137495207
730,0.0562384729734449
731,0.0586013878826608
732,0.0605127744124664
733,0.0631021926335571
734,0.0643787545000895
735,0.0653953471150845
736,0.0671092092299126
737,0.0679660682583343
738,0.0688229272867561
739,0.0696797863151778
740,0.0710318412422898
741,0.0717478190311641
742,0.0724924129111266
743,0.073237006791089
744,0.0739816006710515
745,0.0741920105048795
746,0.0743852566770103
747,0.0747780671345946
748,0.0744078577139897
749,0.0746999211339418
750,0.0748489613737944
751,0.0744806782910111
752,0.0755364925873247
753,0.0750286558094905
754,0.073505263390071
755,0.0674130668403831
756,0.0613208702906951
757,0.0552286737410072
758,0.0459304716156888
759,0.0378001436452845
760,0.0329657797682003
761,0.0318306784032094
762,0.0332739240173946
763,0.0374090137238017
764,0.0432275563623264
765,0.0494644173369729
766,0.0560588800993885
767,0.0623937166371193
768,0.0664854427893381
769,0.0694306026861507
770,0.0717965468507493
771,0.0729980454890542
772,0.074261477205538
773,0.0756108146640952
774,0.0750335387831876
775,0.0752841468439165
776,0.0757017234758122
777,0.0747789884537509
778,0.0758431120030742
779,0.0752611278540368
780,0.0763450867322355
