"wavelength","measurement"
380,0.0416252378272483
381,0.04010011534316
382,0.038832573288406
383,0.0384475084433485
384,0.0380109096623746
385,0.0394981298132449
386,0.0408371863515833
387,0.0423955567993765
388,0.044371964349446
389,0.0449259757379098
390,0.0445228801679778
391,0.0438754756502825
392,0.0435463367607816
393,0.0433243403082816
394,0.0434395195888989
395,0.0453508756836779
396,0.0495672368873147
397,0.0542492184768352
398,0.0589312000663558
399,0.0636131816558763
400,0.0661611741111635
401,0.0693527756153119
402,0.0711075042253466
403,0.0711154403696236
404,0.0705503930079837
405,0.069966629703403
406,0.0702269510500723
407,0.0697750184343988
408,0.0698496216498328
409,0.0704061642324114
410,0.0724042467352088
411,0.0722828952259693
412,0.0737742427660261
413,0.0745273886887349
414,0.0742550537975089
415,0.0743353982706111
416,0.0734453254245196
417,0.0724113852005232
418,0.0726145500687475
419,0.0713339551467006
420,0.0723436956336532
421,0.0719172228093504
422,0.0720997057476485
423,0.0724144063724422
424,0.0722910688981085
425,0.0706295314214596
426,0.0697839278344692
427,0.0679140389571123
428,0.0652284174843726
429,0.0646584428734587
430,0.064716937166754
431,0.0666417031671473
432,0.0683495008544393
433,0.0707120656717025
434,0.0736637099080598
435,0.0746942505006046
436,0.0751612435953024
437,0.0761633676809775
438,0.0771654917666526
439,0.0781676158523277
440,0.0784292874465735
441,0.0798928957786022
442,0.0813904745508989
443,0.0816268939674141
444,0.0826364944245587
445,0.0836460948817033
446,0.084655695338848
447,0.0857326766522828
448,0.0862475974485721
449,0.0889021396374464
450,0.0885036760661252
451,0.0877959933865525
452,0.0874461155601205
453,0.0870962377336885
454,0.0867463599072565
455,0.0862184149500318
456,0.0863349179655038
457,0.0869601136434991
458,0.0873577289920089
459,0.0886389465253367
460,0.0880649647712963
461,0.0873864308967281
462,0.0897652283739953
463,0.0871371102251945
464,0.0862901666695248
465,0.0849240828495431
466,0.0837175125097469
467,0.083617764066961
468,0.0825458557888579
469,0.0817563897525833
470,0.0831291030023899
471,0.0828098900297746
472,0.0832187618587446
473,0.0840717189210522
474,0.0840824109466465
475,0.0855454869780421
476,0.0834958792567454
477,0.0833890694504219
478,0.0832822596440984
479,0.0831754498377748
480,0.0826479494030812
481,0.0803226695516554
482,0.0790397127210315
483,0.0783050042386333
484,0.0764852601865946
485,0.0744122147505809
486,0.0751112082550996
487,0.0753649330670013
488,0.0758276693253749
489,0.0777713882317769
490,0.0782177850369122
491,0.0788349998623853
492,0.0805442481511999
493,0.0793978348722401
494,0.0806894633122299
495,0.079505592243795
496,0.079841757143273
497,0.0783928573285536
498,0.078528407263747
499,0.0765864319896181
500,0.0768305212547448
501,0.0759104870234669
502,0.0770165405143611
503,0.0772685997642569
504,0.0759432212353714
505,0.0784600705009735
506,0.0779749742671547
507,0.078315657087458
508,0.0787330702962784
509,0.0785879463609752
510,0.0773036368293928
511,0.0780000987490709
512,0.0775135543045809
513,0.0751984300205537
514,0.0744757630437618
515,0.0731740525588573
516,0.0723975194715067
517,0.0722041439997565
518,0.0717378814894733
519,0.0727735272705587
520,0.0740997870180637
521,0.0748231135730417
522,0.0755464401280197
523,0.0762697666829977
524,0.0756465307123115
525,0.0756255910916482
526,0.0757632344070305
527,0.0752634050273141
528,0.0755153712248142
529,0.0765371778421381
530,0.0763826380458004
531,0.0764030562865118
532,0.0759544037671376
533,0.0764176760702042
534,0.076590316952294
535,0.0757942124045582
536,0.0763398286713916
537,0.0756958697545621
538,0.074916463175779
539,0.0740896501388821
540,0.0745276084561408
541,0.0737696223439243
542,0.0733589760273564
543,0.0734978685634299
544,0.0737461056655739
545,0.073084793226593
546,0.0737486474322946
547,0.073495179121092
548,0.0732417108098894
549,0.0729882424986869
550,0.0725765781509927
551,0.0732299743647578
552,0.0737377254335372
553,0.0730710575015089
554,0.0727321249189218
555,0.0733645100740074
556,0.0722468953482194
557,0.0721251796017595
558,0.0715686014698418
559,0.071055276207112
560,0.0715106354500664
561,0.0703434918151723
562,0.0716357479529177
563,0.0704718056086758
564,0.0707781067935762
565,0.0696694375252285
566,0.0690605320969191
567,0.0683171320604196
568,0.06862550499422
569,0.0677680142494937
570,0.0677365294889385
571,0.0677572490423985
572,0.0678444552118769
573,0.0676013267205129
574,0.0683159379306297
575,0.0671639419164919
576,0.0673166862900878
577,0.0674694306636837
578,0.0676221750372796
579,0.0677749194108755
580,0.0679276637844714
581,0.0689670031539694
582,0.0684549337313561
583,0.068773221758954
584,0.0673221413245782
585,0.0669298322471545
586,0.0649344865806792
587,0.0633642283110868
588,0.0623694511052613
589,0.0613746738994357
590,0.0603798966936102
591,0.0606220565775691
592,0.0610266268428799
593,0.0614070584286969
594,0.0621204905191641
595,0.0620946512886044
596,0.0627176368675515
597,0.0632664269156838
598,0.063378558905511
599,0.0637596044906973
600,0.0642863070406215
601,0.0648330740631107
602,0.0651233347853503
603,0.0649779521229621
604,0.0656745652404464
605,0.0649791225283354
606,0.0653974108903183
607,0.0648111137380634
608,0.0639931221795587
609,0.0640152441027406
610,0.0635056962664169
611,0.0629444026503406
612,0.0625071865182888
613,0.0620467154572369
614,0.0614487343782829
615,0.0621408896230682
616,0.0613021787208596
617,0.0618891992730794
618,0.0617463934612499
619,0.0618881221846034
620,0.06188110929957
621,0.0618736317700215
622,0.0610161540664514
623,0.0605215289040516
624,0.0600289863632163
625,0.059536443822381
626,0.0590439012815456
627,0.0589562273653249
628,0.0585156617218543
629,0.0585654755364398
630,0.0589140688479637
631,0.0582386152742265
632,0.0585944459506626
633,0.0587950496768138
634,0.0587349182853568
635,0.0593275430367765
636,0.0588037058670821
637,0.0592909633147001
638,0.0589719331480247
639,0.0592049457353389
640,0.0589298989003552
641,0.0587928627027498
642,0.058224472828913
643,0.057510812811163
644,0.056797152793413
645,0.056083492775663
646,0.0564783861203714
647,0.0561843908513894
648,0.0552585289416847
649,0.0559338571704961
650,0.0553187278355683
651,0.0561461009769386
652,0.0556161614167942
653,0.0548304341268375
654,0.0537833197968789
655,0.0542328697754068
656,0.0535997986672551
657,0.0542243055687994
658,0.0551829844500719
659,0.0565458086029793
660,0.0571522680848418
661,0.0572036263978248
662,0.057562192092031
663,0.0574132406178844
664,0.0570377182886712
665,0.0573064263932249
666,0.0572626973716958
667,0.0578015736925412
668,0.0573685096710634
669,0.056313500910202
670,0.0567672272353848
671,0.0564142194973809
672,0.0560925691359477
673,0.0562231451908225
674,0.0566354537767893
675,0.0564616392605893
676,0.0563157136972746
677,0.0566205012431309
678,0.0560874279202722
679,0.0556743757530747
680,0.0568819640824165
681,0.0561550312997984
682,0.0547374815025662
683,0.0537073234071969
684,0.0515769664699892
685,0.0500487529738517
686,0.0488050110487327
687,0.0474404237721107
688,0.0469668327056866
689,0.0469055330748046
690,0.047401784623435
691,0.0480207015481019
692,0.0479675295398585
693,0.0484038782577602
694,0.0488781582036247
695,0.0489333330571362
696,0.0497633000246032
697,0.0499315622161817
698,0.0492890005641147
699,0.0494674259613623
700,0.0503923162196474
701,0.0499347255543032
702,0.0507220835201928
703,0.0507219415377492
704,0.0518521276372567
705,0.0521075583997046
706,0.0526710414870274
707,0.0537524865806045
708,0.0537451067144115
709,0.0544411226302684
710,0.0539994400150297
711,0.0539474238281801
712,0.053750853241191
713,0.0513948285118374
714,0.0499653810146076
715,0.046633233848384
716,0.0442559019137589
717,0.0418814293445834
718,0.0414475643213078
719,0.0414948093457593
720,0.0419333947747995
721,0.0418673010606595
722,0.0431405663006488
723,0.0427714412861994
724,0.0425783672962348
725,0.0425268718905634
726,0.0421963196235761
727,0.0431398756885105
728,0.0436310549341373
729,0.0450640837406197
730,0.0464743490007535
731,0.0485039857566191
732,0.0505925020228889
733,0.0526480805966382
734,0.054148159040553
735,0.0548634166152885
736,0.0555714023072866
737,0.0562748015190096
738,0.0569782007307327
739,0.0576815999424557
740,0.059018931343111
741,0.0594430434205308
742,0.0600557482475418
743,0.0606684530745528
744,0.0612811579015638
745,0.0614054996660466
746,0.0615463882073786
747,0.0618046091409751
748,0.0611979863063246
749,0.0616092574497574
750,0.0619477544923782
751,0.0614830826184472
752,0.0626801396408279
753,0.0618506549773547
754,0.0612925324491509
755,0.057255354872493
756,0.053218177295835
757,0.049180999719177
758,0.0428622128590909
759,0.0368999514386134
760,0.0329048565247733
761,0.0317278464200395
762,0.0324351686351416
763,0.0352874433653207
764,0.0389153163965345
765,0.0428310742138077
766,0.0472520476018445
767,0.0517057024050341
768,0.0542591178208924
769,0.0563926124928773
770,0.058038163733594
771,0.058682152104764
772,0.059633111661196
773,0.0600494282857581
774,0.0603145899155229
775,0.0599442062456224
776,0.0603244270512158
777,0.0597025238863723
778,0.0606366256344172
779,0.0600648903575349
780,0.0609210604000518
