"wavelength","measurement"
380,0.00270964949955581
381,0.00271122959242877
382,0.00273838565627999
383,0.00274002523097468
384,0.00283020473928
385,0.00306183245908288
386,0.00319207169622104
387,0.00347836334792205
388,0.00372273467392144
389,0.00391156101488476
390,0.00393465724549024
391,0.00399470410420991
392,0.00408214167718322
393,0.00421911561463206
394,0.00442907840884635
395,0.00470270640644292
396,0.00533879969341653
397,0.00603312804892117
398,0.0067274564044258
399,0.00742178475993044
400,0.0078991390191823
401,0.0084925191212012
402,0.00897638785529657
403,0.00922641230380036
404,0.00946832080806186
405,0.00960314542455099
406,0.00998114111044179
407,0.0102591543665627
408,0.0105106215306928
409,0.0108960487670122
410,0.0115892008243018
411,0.0118296632420056
412,0.0123126559587088
413,0.0127700599714521
414,0.0129424559037142
415,0.0132157416624119
416,0.0132465796940454
417,0.0133536926101391
418,0.0136354099503188
419,0.0135120085542398
420,0.0139729701430344
421,0.0140451723213278
422,0.0142387137817502
423,0.014463505367049
424,0.0145914917606892
425,0.0144362287160811
426,0.0143735038827135
427,0.0140673126103428
428,0.0136693575710712
429,0.0137521564556127
430,0.0138057681931796
431,0.0144645269453887
432,0.0149769547904312
433,0.0155290512333658
434,0.0163024133353198
435,0.0167021561188731
436,0.0169487299782507
437,0.0172872400020254
438,0.0176257500258002
439,0.0179642600495749
440,0.0181628218329592
441,0.0185554583616043
442,0.0190775566532231
443,0.019318550187322
444,0.019721110524258
445,0.020123670861194
446,0.02052623119813
447,0.0209754602398684
448,0.021101825796544
449,0.0219986377061295
450,0.0219992136886312
451,0.0219454915612593
452,0.0219793725717333
453,0.0220132535822074
454,0.0220471345926815
455,0.0221096972375076
456,0.022178106703792
457,0.0225637875432151
458,0.0227102224748503
459,0.0232153773985509
460,0.0233170964562847
461,0.0231369847991933
462,0.0238934355185361
463,0.0232894130997816
464,0.0231354022881585
465,0.0230329123531133
466,0.0227910869992388
467,0.0228561375801167
468,0.0226714620586779
469,0.0225701375242733
470,0.0231090980775961
471,0.0231609716178159
472,0.0233994546960151
473,0.0237340604397289
474,0.0238451158802669
475,0.0242791915864656
476,0.0238366655615814
477,0.0238923944780061
478,0.0239481233944309
479,0.0240038523108556
480,0.0239892266280784
481,0.0234436110974216
482,0.0230862628022003
483,0.0230065304945164
484,0.0225123778112976
485,0.0220755648433472
486,0.0223316813761069
487,0.0225326580691463
488,0.0227950230067096
489,0.023455433671637
490,0.0236647639081225
491,0.0239164166071336
492,0.0245352584879051
493,0.0242772706309064
494,0.0247340588575586
495,0.0244079667091141
496,0.0246024133202543
497,0.0242097244437153
498,0.0243806610085788
499,0.0239514497654428
500,0.024089141790747
501,0.0238856782464177
502,0.0243199584951064
503,0.0244814633754554
504,0.0242257329185881
505,0.0250419971694712
506,0.024978543302416
507,0.0251429158695555
508,0.0253197305277133
509,0.0253436420053997
510,0.024966670250663
511,0.0253742392237038
512,0.0251956502729341
513,0.0245401897255647
514,0.0244598149964185
515,0.0240394368609563
516,0.0239475254329312
517,0.0239106159343775
518,0.0238670713901354
519,0.0243233360548705
520,0.0247915725812185
521,0.0250740042987225
522,0.0253564360162265
523,0.0256388677337304
524,0.0254981784854349
525,0.0255691370904069
526,0.0256578587276008
527,0.0255322338154013
528,0.0257020549765943
529,0.0260180277517677
530,0.0260728538096088
531,0.0260884726984111
532,0.0260629655918601
533,0.0262986652886764
534,0.0263670045124309
535,0.0261115350361799
536,0.0263744608083291
537,0.0262218641881992
538,0.0260283137489176
539,0.0258657754812782
540,0.0260045964155687
541,0.0258205991766488
542,0.025681968982609
543,0.0258317981711682
544,0.0259602893424848
545,0.0258050584544204
546,0.0260137225089343
547,0.0260073221665736
548,0.0260009218242129
549,0.0259945214818523
550,0.0258515880408284
551,0.0260411036944587
552,0.0262455843160658
553,0.0260343603725741
554,0.0259133735162146
555,0.0261856487925875
556,0.0258686912040799
557,0.0258268697071438
558,0.025679624422325
559,0.0254838762844606
560,0.0257836423333137
561,0.0253574720808203
562,0.0258132935002869
563,0.0253926121538707
564,0.0255728306618098
565,0.0251712337261412
566,0.0250643421905472
567,0.0247753630826372
568,0.0249347120990121
569,0.0246524754109902
570,0.0246453751232978
571,0.0247075072230026
572,0.0247075430445835
573,0.0247066831710915
574,0.024875434371421
575,0.0245406931425083
576,0.0246207824915436
577,0.0247008718405789
578,0.0247809611896141
579,0.0248610505386494
580,0.0249411398876847
581,0.0252180608109868
582,0.0250216177854652
583,0.0251905945681271
584,0.0247025556432561
585,0.0245657196097258
586,0.0238259583071324
587,0.023410626119163
588,0.0231047342343596
589,0.0227988423495563
590,0.022492950464753
591,0.0225610607172858
592,0.0227763050241703
593,0.0228099339935113
594,0.0232107530056948
595,0.0231954956778112
596,0.0234252027239268
597,0.0235653593086234
598,0.0236102452820864
599,0.023715577508451
600,0.0239371781372099
601,0.024118610134771
602,0.0242455904391351
603,0.0241311918218751
604,0.0243542313375777
605,0.0242369871523325
606,0.0242690046458317
607,0.0241266816981776
608,0.0238313437768538
609,0.0238388279578495
610,0.023639592072457
611,0.0234678043884622
612,0.0232711699244645
613,0.023144694295436
614,0.0228602161998585
615,0.0231269560223328
616,0.0228462225871523
617,0.0230278248386551
618,0.02294625105772
619,0.023037321819467
620,0.0229192022919433
621,0.0230551891319069
622,0.0225914799155685
623,0.0225594419222968
624,0.0223577662547128
625,0.0221560905871289
626,0.0219544149195449
627,0.0219112435066492
628,0.0217680293344085
629,0.0217007239170378
630,0.0218701240667572
631,0.0215416140780234
632,0.0216609568576547
633,0.0217822512996407
634,0.0217459487323817
635,0.0218442735651617
636,0.0216435944120769
637,0.0218129774677904
638,0.0216213990383133
639,0.0216959060488971
640,0.0215372295177905
641,0.0214469653117421
642,0.0212932479591177
643,0.0210690844365227
644,0.0208449209139276
645,0.0206207573913326
646,0.0205828035864455
647,0.0205027578288084
648,0.0200417115396466
649,0.0203775276278229
650,0.0201300645493713
651,0.0202802169615069
652,0.0200332444236346
653,0.0196835015706008
654,0.0192783500715571
655,0.0194922238739924
656,0.0192245548387671
657,0.0194613140220017
658,0.019645975915168
659,0.0201622764911924
660,0.0202927137506683
661,0.0203770220926167
662,0.020420893484572
663,0.0202941338430816
664,0.0201280456048841
665,0.0201771248966814
666,0.0201929112320302
667,0.0201776532755664
668,0.0201497012446614
669,0.0197680375067202
670,0.0198028249273977
671,0.019709530356872
672,0.0195856744929728
673,0.0196082524688161
674,0.0196112800810042
675,0.0195510143267332
676,0.0194739182281185
677,0.0195460039092104
678,0.0192655967556499
679,0.0191854513060396
680,0.0195466245595172
681,0.0191674464997357
682,0.0187155790744766
683,0.0182998852985825
684,0.0176238309502786
685,0.017043299176445
686,0.0165966510015226
687,0.0161792860817309
688,0.0159381938433806
689,0.0159564704595208
690,0.0160776905156037
691,0.0163064121066123
692,0.0162768296589008
693,0.0163648897623582
694,0.0165359511099107
695,0.0165453708718602
696,0.0167992478555972
697,0.0168085960741595
698,0.0165833886180485
699,0.0165700069033239
700,0.0168035467547621
701,0.0166593354261982
702,0.016912211415676
703,0.016947166973738
704,0.0172281151490276
705,0.0172054051603737
706,0.0174630691677688
707,0.0176669142150506
708,0.0176581107855363
709,0.017847364660993
710,0.017612517169759
711,0.0176207763133378
712,0.0175399542102312
713,0.0167002034437629
714,0.0161875612621548
715,0.0151537529359866
716,0.0142133774815954
717,0.0135701855444072
718,0.0133667904495309
719,0.0133630942577507
720,0.0134930754281711
721,0.0133855105887918
722,0.0136938928907444
723,0.0135640774962195
724,0.0134728558114865
725,0.0134154823115545
726,0.0133210139784587
727,0.013508121123228
728,0.013660172951098
729,0.013999098303183
730,0.014383768526591
731,0.014890752167564
732,0.015359835249402
733,0.0158567781329666
734,0.0161573430524338
735,0.016303232550971
736,0.0165581955403425
737,0.0166557448989765
738,0.0167532942576105
739,0.0168508436162444
740,0.01716914655175
741,0.0172302989830229
742,0.017313681118489
743,0.0173970632539551
744,0.0174804453894213
745,0.017480149326058
746,0.0173923483133103
747,0.0174050086737405
748,0.0171240375232305
749,0.0171890207859222
750,0.0171339042925619
751,0.0169840969431346
752,0.0171621345061587
753,0.0168623349446701
754,0.0166153190019353
755,0.0154727038260458
756,0.0143300886501564
757,0.013187473474267
758,0.0114212370946921
759,0.00984110440984516
760,0.00875333560744384
761,0.00845493236633115
762,0.00874954238199292
763,0.00941572105737479
764,0.0103874799821311
765,0.0113479634208482
766,0.012499465114752
767,0.0135873844875794
768,0.0142124043710993
769,0.014663359351922
770,0.0149344498439965
771,0.0150714603872206
772,0.0152321551248893
773,0.0153378631284942
774,0.0152281782177699
775,0.0152062172956664
776,0.0152330445660339
777,0.0149955820599468
778,0.015060690685768
779,0.014894182723759
780,0.0150320365149531
