"wavelength","measurement"
380,0.00208220805132252
381,0.00206563866545482
382,0.00210487861739035
383,0.00209392175560409
384,0.00214636449902247
385,0.00229446129627383
386,0.00242885089545857
387,0.00257923275170819
388,0.00277512275734927
389,0.00294922521846093
390,0.00291086462496524
391,0.00296000786803314
392,0.00302049136552362
393,0.00315050193824811
394,0.00323170046911992
395,0.00343430948500574
396,0.00384086006424948
397,0.00432635284123257
398,0.00481184561821567
399,0.00529733839519877
400,0.00559150173309505
401,0.00603534099877721
402,0.00629158672031596
403,0.00642736100366473
404,0.00654210359168242
405,0.00661087108222893
406,0.00677090473448646
407,0.00695164857876124
408,0.00704239420543651
409,0.0072537052391893
410,0.00770813631649122
411,0.00778030992077244
412,0.00805472104106078
413,0.00827723096105244
414,0.00838164962373002
415,0.00847607027101203
416,0.00848671501457477
417,0.00850356629311867
418,0.00862283165091134
419,0.00853174520447393
420,0.00877708669546481
421,0.00876160710757948
422,0.00891076267170305
423,0.00902404719075544
424,0.00913159706589526
425,0.00898798719199805
426,0.00891831275050569
427,0.00874007656756966
428,0.00844472783409168
429,0.00843838471424399
430,0.0085488510965613
431,0.00887825778032424
432,0.009231190836246
433,0.00959622358097749
434,0.0100366031832386
435,0.0102752732228738
436,0.010403218093268
437,0.0106025510555393
438,0.0108018840178107
439,0.0110012169800821
440,0.0110805092255708
441,0.0113308348112154
442,0.0116235902945753
443,0.0117897054564317
444,0.012029858345842
445,0.0122700112352522
446,0.0125101641246625
447,0.0127655944839061
448,0.0128742398519352
449,0.0134126122843784
450,0.0134082649097598
451,0.0133449814440857
452,0.0133709892714379
453,0.0133969970987902
454,0.0134230049261424
455,0.0133913338247956
456,0.0134384650183306
457,0.0136748193762747
458,0.0137283998045393
459,0.014012997998258
460,0.0140591630039597
461,0.0139384437030101
462,0.0144195460113075
463,0.0140346854610084
464,0.0139055118836731
465,0.0138476912571946
466,0.0136829839656521
467,0.0136813446465971
468,0.0135710225362156
469,0.0134960001204398
470,0.0137910462176085
471,0.0138073810623045
472,0.0139702955183866
473,0.0141254216427267
474,0.0141974333632409
475,0.014447976779567
476,0.0141594567697808
477,0.0141844379854608
478,0.0142094192011408
479,0.0142344004168208
480,0.0142176914780765
481,0.0138930913033833
482,0.0136784944365388
483,0.0136114903888833
484,0.0133323892693334
485,0.0130439614649417
486,0.0131830617984586
487,0.0132977597740766
488,0.0134335134772739
489,0.0138107495789367
490,0.0139741062597781
491,0.0140704313345446
492,0.0144733682856857
493,0.0143269139753286
494,0.0145643054617249
495,0.014407880518282
496,0.0144846288514594
497,0.0142754620381313
498,0.0143523116974365
499,0.0140939754216758
500,0.0141526823044815
501,0.0140318243535004
502,0.0143042598989771
503,0.0143812125917484
504,0.0142495204231984
505,0.0147537535119959
506,0.0147062986706187
507,0.0148072219860752
508,0.0149118602885276
509,0.0149528436742134
510,0.0147425668355973
511,0.0150144043250712
512,0.0149026647738375
513,0.0145361183596385
514,0.0144780390042607
515,0.0142626357565742
516,0.0141914848989731
517,0.0141792535222035
518,0.0141703623456521
519,0.0144268438386361
520,0.014761513085191
521,0.0149574136839942
522,0.0151533142827973
523,0.0153492148816005
524,0.0152687609001282
525,0.0153312143098001
526,0.0153966369802571
527,0.0153410008501184
528,0.0154553944422729
529,0.0156556043999165
530,0.015688298527561
531,0.0157292530039467
532,0.0157009164716837
533,0.0158469223593148
534,0.0159035557757248
535,0.0157278829274911
536,0.0158983123088393
537,0.015794664365146
538,0.0156790400298665
539,0.015576663356453
540,0.0156480434862756
541,0.0155373463417996
542,0.0154640133522118
543,0.0155266049795178
544,0.015634853906022
545,0.0155056205115252
546,0.0156411441656962
547,0.0156227121016934
548,0.0156042800376905
549,0.0155858479736876
550,0.0155124319487823
551,0.0156328833886438
552,0.0157190198601078
553,0.0156107959674006
554,0.0155214151306303
555,0.0156634231703236
556,0.0154897644932594
557,0.0154483859604037
558,0.0153417660039411
559,0.0151840008144961
560,0.0153860927289346
561,0.0151113627887365
562,0.015340028514373
563,0.015112834267241
564,0.0151567407837661
565,0.0149065554788072
566,0.0148381772039714
567,0.0146222072987528
568,0.0147033492908801
569,0.0144743927964858
570,0.0144473478690778
571,0.0144655734847475
572,0.0144650371519429
573,0.0144236486766262
574,0.0145175004794355
575,0.014337322013555
576,0.0143665977394681
577,0.0143958734653812
578,0.0144251491912943
579,0.0144544249172074
580,0.0144837006431205
581,0.0146169826209388
582,0.014522932796588
583,0.0145889865271228
584,0.014311175846106
585,0.0142013194605489
586,0.0136973909311952
587,0.013433280906056
588,0.0132157810374464
589,0.0129982811688367
590,0.0127807813002271
591,0.0127942679924725
592,0.0129246940703841
593,0.0129635877211685
594,0.0131375481553738
595,0.0131027301169245
596,0.0132729615387829
597,0.0133440919749254
598,0.0133884332432177
599,0.0134320791041397
600,0.0135570945944032
601,0.0136502087135796
602,0.0137338863209512
603,0.0136468573425955
604,0.0137545633778036
605,0.0137042644644681
606,0.0136750400982754
607,0.0136117731743049
608,0.0134028497359088
609,0.0133607370757087
610,0.0132551459291726
611,0.0131753754352185
612,0.0130375096973866
613,0.0129565403789295
614,0.0127756566904328
615,0.0128448826711003
616,0.0127119479970092
617,0.0128086937086491
618,0.0127706191752089
619,0.0127854046955947
620,0.0127073111790722
621,0.0127716139559897
622,0.0125167216873059
623,0.0124564615520907
624,0.0123248022453112
625,0.0121931429385317
626,0.0120614836317522
627,0.0120468311390372
628,0.0119493183451113
629,0.0118958100503883
630,0.0119913224398811
631,0.0118181749214525
632,0.011858577330936
633,0.0119241652604617
634,0.0119104623429474
635,0.0119576962348301
636,0.011868810080567
637,0.0119296330262752
638,0.0118009843647622
639,0.0118505226725559
640,0.0117472174932756
641,0.011689740428657
642,0.0115805513644995
643,0.011429909989895
644,0.0112792686152905
645,0.011128627240686
646,0.0110847273151455
647,0.0110383703445899
648,0.010787402817482
649,0.0109564786496675
650,0.0108075901194186
651,0.0108962265545031
652,0.0107693188436453
653,0.0105649900874852
654,0.0103489249624498
655,0.0104266578557202
656,0.0103379902645177
657,0.0104249684633408
658,0.0105358637347353
659,0.0108162668594845
660,0.0108941941741313
661,0.0109230019193669
662,0.0109407974945677
663,0.0108533666792233
664,0.0107671650857678
665,0.0108024733826197
666,0.0107722870915028
667,0.0107839738389011
668,0.0107738388080689
669,0.01052736979198
670,0.0105523729216586
671,0.0104559082152192
672,0.0104503412503768
673,0.0104370848866638
674,0.0104337172495403
675,0.0104135461427698
676,0.0103568049126257
677,0.0104012069826782
678,0.0102637403644678
679,0.0101734399102546
680,0.0104163577727828
681,0.0101871870905021
682,0.00994241222297501
683,0.00973527929385162
684,0.00936372405621845
685,0.00902310579516858
686,0.00877358437267585
687,0.00856712659988268
688,0.00842414379176101
689,0.00847517084906468
690,0.00856707230616823
691,0.00874050747339262
692,0.00872671057064118
693,0.0087694051050803
694,0.00895904359529164
695,0.00900801277597227
696,0.00920157030295886
697,0.00923003197550558
698,0.00915010095771308
699,0.00918568922208331
700,0.00936179308679316
701,0.00932115166840498
702,0.00952700218870789
703,0.0095782229208584
704,0.00983601344388958
705,0.00988421107466222
706,0.010083756669756
707,0.010278352006897
708,0.0103001868612272
709,0.0104450918117819
710,0.0103610452861323
711,0.0104343772502797
712,0.0104766625806424
713,0.0100090101979113
714,0.00970136698399727
715,0.00909856523209191
716,0.0085718276458123
717,0.00818132071879355
718,0.0080791205714392
719,0.00811853495623792
720,0.00825295065884237
721,0.00822864258821323
722,0.00846802277569371
723,0.00842890470109679
724,0.00839506041170918
725,0.00843217271775916
726,0.00838619263888708
727,0.0085442150328665
728,0.00869333992153209
729,0.00892740020623123
730,0.00925459274937936
731,0.00964556940214849
732,0.00999788741514916
733,0.0103643537887052
734,0.0106458967415048
735,0.0107887575516726
736,0.0109907355781367
737,0.0111134753517931
738,0.0112362151254496
739,0.0113589548991061
740,0.0116247778045986
741,0.0116942538519993
742,0.0117805054668573
743,0.0118667570817153
744,0.0119530086965733
745,0.0120251627423981
746,0.0120042750883671
747,0.012028622464234
748,0.0118492013284452
749,0.0119178391503584
750,0.011882618618379
751,0.0118462948778254
752,0.011914844574589
753,0.0117118232210797
754,0.0116156034451274
755,0.0108110506319238
756,0.0100064978187202
757,0.00920194500551665
758,0.00793252479615161
759,0.00680847398576562
760,0.0059914172225855
761,0.00572616850338757
762,0.00596506357111531
763,0.00637679703273961
764,0.00713092420130371
765,0.00781003411503689
766,0.00866980381145266
767,0.00946431471933511
768,0.00997455519693783
769,0.0102817488856178
770,0.0105154075238222
771,0.0106291667617802
772,0.010749280933789
773,0.010826671316559
774,0.010741273229479
775,0.0107472380398405
776,0.010776755626473
777,0.0105909341139308
778,0.0106479706099163
779,0.0105398674658185
780,0.0106335222315904
