"wavelength","measurement"
380,0.0290666152541006
381,0.0278430722477301
382,0.0269681855328694
383,0.0261719415577677
384,0.0261457184419193
385,0.0272021981742789
386,0.0281056587152811
387,0.0291534477471966
388,0.0298547908904151
389,0.0304440377641324
390,0.0298678789598184
391,0.029324164348322
392,0.0290351698539091
393,0.0289709386196866
394,0.029068839790232
395,0.0299991339088546
396,0.0330308198781827
397,0.0359693319317121
398,0.0389078439852414
399,0.0418463560387708
400,0.0435395363742846
401,0.0452855455500209
402,0.0464789202713175
403,0.046311241950816
404,0.0458565636281967
405,0.0450758923490927
406,0.0453813026886656
407,0.0450105216157338
408,0.0448749600659961
409,0.0450802098989037
410,0.0462557114872058
411,0.0460564221183267
412,0.0466796235994294
413,0.0472288010808647
414,0.0467894349041867
415,0.0467015332235347
416,0.0457332272867162
417,0.0451354738807028
418,0.0453510670501324
419,0.0440510323430116
420,0.0446834993485824
421,0.044154735207022
422,0.0442283833472735
423,0.0442448261006418
424,0.0442534376598626
425,0.0429091642398803
426,0.0423302477495457
427,0.0408939369933125
428,0.0395914692097863
429,0.0390162581266717
430,0.0386958629358628
431,0.03982328412057
432,0.0410983293128853
433,0.0422488608282852
434,0.0439128526301927
435,0.0444456343895502
436,0.0447776646624546
437,0.0452290357353188
438,0.045680406808183
439,0.0461317778810473
440,0.0461960516915438
441,0.0468026156185804
442,0.047559197944546
443,0.0479365454590748
444,0.0483905188477263
445,0.0488444922363778
446,0.0492984656250293
447,0.0499343432095979
448,0.0499739195164615
449,0.0516896990766011
450,0.0513555577213692
451,0.0506202550691508
452,0.0503446543469215
453,0.0500690536246922
454,0.0497934529024629
455,0.0496282816883968
456,0.0492494486686646
457,0.0498580183333227
458,0.0499888094630418
459,0.0505488038985757
460,0.0503849499660792
461,0.0495773348128691
462,0.0508331448250633
463,0.0492558536257656
464,0.0485700397428983
465,0.0481156905191853
466,0.0471557542719383
467,0.0469624413872609
468,0.046171361137607
469,0.0457749912397476
470,0.0466764770472553
471,0.0463387945892634
472,0.0465296334208974
473,0.0467426406717589
474,0.0468904121897449
475,0.0474646386953514
476,0.0460707182789756
477,0.0459875898047533
478,0.0459044613305309
479,0.0458213328563086
480,0.0455880822805548
481,0.0442462305434006
482,0.0434438889333832
483,0.0430278814660779
484,0.0419328049426844
485,0.040860148608775
486,0.0410532630237119
487,0.0412733207231719
488,0.0414744885071676
489,0.0424795529137856
490,0.0426020921616305
491,0.0430005955930607
492,0.04393295897976
493,0.0432756985933024
494,0.0438135387043421
495,0.0431568870744464
496,0.0432721195813185
497,0.0424190664909336
498,0.0425188714188853
499,0.0414941544091623
500,0.041681362094456
501,0.0410086064673664
502,0.0417111734255815
503,0.0417352150896317
504,0.0411664852465079
505,0.0424204214730923
506,0.0422587679681033
507,0.0423788736428439
508,0.04268535695399
509,0.0426167969044688
510,0.0419143035454062
511,0.0424500203631486
512,0.0421523766663952
513,0.0410891963995195
514,0.040818605629753
515,0.0401154095777111
516,0.0398886937686256
517,0.0398296682299738
518,0.0395569185575933
519,0.0404234192908154
520,0.0412595671387243
521,0.0417989168506032
522,0.0423382665624821
523,0.0428776162743609
524,0.0425274846705698
525,0.042798023142095
526,0.0428336315373826
527,0.0425923765526996
528,0.0429716420771171
529,0.0435167873541797
530,0.0436142558673374
531,0.0436502039759241
532,0.0435163310732296
533,0.0439831691206469
534,0.0441189071974062
535,0.0436361560535871
536,0.0439892230484041
537,0.0435625498199183
538,0.043201956539525
539,0.0429251449939293
540,0.043057562738238
541,0.0427816103032175
542,0.0424295399199763
543,0.0426177974647513
544,0.0427842203814788
545,0.0425475114891729
546,0.0427988393604881
547,0.0427267934556228
548,0.0426547475507575
549,0.0425827016458922
550,0.0423734163357024
551,0.0427786827792088
552,0.0429663156993396
553,0.04257798942751
554,0.042385663771203
555,0.042806736292145
556,0.0420560538628906
557,0.0419637761030777
558,0.0415349151815123
559,0.0412071125449086
560,0.0415597213386755
561,0.0407129428615923
562,0.0413242335695667
563,0.0405357156318033
564,0.0406680655671744
565,0.0399993332934566
566,0.0395387131953134
567,0.0389459685224309
568,0.0390508739624287
569,0.0384302954547264
570,0.0382782004362033
571,0.0382090374177534
572,0.0381374575452272
573,0.0379344306514781
574,0.0380868740410477
575,0.0375970331816983
576,0.037619050087524
577,0.0376410669933497
578,0.0376630838991754
579,0.0376851008050012
580,0.0377071177108269
581,0.0381207988715445
582,0.0378567894328257
583,0.0379530900967917
584,0.0370573868682871
585,0.0368381613046817
586,0.0355557006065933
587,0.034650222478232
588,0.0340867445367365
589,0.033523266595241
590,0.0329597886537455
591,0.0330533593622097
592,0.0332982457797054
593,0.0333220008092594
594,0.0339897246664091
595,0.0339213950056632
596,0.0341689522860901
597,0.0344218896413038
598,0.03454315292181
599,0.0346309220549464
600,0.0350012374935642
601,0.0352772857953659
602,0.0355128376913041
603,0.0353146718524722
604,0.0355582607385027
605,0.0354530367644039
606,0.0353635396372326
607,0.0352024844834429
608,0.0346844645267279
609,0.0346141440285036
610,0.0342637393257284
611,0.0339933601279915
612,0.0336262672684953
613,0.0335159125824365
614,0.0330858237708656
615,0.0333939719018962
616,0.0328332951320567
617,0.0330802120525364
618,0.0330843140085943
619,0.0331200028932643
620,0.0329374534957687
621,0.0331246306481579
622,0.0324395405718187
623,0.0323585639264594
624,0.0320486131949993
625,0.0317386624635392
626,0.0314287117320791
627,0.0314169654432716
628,0.0311188984024743
629,0.0310731666271467
630,0.0313788566546399
631,0.0308903360052393
632,0.031205274571137
633,0.0313404657673935
634,0.0312150386191693
635,0.0315506644634959
636,0.0312118060754352
637,0.0315265156678243
638,0.0312600397480653
639,0.0314184973248111
640,0.0311765199251527
641,0.0310770503011747
642,0.0307642958261274
643,0.0303642604467175
644,0.0299642250673076
645,0.0295641896878977
646,0.0295790517963033
647,0.0293555784083524
648,0.0288383596159411
649,0.0292502029790458
650,0.0289499311492772
651,0.0293040949745819
652,0.0288815823932062
653,0.0285239078091578
654,0.0280335760899908
655,0.0283232024676464
656,0.0278238557879815
657,0.0283998017248429
658,0.0286970273409663
659,0.029461924405767
660,0.029657224549762
661,0.0296625842951763
662,0.0298698777307552
663,0.0296603156982784
664,0.0295351613421413
665,0.0295060413896395
666,0.0295050458424143
667,0.0295350112583446
668,0.0294903925446536
669,0.0291492851101678
670,0.0290921782281693
671,0.0290247007293277
672,0.029007627661653
673,0.0289660436463182
674,0.0289595170996505
675,0.0289415289369016
676,0.0289725754917412
677,0.0291532944241499
678,0.028768544241286
679,0.0287851183988385
680,0.0295145458075473
681,0.0290593105051841
682,0.0283848705670799
683,0.0278675864396581
684,0.0270282663292417
685,0.026151367958264
686,0.0256226709244673
687,0.0251086063080268
688,0.0249676360349355
689,0.0252061281178326
690,0.0256361114696437
691,0.0262940802331086
692,0.0265947314539809
693,0.0269579947051655
694,0.0278322312091272
695,0.0282189131015009
696,0.0291140605280143
697,0.0296771907059955
698,0.0297259203966592
699,0.0302212954542254
700,0.0312945949716961
701,0.0315874559485239
702,0.0328207855906046
703,0.033421151351475
704,0.0346910999200265
705,0.0353568842935989
706,0.0364737677843745
707,0.0377371319632145
708,0.0383139706557853
709,0.039271239748336
710,0.0397404129616948
711,0.0403962999788704
712,0.0407437519553129
713,0.0395611714412491
714,0.0388473127407488
715,0.0369121264802101
716,0.0354486475634852
717,0.0345998729686436
718,0.0346199843000422
719,0.0353939903599308
720,0.0366050984898897
721,0.0370826965085472
722,0.0386855349370689
723,0.0389305735700517
724,0.0394399829431197
725,0.0399908476265121
726,0.0405738010488842
727,0.0420030351081112
728,0.0433029646775964
729,0.04536369768733
730,0.0475679847738355
731,0.0501857524334324
732,0.0530382381414047
733,0.0555792554410686
734,0.0575821350048338
735,0.0591557067830468
736,0.0610093199059014
737,0.0623812307109161
738,0.0637531415159308
739,0.0651250523209455
740,0.0672340999351453
741,0.0685525014436226
742,0.0697768003236988
743,0.0710010992037751
744,0.0722253980838513
745,0.0728831260023354
746,0.0735575190531736
747,0.0743000083063236
748,0.0740049935847063
749,0.0748722563463428
750,0.0752485934714007
751,0.0752696589542165
752,0.0766354138876176
753,0.0763546380154552
754,0.0756683024996496
755,0.070746290104204
756,0.0658242777087584
757,0.0609022653133129
758,0.0528779748929147
759,0.0455229287071001
760,0.0406725894530659
761,0.0394814002169266
762,0.0409124967328097
763,0.0442949744143284
764,0.0492246831356537
765,0.0543655880666622
766,0.0604241014926528
767,0.0664363820118002
768,0.0698752610099598
769,0.072639303931606
770,0.0745270202971805
771,0.0757243129006884
772,0.0766429753502656
773,0.077750710363012
774,0.0773408874440178
775,0.0778329280402676
776,0.0780145155905499
777,0.077303913529964
778,0.078581831784647
779,0.0776542911121925
780,0.0787308788087075
