"wavelength","measurement"
380,0.00116268538680955
381,0.00119104909713307
382,0.00121658921022575
383,0.00119895999538766
384,0.00126996651069908
385,0.00134260755754881
386,0.00141766579866248
387,0.00154021872167359
388,0.00169710317428866
389,0.00179413125020971
390,0.0018032181949708
391,0.00185860003595187
392,0.00190580853668758
393,0.00202065621070134
394,0.00216061636839715
395,0.00236286225931548
396,0.0026851195160444
397,0.00308665934447694
398,0.00348819917290948
399,0.00388973900134201
400,0.00421442094807426
401,0.00463154636674764
402,0.00499677409820048
403,0.00521872304450096
404,0.00546280366685524
405,0.00563670889193311
406,0.00596305108406504
407,0.00620118013548832
408,0.00645177363518387
409,0.00680896114666185
410,0.00729795599958146
411,0.00754433919079624
412,0.00791585758078199
413,0.00829844997075546
414,0.00844912089022815
415,0.00870105113707209
416,0.00875082075442158
417,0.00887446541608027
418,0.00908815079139831
419,0.00904252523670606
420,0.0093522925167236
421,0.00943262262078359
422,0.00958527373914578
423,0.00977716058186459
424,0.00984672750905773
425,0.00975024741033569
426,0.00977628600765894
427,0.00953897189932712
428,0.00929139005564231
429,0.00931453889876881
430,0.00939853620364779
431,0.00979038280739487
432,0.0101991598921973
433,0.0106095321984831
434,0.0110917357742826
435,0.0114046425535071
436,0.0115568409472424
437,0.0118033899430936
438,0.0120499389389448
439,0.012296487934796
440,0.0124093780523554
441,0.0127106323466412
442,0.0130506077326477
443,0.0132445022141501
444,0.0135156698430675
445,0.013786837471985
446,0.0140580051009024
447,0.0143707377599704
448,0.0145030251849746
449,0.0150881819409489
450,0.0150949655391694
451,0.0150825618275342
452,0.0151288573395675
453,0.0151751528516008
454,0.0152214483636341
455,0.0152383593047137
456,0.0153316649229285
457,0.0155735173863005
458,0.0156998996390106
459,0.0160588548117664
460,0.016139611944569
461,0.0160319514835296
462,0.0165607852472462
463,0.016182444146624
464,0.0160646132243927
465,0.0160022083930723
466,0.0158331708916579
467,0.015887262348489
468,0.0157729463741021
469,0.0156996097564938
470,0.0161356574566303
471,0.0161708153219304
472,0.0163076150270935
473,0.0165455407141442
474,0.016682981258531
475,0.0169847504489652
476,0.0166615923856013
477,0.0167143798921087
478,0.0167671673986161
479,0.0168199549051236
480,0.0168345104903127
481,0.0164170280307785
482,0.0162067794265585
483,0.0161270471188745
484,0.0158190199943665
485,0.0154976117482712
486,0.0157054293083588
487,0.0158787487195132
488,0.0160343514252539
489,0.016537971073899
490,0.0166944982581592
491,0.0168851827553805
492,0.0172990747838488
493,0.0171614270863879
494,0.0174727074868104
495,0.0172844703896618
496,0.0174512400122004
497,0.0171313346088511
498,0.017292496642297
499,0.0169751626187505
500,0.0171071747304129
501,0.0169414495483106
502,0.0173083470589667
503,0.0174087052822591
504,0.017241803945138
505,0.0178648723053329
506,0.0178350309804278
507,0.0179327713069906
508,0.018053092282837
509,0.0181241039079375
510,0.017852052901842
511,0.0181542675784772
512,0.0180568921963178
513,0.0175820568441016
514,0.0175222099447132
515,0.017235022937626
516,0.017183943826329
517,0.0171522166468237
518,0.0171415478324956
519,0.0174732813759697
520,0.0178379065555107
521,0.0180696000467586
522,0.0183012935380065
523,0.0185329870292544
524,0.0184311922705578
525,0.0184893809231939
526,0.0185870888231427
527,0.0184965528146094
528,0.0186522508289289
529,0.0189188801754522
530,0.0189510040958075
531,0.0190006761908386
532,0.01897469612309
533,0.0191550593597845
534,0.0192513032941987
535,0.0190123874598645
536,0.0192671546513547
537,0.0191284561930841
538,0.0189922802168627
539,0.0188900861049885
540,0.0190169822861204
541,0.0188620962468412
542,0.0187994091695475
543,0.0189008145762296
544,0.0190020973408719
545,0.0188768830665927
546,0.0190401132860601
547,0.0190440356137888
548,0.0190479579415176
549,0.0190518802692464
550,0.0189413621873411
551,0.0191211996535015
552,0.019250383100739
553,0.019109617237882
554,0.0190147614876911
555,0.0192153284017449
556,0.0189897333408799
557,0.0189696384989596
558,0.0188606844592492
559,0.0187296071962541
560,0.0189623266160739
561,0.0186305449670339
562,0.0189835060845583
563,0.0186827116431986
564,0.0187969827189618
565,0.0185213992875673
566,0.0184689289445923
567,0.0182484985554451
568,0.0183832141761105
569,0.0181496662158217
570,0.0181345912768249
571,0.018199456041227
572,0.0182319488249948
573,0.0181991706395688
574,0.0183072295321404
575,0.0181197719235837
576,0.0181720515921258
577,0.0182243312606679
578,0.01827661092921
579,0.0183288905977521
580,0.0183811702662942
581,0.0185800504023534
582,0.01846529828591
583,0.0185342569130858
584,0.0181816819579006
585,0.0181027048442127
586,0.0175261151547992
587,0.0172227368236503
588,0.0170019421903779
589,0.0167811475571055
590,0.016560352923833
591,0.0166012044080824
592,0.0167421631520478
593,0.0167752731778525
594,0.0170530062279899
595,0.0170487737132083
596,0.0171841775516423
597,0.017285590731567
598,0.0173094299317358
599,0.0173749020393896
600,0.0175098938384691
601,0.0176187394300062
602,0.0177258794500571
603,0.0176451858870331
604,0.0178089081858673
605,0.0176855987111896
606,0.0177065366507075
607,0.0176150351354461
608,0.0173772627228514
609,0.0173740176914937
610,0.0172365207594722
611,0.0171037912403057
612,0.0169470218216979
613,0.0168715865885794
614,0.01664918465019
615,0.0168144523994224
616,0.0166159660406545
617,0.016771133921517
618,0.0167245340884015
619,0.016776218787453
620,0.0166923725244931
621,0.0167626620980994
622,0.0164413902920677
623,0.0164059977777091
624,0.016265445046134
625,0.0161248923145589
626,0.0159843395829837
627,0.0159695261352288
628,0.0158547312379138
629,0.015799235617855
630,0.0159340274888289
631,0.0157094835678003
632,0.0157744029651773
633,0.0158460102057909
634,0.0158342841037269
635,0.0159059829727888
636,0.015751916773292
637,0.0158701455720663
638,0.0157151033951056
639,0.0157885287259133
640,0.0156823508877429
641,0.0156199213240286
642,0.0154600516439735
643,0.0153020068925068
644,0.0151439621410401
645,0.0149859173895733
646,0.0149849136782505
647,0.0149296370737037
648,0.0146035730344893
649,0.0148358763094415
650,0.0146812099696716
651,0.0148041539751328
652,0.0146115982506093
653,0.0143488687623534
654,0.0140831910024081
655,0.0141901230229365
656,0.0140244121599616
657,0.0141843042004068
658,0.0143386593531272
659,0.014691928452623
660,0.0147813275696644
661,0.0148399930940881
662,0.0148873788504979
663,0.0147846285586923
664,0.0146903844401948
665,0.0147389119439282
666,0.0147227580709913
667,0.014727355726287
668,0.0146673802809595
669,0.0144060369958395
670,0.014461089490054
671,0.0143621785053065
672,0.0143081982790857
673,0.01432079370817
674,0.014330301545656
675,0.0142853271086239
676,0.0142164005388441
677,0.0142999402015321
678,0.0140979307457479
679,0.0140422172454111
680,0.014324410358156
681,0.0140588962602662
682,0.0136954331655294
683,0.0134215095086226
684,0.0129223667342166
685,0.0125161759025862
686,0.0122194389102288
687,0.0119372248422929
688,0.0117694218828576
689,0.0117763430509845
690,0.0118845435363217
691,0.0121012068064261
692,0.0120542496036075
693,0.0121333540992025
694,0.0122851247608705
695,0.0122996441831406
696,0.0124935383009162
697,0.0125147959451909
698,0.0123259167262546
699,0.012370461810063
700,0.0125460814318738
701,0.0124529302059365
702,0.012637206020225
703,0.0126842538385363
704,0.0128999136618374
705,0.0129082242346961
706,0.0130834046850799
707,0.0132662730273931
708,0.0132575046320415
709,0.013385369895755
710,0.0132094290647943
711,0.0132655941415314
712,0.0132170187956349
713,0.0126252420230072
714,0.0122308226237234
715,0.0114999174793751
716,0.0108377045189709
717,0.0103435544791836
718,0.0101847775802515
719,0.0101905865947624
720,0.010277990309221
721,0.0101932195720048
722,0.0104335874261771
723,0.0103306519930504
724,0.0102614793871126
725,0.0102452365417011
726,0.0101560802635379
727,0.0103183646091551
728,0.0104069290599675
729,0.0106324553960169
730,0.0109274710072181
731,0.0112828180331089
732,0.0116384320305858
733,0.0120137012667916
734,0.0122733681804755
735,0.0122902005818466
736,0.0125070858155391
737,0.0125869093475597
738,0.0126667328795803
739,0.0127465564116009
740,0.0129710509969744
741,0.0129904952574495
742,0.0130526262536718
743,0.0131147572498942
744,0.0131768882461165
745,0.0131731697829759
746,0.0131391297878423
747,0.0131558902401362
748,0.0129345735103115
749,0.0129896793287325
750,0.0129218125897529
751,0.0128228047763665
752,0.0129667935124321
753,0.0127249842488965
754,0.0125757355166888
755,0.0117243600659249
756,0.010872984615161
757,0.0100216091643972
758,0.00870248533921372
759,0.0075064004312891
760,0.00673986972083879
761,0.00648394102283483
762,0.00672714059424206
763,0.0071984855318255
764,0.00793132679382163
765,0.00864419314923153
766,0.00950502077376309
767,0.0103285504578492
768,0.0107785090091934
769,0.0110974618335408
770,0.0113274550630311
771,0.0114439706210249
772,0.011550966745682
773,0.011653495399014
774,0.0115638609775797
775,0.0115118385541698
776,0.0115690229265922
777,0.0113774507944856
778,0.0114348978868323
779,0.0113075537395486
780,0.0114141264026444
