"wavelength","measurement"
380,0.000986459168721299
381,0.00103619809761515
382,0.000980710761087338
383,0.001008724491455
384,0.00102722081824565
385,0.00114637245323891
386,0.00117834086375992
387,0.00128392411417113
388,0.00136881117262403
389,0.00146282193127507
390,0.00148140751342174
391,0.00150479878450806
392,0.00156017462444346
393,0.0016213718574195
394,0.00173284924076958
395,0.00183780964089915
396,0.00211103658680787
397,0.00240289904912257
398,0.00269476151143727
399,0.00298662397375198
400,0.00322733341155447
401,0.00351913232398976
402,0.00373579385628336
403,0.00389945033497685
404,0.00405194946617111
405,0.0041689526419776
406,0.00432301433860514
407,0.00450462069505096
408,0.00469671973329471
409,0.00491854618794013
410,0.00523525835572018
411,0.00541010178652419
412,0.00567009110891315
413,0.00592489912716551
414,0.00601813755824587
415,0.00617947164975817
416,0.00623161921090682
417,0.00631333673825033
418,0.00647459129932265
419,0.00642980875417247
420,0.00667765753073458
421,0.00671217170841005
422,0.00686925026909443
423,0.00694797676601169
424,0.00706081088424659
425,0.00695293592407813
426,0.00694578403143117
427,0.00681404318302238
428,0.00664279092669186
429,0.00665798592004816
430,0.00671942998263309
431,0.00701294444997816
432,0.0072850445072083
433,0.00759110368861387
434,0.00795442649671926
435,0.00812175100211812
436,0.0082784972681102
437,0.00844184377673457
438,0.00860519028535894
439,0.00876853679398331
440,0.00887963141069982
441,0.00906654076655492
442,0.00931354643270095
443,0.00946081263316917
444,0.00965811510912086
445,0.00985541758507255
446,0.0100527200610242
447,0.0102620844227896
448,0.0103658846941778
449,0.0107961576061065
450,0.0107914018269591
451,0.0107616146016761
452,0.0108002332527887
453,0.0108388519039013
454,0.0108774705550139
455,0.0108815327168915
456,0.0109250460312455
457,0.01113154245546
458,0.0112152421497198
459,0.0114663643590529
460,0.0115027228068374
461,0.0114051647750829
462,0.0118184733870098
463,0.0115339712914122
464,0.011451558265532
465,0.0113952904341961
466,0.0112991415084598
467,0.011316048580763
468,0.0112486608674291
469,0.0112163317373628
470,0.0114904821919908
471,0.0115170347910564
472,0.0116336362065553
473,0.0118233516011585
474,0.0119198678641399
475,0.0121398541808185
476,0.0118841040362917
477,0.0119278209790901
478,0.0119715379218885
479,0.0120152548646869
480,0.0119671967372528
481,0.0116969628639117
482,0.0115339227940471
483,0.0114974576774049
484,0.0112699543864272
485,0.0110471870152935
486,0.0111894162433738
487,0.0113038081927207
488,0.0114344381092999
489,0.0117858168035547
490,0.0119146341546856
491,0.0120445190520256
492,0.0123652837069008
493,0.012252867175552
494,0.0124694261479746
495,0.012331962311245
496,0.0124465222726904
497,0.012249499195316
498,0.0123486157264664
499,0.0121359073982214
500,0.0122085667114437
501,0.0121343551418109
502,0.01237882960247
503,0.012473793112102
504,0.01236106334919
505,0.0127783235200935
506,0.0127649197864409
507,0.0128577750369302
508,0.0129617799462762
509,0.0129719470839742
510,0.0127918607551942
511,0.0130399148057961
512,0.0129454625865942
513,0.0126244053126606
514,0.0125709630961567
515,0.0123852131281485
516,0.0123526057791809
517,0.0123288499665272
518,0.0123025110280751
519,0.0125597400451125
520,0.0128325713388816
521,0.0130023689529042
522,0.0131721665669268
523,0.0133419641809494
524,0.0132768611388665
525,0.0133620085797672
526,0.013384515649294
527,0.0133227733433011
528,0.0134629358960598
529,0.0136518660384274
530,0.0136855270826749
531,0.0137020918938725
532,0.0136964491576216
533,0.0138394484597039
534,0.013883193701182
535,0.0137365053003842
536,0.0138841708665998
537,0.0138495304407117
538,0.0137124041628247
539,0.0136662778492205
540,0.0137488558144271
541,0.0136449138271103
542,0.0135846287796026
543,0.0136667763449279
544,0.0137365546386841
545,0.0136560702317431
546,0.0137970362407593
547,0.013791671595836
548,0.0137863069509127
549,0.0137809423059894
550,0.0136812672974667
551,0.0138151333731452
552,0.0138987745983949
553,0.0138265366527666
554,0.0137532148696962
555,0.0139186173376702
556,0.0137385064734609
557,0.0137249257961838
558,0.0136505329580626
559,0.0135742206604089
560,0.0137282555402446
561,0.0135135777699548
562,0.0137160540204986
563,0.0135359478906693
564,0.0136020864060337
565,0.0134049050516858
566,0.013342292318584
567,0.0132161914127405
568,0.0132995381922197
569,0.0131366366211905
570,0.0131141081640609
571,0.0131872760250435
572,0.0131801320328883
573,0.0131807895765719
574,0.0132450338693082
575,0.0131068561899816
576,0.0131453135675232
577,0.0131837709450648
578,0.0132222283226063
579,0.0132606857001479
580,0.0132991430776895
581,0.0134413269901837
582,0.0133648321795036
583,0.0134114959413359
584,0.0131583961121136
585,0.0130798569254606
586,0.0126711684612031
587,0.0124641012331904
588,0.0123029267163189
589,0.0121417521994474
590,0.0119805776825759
591,0.0120234326830097
592,0.0121327074060047
593,0.0121866824653842
594,0.0123711830394402
595,0.0123554877845218
596,0.0124471427121757
597,0.0125226612665306
598,0.0125646175081305
599,0.0126096734574203
600,0.0127332244127147
601,0.0128140032605892
602,0.0128988834494593
603,0.0128173709628802
604,0.0129430571091037
605,0.0128659927293047
606,0.0128768145543179
607,0.0128134936437482
608,0.0126448480136023
609,0.0126305781691426
610,0.0125298474013308
611,0.012458261254768
612,0.0123509556947449
613,0.0122730899665831
614,0.0120885687167069
615,0.0122204839429663
616,0.0121011309993932
617,0.0122135259993545
618,0.0121944767034093
619,0.0122160955218841
620,0.0121524376952302
621,0.0122254123089688
622,0.01198618777514
623,0.0119549402401661
624,0.0118525353325955
625,0.011750130425025
626,0.0116477255174544
627,0.0116554521741824
628,0.011588686924413
629,0.0115340288398083
630,0.0116314075093787
631,0.0114684426983535
632,0.0115026086697092
633,0.0115625451548444
634,0.0115452267245455
635,0.0116125463232591
636,0.0115240509386882
637,0.0115983666040444
638,0.0114795979233791
639,0.0115419743550979
640,0.011444351421553
641,0.0114075274515656
642,0.0113088810657981
643,0.0111915033136038
644,0.0110741255614095
645,0.0109567478092152
646,0.0109292714086365
647,0.0109040847706534
648,0.0106909840100749
649,0.0108809703956509
650,0.0107337707118249
651,0.0108112775977868
652,0.0106997493228837
653,0.0104772133252938
654,0.010274557097523
655,0.0103725203723779
656,0.0102450580566256
657,0.0103449321969465
658,0.0104826198467211
659,0.0107731887430042
660,0.0108280682615247
661,0.0108687656397091
662,0.0108944039395689
663,0.010819757615224
664,0.0107423583601214
665,0.0107491995894088
666,0.0107651873711936
667,0.0107605360075136
668,0.0107484588316213
669,0.0105294959352976
670,0.0105441387123726
671,0.0104941704530383
672,0.0104535907940835
673,0.0104686692694553
674,0.0104869827247943
675,0.0104522393581135
676,0.0104021962020758
677,0.0104779976940582
678,0.0103220581623388
679,0.0102436600415975
680,0.0104941581851962
681,0.0102904465400976
682,0.0100334960587735
683,0.00983255294222213
684,0.00947828299984525
685,0.00917060604433641
686,0.00893497520078479
687,0.00873940499669117
688,0.00861779239125509
689,0.00863034530105
690,0.00874452568004794
691,0.00886759080499684
692,0.00888488406709415
693,0.0088936355845428
694,0.00906522682380748
695,0.00904981393324658
696,0.00920618646267739
697,0.00921125832374459
698,0.00909090592721945
699,0.00911718945367513
700,0.00925832670076297
701,0.00920323352378809
702,0.00932963071151748
703,0.00937242187905023
704,0.00954749681439789
705,0.0095499807680581
706,0.00971786973331186
707,0.00980216070008355
708,0.00981476752330234
709,0.00990277266830505
710,0.00981461869074757
711,0.00981353575585572
712,0.00979830198475647
713,0.00935404750271869
714,0.00906497583093496
715,0.00851792997289215
716,0.00803213591847152
717,0.00768800216373751
718,0.00755772336659739
719,0.00757189240820333
720,0.00764780053799743
721,0.00757868569227665
722,0.00777199828655586
723,0.00769114751379595
724,0.00761774945938071
725,0.00761417967494862
726,0.00754906559099789
727,0.00769138265346174
728,0.00775284380008812
729,0.00790091179185099
730,0.00814134636706545
731,0.00842594628047854
732,0.00866523371969197
733,0.00894510930989956
734,0.00910673968792987
735,0.00918976476061644
736,0.00929344585580392
737,0.00935023442579216
738,0.0094070229957804
739,0.00946381156576864
740,0.00965827311509305
741,0.00967541606900013
742,0.00971668276152609
743,0.00975794945405204
744,0.009799216146578
745,0.00983554830040838
746,0.00976790178462147
747,0.00977887065187958
748,0.00963826168493998
749,0.00966111855651566
750,0.00960057395755858
751,0.00952863003492502
752,0.00963854804768041
753,0.00947059079929945
754,0.00939144104755792
755,0.00874889913201779
756,0.00810635721647765
757,0.00746381530093751
758,0.00646690286053999
759,0.00558727826061631
760,0.00499653474640183
761,0.0048313313922048
762,0.00501848944096409
763,0.00537688971181064
764,0.00594830997394871
765,0.006458319768282
766,0.00714383644222811
767,0.00770173272479385
768,0.00803927540629576
769,0.00826061429457826
770,0.00848263725203457
771,0.0085517953804812
772,0.00862771401311121
773,0.00869018329093158
774,0.00861055331260816
775,0.00861140400974916
776,0.00861991060261435
777,0.00848944461931351
778,0.00854001406757813
779,0.00843119423386804
780,0.00850102043947075
