"wavelength","measurement"
380,0.0110518840336066
381,0.0106558811353072
382,0.0103901226437155
383,0.0102564215020269
384,0.0101774323770871
385,0.0107270521528073
386,0.0111084224935324
387,0.0117299096568074
388,0.0120921533535603
389,0.0124914971749793
390,0.0123380732370637
391,0.0123614751962587
392,0.0124140587431574
393,0.0124474239167726
394,0.0126938216525122
395,0.0132466680900506
396,0.0147918959180338
397,0.016360744752748
398,0.0179295935874622
399,0.0194984424221764
400,0.0205282439470763
401,0.0215740855459955
402,0.0224475791044346
403,0.0226243984359645
404,0.0226769402750877
405,0.0225448953241651
406,0.0228929501134412
407,0.0229032583480693
408,0.0229702913145993
409,0.0232239026010525
410,0.0239652141031005
411,0.0239335344905136
412,0.0245111613656793
413,0.0248393240234049
414,0.0247089260448835
415,0.0248810045862092
416,0.024576864472973
417,0.0242343188947023
418,0.0243676593753592
419,0.0238309701727674
420,0.0243561910684474
421,0.0240857227933518
422,0.0241427810703476
423,0.0242363273415068
424,0.0242506907215371
425,0.0236280213603817
426,0.0233817545330137
427,0.0227087478586152
428,0.0217731124938114
429,0.0217523072810686
430,0.021763858907705
431,0.0224364328536484
432,0.023094255386659
433,0.0239236569506987
434,0.0247693844537134
435,0.0252278224952005
436,0.0255199061364658
437,0.0258321031521099
438,0.0261443001677541
439,0.0264564971833982
440,0.0266296680998123
441,0.0269823682006411
442,0.0275261282705803
443,0.0277094553705146
444,0.0280697740102758
445,0.0284300926500369
446,0.0287904112897981
447,0.0292901224110489
448,0.0293563006615758
449,0.0303339782731699
450,0.0301240130494987
451,0.0298955962707909
452,0.0297844390138505
453,0.0296732817569101
454,0.0295621244999697
455,0.0294201026631589
456,0.0293367786822253
457,0.029683800092296
458,0.0297684432303689
459,0.0301378538676433
460,0.030146046667936
461,0.0297536454690098
462,0.0305650820838827
463,0.0296539555613391
464,0.0292341186649723
465,0.0290001419484114
466,0.0285627688363224
467,0.0284417613977734
468,0.0280900138595283
469,0.0278634401517195
470,0.0283941571705639
471,0.0282752338145087
472,0.0284293470074293
473,0.0286532184788652
474,0.0287053519824783
475,0.0290606939848669
476,0.0284171731167895
477,0.028374409912935
478,0.0283316467090804
479,0.0282888835052259
480,0.028183737255153
481,0.0274674644034718
482,0.0269001382664192
483,0.0268464740967113
484,0.0260345432273578
485,0.0254188890008925
486,0.025648831270279
487,0.0258189351775953
488,0.0260830824054366
489,0.0267000000826698
490,0.0268833736068704
491,0.0270740584398844
492,0.0277289027915587
493,0.0274091387458214
494,0.027852724583093
495,0.0274395196089349
496,0.0275664859113805
497,0.0270916827252175
498,0.0271122156634475
499,0.0265540008118629
500,0.0266288091226551
501,0.0263583637650332
502,0.0266923089459528
503,0.0268795126733199
504,0.0265675240593357
505,0.027405041557496
506,0.0272459438471532
507,0.0273629576903394
508,0.0275497911374257
509,0.0275785900986662
510,0.0272025836434781
511,0.0275593805561965
512,0.0273567935892607
513,0.0266600060036349
514,0.0264774759733843
515,0.0260433872600393
516,0.0259034571365859
517,0.0258021869573756
518,0.0257203071967086
519,0.0261965538985952
520,0.0267438267051497
521,0.0270840795451706
522,0.0274243323851915
523,0.0277645852252123
524,0.0275381537177356
525,0.0277063580785261
526,0.0276821178970477
527,0.0275559472023646
528,0.0277099670024576
529,0.0281583785224
530,0.0281994259381356
531,0.0282253619930629
532,0.0281464268210409
533,0.0284156768055197
534,0.0285227316191631
535,0.028182365387885
536,0.0284702133288681
537,0.0282752836111493
538,0.0280441459569569
539,0.0278593674479397
540,0.0279639981406969
541,0.027723206530419
542,0.0275972796385614
543,0.027758790548639
544,0.0278708435291579
545,0.0276725559900588
546,0.0279119219318714
547,0.0278748265301487
548,0.027837731128426
549,0.0278006357267033
550,0.0277318438241692
551,0.0278647091314008
552,0.0281123670405147
553,0.0278711425689374
554,0.0276924505100376
555,0.028011618803712
556,0.0276485771534049
557,0.0276008729959132
558,0.0273562258836098
559,0.0271440461017155
560,0.0274450529476076
561,0.0269317219046515
562,0.0274112729664245
563,0.0269899104259706
564,0.0271283079803977
565,0.0266650117731893
566,0.0264637789531046
567,0.0261393389104207
568,0.0262131583782255
569,0.0258157311836984
570,0.0258306362661343
571,0.0258615626352041
572,0.0257978905085958
573,0.0258075358554193
574,0.0259224028463465
575,0.0255940213133677
576,0.0256773651870906
577,0.0257607090608134
578,0.0258440529345362
579,0.0259273968082591
580,0.0260107406819819
581,0.0262544408185704
582,0.0260687159236056
583,0.0261975405973261
584,0.0256241755033606
585,0.0254527122509762
586,0.0245282930148879
587,0.0241056208682214
588,0.0236855255423367
589,0.023265430216452
590,0.0228453348905673
591,0.0229581731124993
592,0.0231417533688743
593,0.0231918293312882
594,0.0236385349272927
595,0.0235871499603188
596,0.0238085934624433
597,0.024025198408445
598,0.0241416650949124
599,0.0242667825700669
600,0.0245033478956513
601,0.0247189313366083
602,0.0248377740303108
603,0.024766387985346
604,0.0250352253216262
605,0.0248360516593972
606,0.0248898861520053
607,0.0247220059819229
608,0.0244385457037728
609,0.0244271558080671
610,0.0242081552974198
611,0.0240692178829335
612,0.0238189882020612
613,0.023666256838711
614,0.0234148410980967
615,0.0237228912377382
616,0.0233046355621019
617,0.0235665024676063
618,0.0235196861878402
619,0.0235779169119979
620,0.0234492051581605
621,0.0235357862310613
622,0.0231058627674041
623,0.0230597146314211
624,0.0228592642556909
625,0.0226588138799608
626,0.0224583635042306
627,0.0223220938377089
628,0.022217614061444
629,0.0221602708543356
630,0.0223805188989621
631,0.0220559134124985
632,0.0222359472273709
633,0.0223591395123016
634,0.0224436304631741
635,0.0224925573559499
636,0.0223378427413112
637,0.0225216102437841
638,0.0224193929241679
639,0.0224554687797644
640,0.0223366581304285
641,0.0222492189909061
642,0.022112740434725
643,0.0218424762658481
644,0.0215722120969712
645,0.0213019479280943
646,0.0213640739804607
647,0.0212035631916103
648,0.0207665273884786
649,0.0211196484295396
650,0.0209528554080808
651,0.0211481160456724
652,0.020895920125905
653,0.0206166167652799
654,0.0202734279464311
655,0.0205020392922218
656,0.0202787174422133
657,0.0204873528993304
658,0.0208164111627445
659,0.0213806147909142
660,0.0215896180043045
661,0.0217239029827349
662,0.0217600547632053
663,0.021681288026467
664,0.0215383035949401
665,0.0216518581292263
666,0.0215816529798489
667,0.0217173783550976
668,0.0216595914036196
669,0.0212772941135172
670,0.02139767843748
671,0.0213377945990544
672,0.0212379712792157
673,0.0212720620522901
674,0.0213287543020353
675,0.0212807296800413
676,0.0212290041905655
677,0.021461989139929
678,0.0211721874029964
679,0.0211693625046854
680,0.021589780249688
681,0.0211151302355601
682,0.020828507670037
683,0.0203143619187918
684,0.0196054718994957
685,0.0189191980610687
686,0.0185028023686198
687,0.0179961257979221
688,0.017801231628445
689,0.0178858471636081
690,0.0181693764488305
691,0.0184513220002671
692,0.0185406434221805
693,0.0187618744853978
694,0.0191536100548306
695,0.0192516048369478
696,0.0196535080722814
697,0.0198216398464179
698,0.0196261753740427
699,0.0197611948027707
700,0.0202583814282167
701,0.0202259590908402
702,0.0206807206294594
703,0.0208984020664628
704,0.0214515592082475
705,0.0216588618934682
706,0.0222106085103161
707,0.0225807483825614
708,0.0227584590339081
709,0.0231912227844006
710,0.0230623508282386
711,0.0232541723425845
712,0.0232646984496116
713,0.0223286049597609
714,0.02168769086566
715,0.0203939394447277
716,0.0191722040556993
717,0.018426692992081
718,0.0182728163294182
719,0.0184627575047175
720,0.018781419402432
721,0.0188118085936275
722,0.0194066177779823
723,0.0194024791142489
724,0.0194069919468855
725,0.01950820984829
726,0.0195481149971769
727,0.0200812922375392
728,0.0204652313454884
729,0.0212591425885887
730,0.022165652505752
731,0.0232550066563994
732,0.0243299857604158
733,0.0253904131742588
734,0.0262043971183077
735,0.0267646718398092
736,0.0272705825033393
737,0.0277706652335965
738,0.0282707479638538
739,0.028770830694111
740,0.0296643451151998
741,0.0300491358644192
742,0.0304209690121061
743,0.030792802159793
744,0.0311646353074799
745,0.0314428553876416
746,0.031547030711114
747,0.0317830543929358
748,0.0315504737584471
749,0.0319053587809923
750,0.031947267206437
751,0.0318046790639255
752,0.0322278349644509
753,0.0321015953579038
754,0.0317072437060868
755,0.0295709262229985
756,0.0274346087399102
757,0.0252982912568218
758,0.0218488529093476
759,0.0186296708770835
760,0.0165181618823692
761,0.0159729670841584
762,0.0164700997712188
763,0.0179202130699562
764,0.0200051334167249
765,0.0221231307068086
766,0.0246582932057262
767,0.0271835369865526
768,0.0286020642238496
769,0.0297886136115386
770,0.0306013100781822
771,0.0311889754178477
772,0.0315728884433218
773,0.0319863203038419
774,0.0319802040510411
775,0.0320311197222743
776,0.0321845190707445
777,0.031752306833492
778,0.0322317433842436
779,0.0318579945550999
780,0.0323314800216372
