"wavelength","measurement"
380,0.0278839064756166
381,0.0268105728089276
382,0.0256896201163577
383,0.0251569347763195
384,0.0251391189513278
385,0.0260360468284411
386,0.0268339051352045
387,0.0278118642298463
388,0.0288585985479491
389,0.0293742439672675
390,0.0286245624838682
391,0.0285317963224043
392,0.0282319074392416
393,0.0280820690862393
394,0.0279082873566468
395,0.0292484511846412
396,0.0321489455591115
397,0.035142375772364
398,0.0381358059856165
399,0.041129236198869
400,0.0428711328984102
401,0.0446181841058917
402,0.0457731240092404
403,0.045628210010096
404,0.0453831681242839
405,0.0448129298645115
406,0.0450857785667892
407,0.044830533312469
408,0.0447119296647919
409,0.0450049616535573
410,0.0463944842511937
411,0.0461183333543587
412,0.0471644820992226
413,0.0476262298237481
414,0.047259846608122
415,0.0473234265943213
416,0.0465791030034048
417,0.0461476907806323
418,0.046202172193665
419,0.0450457001124139
420,0.0456205450641531
421,0.0455442550240816
422,0.0455008106144738
423,0.0458582030524784
424,0.045546242404026
425,0.0443878847487197
426,0.0438925884178193
427,0.0424250713320951
428,0.0411712025964713
429,0.0406359713888592
430,0.0405368892593237
431,0.0417601264426136
432,0.0431332950272071
433,0.0442803937316712
434,0.0459402000672524
435,0.0467452537997043
436,0.0472767091316657
437,0.0477459488437638
438,0.0482151885558619
439,0.0486844282679601
440,0.0487759183720923
441,0.0495870616664237
442,0.0506225770081097
443,0.0506858800030059
444,0.0512920478139424
445,0.051898215624879
446,0.0525043834358156
447,0.053166302664106
448,0.0532933368113124
449,0.055200978788676
450,0.0547215279473839
451,0.0542088110535517
452,0.0539400064673335
453,0.0536712018811154
454,0.0534023972948973
455,0.0532442430185942
456,0.052995064008499
457,0.053574616021147
458,0.0537538709577066
459,0.0542501853362824
460,0.0543041686620639
461,0.05341664663241
462,0.0548756974972399
463,0.0532279780781424
464,0.0526074740673673
465,0.0519879230300877
466,0.0513436047334758
467,0.0510088509987646
468,0.0503705792258988
469,0.0499269461975921
470,0.0506833878837315
471,0.0505532914157268
472,0.0506782028135779
473,0.0512569826630244
474,0.0512931218967078
475,0.051806614074904
476,0.0506807573219064
477,0.0505466212795043
478,0.0504124852371022
479,0.0502783491947002
480,0.0500998563036144
481,0.0487791868724022
482,0.0477594454006212
483,0.0473402752808487
484,0.0462259837239567
485,0.0450590137142723
486,0.0453693873976427
487,0.0457612668968755
488,0.0459595698696514
489,0.0471170860951984
490,0.0474231371193048
491,0.0478204501125794
492,0.0487691118074893
493,0.0482657553443166
494,0.0489056508471934
495,0.0481196979750448
496,0.0483297641595894
497,0.0475421786238648
498,0.0475811262772402
499,0.0465082879176098
500,0.0466897440561978
501,0.0462451110214236
502,0.0467766149830543
503,0.0471144777747923
504,0.046412533925906
505,0.0480344856025922
506,0.0477429042284204
507,0.0478735494784916
508,0.0482673952805491
509,0.0483172614829201
510,0.0474832271253707
511,0.0483697120055923
512,0.0479691788457239
513,0.046750145840725
514,0.0465444868091556
515,0.0457473041716708
516,0.0455421032190154
517,0.0454544631974673
518,0.0454406681123616
519,0.0464660144406406
520,0.0473568580827115
521,0.0480099758762272
522,0.048663093669743
523,0.0493162114632588
524,0.0490375404381283
525,0.0493082415593441
526,0.049458481637446
527,0.0493762728535225
528,0.0497621972165894
529,0.0505568877776593
530,0.0505570882186604
531,0.0507994414089171
532,0.0506649893437374
533,0.0512803004330643
534,0.0513589841119271
535,0.05087753361312
536,0.0513146957500042
537,0.0511479739775942
538,0.0506773605221072
539,0.0503474408205698
540,0.0505257107794701
541,0.0501664356935685
542,0.049861049270737
543,0.050040399603346
544,0.0503822763409681
545,0.0500673580792734
546,0.0505175113182638
547,0.0504928152398268
548,0.0504681191613898
549,0.0504434230829528
550,0.0500498766857987
551,0.0505196723335695
552,0.0508289843069071
553,0.0503546516161388
554,0.0502290747042009
555,0.0507679372320119
556,0.0499381837188823
557,0.0498359763240922
558,0.0495312228125615
559,0.049026032526363
560,0.0495450505093333
561,0.048478936923006
562,0.049271016472826
563,0.0484214694354995
564,0.0485770762043387
565,0.0478256114603853
566,0.0474005111879616
567,0.0465098562182183
568,0.0468347737717582
569,0.0460544626827754
570,0.0458586311068688
571,0.0459211986148459
572,0.045814507758077
573,0.0456819067620026
574,0.0458612196077797
575,0.0452395799196598
576,0.0452859940640029
577,0.045332408208346
578,0.0453788223526892
579,0.0454252364970323
580,0.0454716506413754
581,0.0460867398650501
582,0.0456932226082938
583,0.0458777643207811
584,0.0449327019304603
585,0.0445960782887355
586,0.0430745944662266
587,0.0420845672655498
588,0.0414273827741322
589,0.0407701982827145
590,0.0401130137912969
591,0.0402169043210356
592,0.0406165972232772
593,0.040688576410122
594,0.0413050359905073
595,0.041327155163845
596,0.0417239859101673
597,0.0419995414567836
598,0.0422691627862423
599,0.0424671340437221
600,0.0428748499968167
601,0.0431540965076482
602,0.0434837905861787
603,0.0432081245924654
604,0.043718118081729
605,0.0433913601185087
606,0.0433646883292733
607,0.0432159359684375
608,0.0425770358540639
609,0.0425217717148758
610,0.0421153898213008
611,0.0418085492354121
612,0.0415131065100188
613,0.0412687602021451
614,0.0407398062402252
615,0.0412788684459166
616,0.0406915713555686
617,0.0409301963111645
618,0.0408276397225867
619,0.0409697708599491
620,0.0408345086596575
621,0.0410137242889474
622,0.0401401550763605
623,0.0401571335229322
624,0.0397979563873745
625,0.0394387792518169
626,0.0390796021162592
627,0.039069786774996
628,0.038787548180979
629,0.0387695385775578
630,0.0390448113332085
631,0.038499733631101
632,0.038734294441614
633,0.0389533569653784
634,0.0392343011236473
635,0.0392326422686039
636,0.0390164525815671
637,0.0393751277006599
638,0.0391019947551292
639,0.0391866288022257
640,0.0390064242758953
641,0.0387210102512328
642,0.0383748342752216
643,0.0379663511143471
644,0.0375578679534726
645,0.0371493847925981
646,0.0370178557904511
647,0.0367741745584628
648,0.0360703972828782
649,0.0367025703154684
650,0.036329890564836
651,0.0368195023521708
652,0.0362576602514043
653,0.035879341193375
654,0.0352011827443729
655,0.0355069527632475
656,0.0351495294180286
657,0.0356809062595574
658,0.0360913629046429
659,0.0369319112932147
660,0.0373954689581883
661,0.0375910592716789
662,0.0376232358614267
663,0.0374216204864242
664,0.0372383352900641
665,0.037264214091682
666,0.037333679658428
667,0.0374127179979109
668,0.0374219539290328
669,0.0367179646065662
670,0.0368278768784873
671,0.0368191352340385
672,0.0365788377981346
673,0.0366895817412363
674,0.0368579755448644
675,0.0367632620073137
676,0.0367538079264168
677,0.0371351921876485
678,0.0366428100118695
679,0.0366617996022688
680,0.037603565236681
681,0.0370941859779218
682,0.0361938452582831
683,0.0355386866511318
684,0.0344636061319285
685,0.0334119401237335
686,0.0326942282049658
687,0.0320650700289033
688,0.0319939373656205
689,0.0322962747980626
690,0.0326669246364919
691,0.0336702156666195
692,0.0341401931916974
693,0.0346175279323734
694,0.0355668579976208
695,0.0361020136289675
696,0.0372891894619421
697,0.0379761360288396
698,0.0380883228759881
699,0.0387895280420223
700,0.0401297521512215
701,0.0405315336708424
702,0.0420218017688696
703,0.0429067153441922
704,0.0444836864000108
705,0.0455038243155847
706,0.0467865327202757
707,0.0484733407654581
708,0.0492452512041328
709,0.0506636006067757
710,0.0511104180293747
711,0.0519281635875474
712,0.0526319657904041
713,0.0510354863830104
714,0.0501693631188071
715,0.0476680952450232
716,0.0457877077916123
717,0.0446451277182001
718,0.0449268498561272
719,0.0459688395416547
720,0.047235064384996
721,0.0478780879289359
722,0.0498574460426163
723,0.0502863091257993
724,0.0507223617050875
725,0.0518539356282376
726,0.0522942741734875
727,0.0543327151907972
728,0.0560022026097866
729,0.0586649494712136
730,0.0613076643707232
731,0.0647119617934002
732,0.0681259669632215
733,0.0715363665590907
734,0.0742751566326759
735,0.07609551411502
736,0.0786256686819577
737,0.080407378609714
738,0.0821890885374704
739,0.0839707984652267
740,0.086709990606235
741,0.0882260334974584
742,0.0897834619031011
743,0.0913408903087438
744,0.0928983187143865
745,0.0939639506934085
746,0.0946072258104877
747,0.0956868722040221
748,0.0953478228304626
749,0.0963588181220202
750,0.0970833803208787
751,0.0972564700991244
752,0.0988924389774682
753,0.0984167153773666
754,0.0974266031052875
755,0.0911112361429139
756,0.0847958691805402
757,0.0784805022181666
758,0.0684107838614262
759,0.0591786537525383
760,0.0527373331521552
761,0.0513908426730041
762,0.0532244182855905
763,0.0576129535515846
764,0.0641735805563777
765,0.0706433509865856
766,0.0782531041246215
767,0.0859404556263303
768,0.0902192909169217
769,0.0939354935196127
770,0.0963696126730153
771,0.0978420973414878
772,0.0992185328878002
773,0.10056971693852
774,0.100300905553808
775,0.100448794227319
776,0.101074866879571
777,0.100113060612882
778,0.101315672029415
779,0.100485430762875
780,0.101727173292139
