"wavelength","measurement"
380,0.0312985646475724
381,0.0300401391058913
382,0.0293069876307838
383,0.0290172660949714
384,0.0289805409209548
385,0.0302876779729419
386,0.031400134289259
387,0.03272607907564
388,0.0338716355329676
389,0.0346579222707819
390,0.0342313166767743
391,0.0339650870782604
392,0.0338974907944917
393,0.0340040813231148
394,0.0341746312665681
395,0.0356327889925266
396,0.0393312208548861
397,0.0431410831138292
398,0.0469509453727723
399,0.0507608076317154
400,0.052965246683044
401,0.0557883794145702
402,0.0573479728180165
403,0.0574027008770647
404,0.057114751187738
405,0.0567955545866187
406,0.0572494610318528
407,0.0570951977850111
408,0.0569047821023592
409,0.0576206494341997
410,0.0598494211671534
411,0.0595597537738894
412,0.0608059405194711
413,0.0616737544326708
414,0.0615549247555932
415,0.0615848180321261
416,0.0609853986512674
417,0.0601944406522292
418,0.0607382355531521
419,0.05953385325946
420,0.0606642039519423
421,0.0602235688292863
422,0.0606031708385876
423,0.0608069803659009
424,0.0610760753627476
425,0.0597916561897096
426,0.0591197801572184
427,0.0575123694693443
428,0.0554353152768242
429,0.0553992050696132
430,0.0554858683218636
431,0.0575524687023763
432,0.0591120458068935
433,0.061292862971392
434,0.0639113777822333
435,0.064894160792821
436,0.0657876544115398
437,0.066717776809154
438,0.0676478992067682
439,0.0685780216043824
440,0.0691788880220924
441,0.0702227298526325
442,0.0720010673443788
443,0.0723730065579626
444,0.0735568394486936
445,0.0747406723394246
446,0.0759245052301556
447,0.0773064909116212
448,0.077443883592001
449,0.0806928807702193
450,0.0801845737577543
451,0.0798420430085034
452,0.0796998632182665
453,0.0795576834280296
454,0.0794155036377928
455,0.0792027269854538
456,0.0793632707653203
457,0.0803887908862133
458,0.0808030851852023
459,0.0821104937013955
460,0.0822695335050164
461,0.0813888614516985
462,0.0837290658991496
463,0.0816340186801864
464,0.0807687370430124
465,0.0798375260765203
466,0.0790930307059915
467,0.0788365803452532
468,0.0782761133171004
469,0.0776431145210849
470,0.0791211481750004
471,0.0790462751568752
472,0.0796886854591898
473,0.080655503347218
474,0.0808587315648072
475,0.0822070999124121
476,0.080439979210362
477,0.0805079787503597
478,0.0805759782903574
479,0.0806439778303551
480,0.0804856945052689
481,0.0785123750293257
482,0.0771184700996554
483,0.0768390522047705
484,0.0749676468238498
485,0.0733004870482721
486,0.0739856296118632
487,0.0744861661795602
488,0.0752870454989013
489,0.0774782688267671
490,0.0780161377699227
491,0.0787829569029189
492,0.0806661492884319
493,0.0797840406919656
494,0.0811453660060682
495,0.0799962050783277
496,0.0803099663952745
497,0.0790922657479205
498,0.079440985191361
499,0.0778174702059667
500,0.078028898576101
501,0.0771763368040174
502,0.078525727404943
503,0.0787715713615479
504,0.0778765692941373
505,0.080487609248552
506,0.0800442607304275
507,0.080589981201798
508,0.0810831477475563
509,0.0811805757368398
510,0.0798888379791452
511,0.0812096282005195
512,0.0807251593354186
513,0.0783768995181786
514,0.0780886514644798
515,0.0766365551811759
516,0.0761254046123976
517,0.0759915137945027
518,0.0756493649039397
519,0.0772463592616238
520,0.0785163406221928
521,0.0794893292358954
522,0.080462317849598
523,0.0814353064633005
524,0.0809280840337558
525,0.0810652866615475
526,0.0813429843327271
527,0.0807930853472531
528,0.0813795190030687
529,0.0824814975869369
530,0.0824999937575127
531,0.0826955864756426
532,0.0824321976869856
533,0.0831712732066176
534,0.0834406071214926
535,0.082356600672748
536,0.0834053725647086
537,0.082792216241021
538,0.0819901914804043
539,0.0814936934452894
540,0.0817991436163747
541,0.0812282447500504
542,0.0806745849087309
543,0.0811059396113189
544,0.0816165875709124
545,0.0809753955118526
546,0.081708868838931
547,0.0817193452803562
548,0.0817298217217814
549,0.0817402981632067
550,0.0812585503459062
551,0.0819461814757592
552,0.0825507994323516
553,0.0817950391249595
554,0.0816841256184151
555,0.0824728943596582
556,0.0814398801389497
557,0.0813749895480592
558,0.0808136605796459
559,0.0801405041367601
560,0.0811971699237193
561,0.079895337617409
562,0.0811813007541077
563,0.0799813788541357
564,0.0803010361803512
565,0.0792321867818297
566,0.0786134857570743
567,0.0776008563050589
568,0.0780149245371943
569,0.0771359802593463
570,0.0769221170245986
571,0.0771459975621644
572,0.0771601335980488
573,0.0771091674740008
574,0.0776987662914875
575,0.0766545605364682
576,0.077015128209501
577,0.0773756958825339
578,0.0777362635555668
579,0.0780968312285997
580,0.0784573989016326
581,0.0794426907590854
582,0.0790570841011826
583,0.0795772968627179
584,0.0781103001548118
585,0.0773299354420173
586,0.0747641181921723
587,0.0729219586074921
588,0.0717364589364267
589,0.0705509592653613
590,0.069365459594296
591,0.0697585197046841
592,0.0703431815436779
593,0.0706687721531381
594,0.0719942274192356
595,0.0721661567845626
596,0.0729327934514997
597,0.073859436519046
598,0.0742040249428589
599,0.0747008429198815
600,0.0756889853734003
601,0.0763755638766554
602,0.0771475486760449
603,0.0767765074991805
604,0.0776766412624756
605,0.0773246194079297
606,0.0776365043398625
607,0.0771081711410537
608,0.0762289993020544
609,0.0762025790917068
610,0.0756552961214343
611,0.0752499591679485
612,0.0746680912970638
613,0.0743631640581287
614,0.0734492012630262
615,0.0745702961840518
616,0.0735571051669783
617,0.0742351648254161
618,0.0741083524349888
619,0.0744477073631744
620,0.074149531898828
621,0.0746852646535203
622,0.0732175780048702
623,0.0731022311224769
624,0.0724885856156458
625,0.0718749401088146
626,0.0712612946019834
627,0.070966857002545
628,0.0706638323068015
629,0.0705082631894646
630,0.0711102791191954
631,0.0702506629425016
632,0.0708745235182114
633,0.0713400675479742
634,0.0716557516898756
635,0.0719174241829533
636,0.0715163406089616
637,0.0721751448991025
638,0.0718103388367151
639,0.0721169296479505
640,0.0717599521272768
641,0.071631855741504
642,0.070982011714554
643,0.0702247513791199
644,0.0694674910436857
645,0.0687102307082516
646,0.0685687407775658
647,0.0681078010776171
648,0.0668358587288368
649,0.0680753123472076
650,0.0675644911282722
651,0.0681942369649429
652,0.0676441766616476
653,0.066676468795655
654,0.0655422927962852
655,0.0665072886624644
656,0.0657807967045001
657,0.0666413325949973
658,0.0676756782405798
659,0.06968094627818
660,0.0703969259649215
661,0.0709438306351451
662,0.0711931321720133
663,0.071105511989872
664,0.0705844657944715
665,0.0710596333251137
666,0.0710038013059629
667,0.0712809251935627
668,0.0715754699941061
669,0.0702380717030354
670,0.070707414620712
671,0.0704247038444578
672,0.070113038858755
673,0.0702405514031153
674,0.0705509603081966
675,0.0704173548070416
676,0.0702956315203925
677,0.0709174053397874
678,0.0700234859552944
679,0.0697620972907357
680,0.0715228855482766
681,0.0702412927455854
682,0.0687173570088649
683,0.0670684525629981
684,0.064655790556409
685,0.0623384645566375
686,0.0605491074634051
687,0.0589604156570502
688,0.0583015753268916
689,0.0582177529515634
690,0.0588821154786347
691,0.0597678878474535
692,0.0599181458139345
693,0.060465458074119
694,0.0612793538031075
695,0.061543427581631
696,0.0626363740204872
697,0.0633972710410089
698,0.0624968886828617
699,0.0625912972450573
700,0.0638570933327384
701,0.0635736915975404
702,0.0647832396716797
703,0.0652945961324315
704,0.0670256478755036
705,0.0675081375218365
706,0.0687969398659689
707,0.0698986183518243
708,0.0701893924136311
709,0.07135731406834
710,0.0709616183710113
711,0.0711028548241485
712,0.0708256664922089
713,0.0675241575331606
714,0.0651718288480048
715,0.0608058320606923
716,0.0569031753573702
717,0.0541594428412141
718,0.053339885426798
719,0.0535402319748306
720,0.0544763620482241
721,0.0546218370287118
722,0.0560906922824127
723,0.0558672969989954
724,0.0555859412135797
725,0.0557573942565715
726,0.0557168035303362
727,0.056983475958407
728,0.0581705483254988
729,0.0602799736336095
730,0.0627479460175955
731,0.0657514274278161
732,0.0689317024735679
733,0.0717749246447766
734,0.0742497662220186
735,0.0757764459941863
736,0.0773642631238539
737,0.0786918610710492
738,0.0800194590182444
739,0.0813470569654396
740,0.0836068121752943
741,0.0846592757124295
742,0.0857398250190198
743,0.0868203743256102
744,0.0879009236322005
745,0.0885445184004957
746,0.0887581781028206
747,0.0891993914995688
748,0.0885286294231334
749,0.0892222213945039
750,0.0896287071239387
751,0.0891271140308544
752,0.0907148933930312
753,0.0900755506459512
754,0.0886984495130554
755,0.0826511310197781
756,0.0766038125265009
757,0.0705564940332236
758,0.0607543722640361
759,0.051688346457584
760,0.045548556259388
761,0.0440087427657201
762,0.0454753693926987
763,0.0494325472765566
764,0.0553530568354232
765,0.0612515244139119
766,0.0684556389660329
767,0.0757276993649768
768,0.0797900195752853
769,0.0830289588265132
770,0.085407063123845
771,0.0866234098819811
772,0.087924396076538
773,0.0893039328481297
774,0.0887022500650842
775,0.0891523939947837
776,0.0894405250698306
777,0.088651001901364
778,0.089746142032631
779,0.0888399100025465
780,0.0899522810358933
