"wavelength","measurement"
380,0.00622843948163545
381,0.0062329355406244
382,0.00635776986449116
383,0.00607204787013665
384,0.00621430112010872
385,0.00661249569118393
386,0.00703298937401549
387,0.00760103370151902
388,0.00808011357426838
389,0.00880580065939719
390,0.00860370623284913
391,0.00881827162717766
392,0.00890385785037823
393,0.00915311464704733
394,0.00950176288590175
395,0.0100807689892472
396,0.011055977742199
397,0.0122534607790536
398,0.0134509438159082
399,0.0146484268527628
400,0.0157024142566663
401,0.0171374997460834
402,0.0180620935337111
403,0.018634502232117
404,0.0191427604708578
405,0.0191765765847138
406,0.0195827322409253
407,0.0199855089575708
408,0.0204043738740014
409,0.0207888774345614
410,0.0220786987366507
411,0.0217910798151665
412,0.0228367396739455
413,0.0235803843320449
414,0.023555462967094
415,0.0239547470317914
416,0.0240155592444884
417,0.0241268424127684
418,0.0242741752291547
419,0.024205208795534
420,0.0247417722081031
421,0.0246549569696739
422,0.024689146922545
423,0.025244899514185
424,0.025480269265094
425,0.02511220695802
426,0.0250964524205733
427,0.0247679818639851
428,0.0240808532327949
429,0.0239510509830659
430,0.0239485283253805
431,0.0245919832498003
432,0.0253990100819092
433,0.0260825273917956
434,0.0273285007424981
435,0.0284171346854914
436,0.0288936111112297
437,0.0294876255835824
438,0.0300816400559351
439,0.0306756545282878
440,0.0307361689884292
441,0.0315992220414841
442,0.0326133799290049
443,0.0328416520193354
444,0.0335973009072613
445,0.0343529497951873
446,0.0351085986831132
447,0.0355580628328189
448,0.0361921909521359
449,0.0378046553704317
450,0.0377299676616777
451,0.0379781481388671
452,0.0379970627478386
453,0.03801597735681
454,0.0380348919657814
455,0.0382869895918358
456,0.0383689128980194
457,0.0386512611618669
458,0.0391108830891272
459,0.0400044466966526
460,0.0404482126132637
461,0.039958450960386
462,0.0415651497811472
463,0.040693362863952
464,0.0402397471275648
465,0.0400096550041662
466,0.0396914386605536
467,0.0398650552362578
468,0.0391787530974088
469,0.0391867307771391
470,0.0398755730623208
471,0.0401039561510791
472,0.0402030202260883
473,0.0409109962617698
474,0.0413481605358473
475,0.0418589472614987
476,0.0414028504807933
477,0.0413875527277117
478,0.0413722549746302
479,0.0413569572215486
480,0.0415089251747919
481,0.040516120252872
482,0.0401284018510767
483,0.0401758205320793
484,0.0390635763883245
485,0.0382907656094515
486,0.0386400732628221
487,0.0388039129488987
488,0.0391806048123868
489,0.0401265850897839
490,0.0408905332930172
491,0.0412423134435442
492,0.0425440078196887
493,0.0421206109329025
494,0.0430760864348422
495,0.0426083253634226
496,0.0429006770537812
497,0.0422094924613781
498,0.0426581805350555
499,0.0419263165370082
500,0.0421713965366021
501,0.04175421611272
502,0.0424544566538064
503,0.0427323845147
504,0.0423462822094914
505,0.0438696621006048
506,0.0435857471965485
507,0.0440756529667361
508,0.0444494396052075
509,0.044294305302944
510,0.0438056682620693
511,0.0444595493479678
512,0.0441181542985513
513,0.0431588014035012
514,0.0428234257566872
515,0.0420362832172192
516,0.041764892555448
517,0.041403284106723
518,0.0412455719601075
519,0.0418953311713523
520,0.0423497158667422
521,0.0430575506121491
522,0.043765385357556
523,0.0444732201029629
524,0.0441909860830925
525,0.0442516399558273
526,0.0443989789106457
527,0.0439121401946409
528,0.0441403882422974
529,0.0445438805984795
530,0.0445324020785834
531,0.0448109792652289
532,0.0447168076137088
533,0.0451773402273779
534,0.0452952340736459
535,0.0447800680039526
536,0.0451512817950778
537,0.0451012581643792
538,0.0448069608926399
539,0.0446529056768729
540,0.0448081590753206
541,0.0446213658831141
542,0.0442368392662654
543,0.0444259536668336
544,0.0445764652420067
545,0.0444855489730787
546,0.0446930738588832
547,0.0446222209587394
548,0.0445513680585955
549,0.0444805151584517
550,0.0443171706382784
551,0.0444204955283252
552,0.0446978256621643
553,0.0443574999277206
554,0.044195481636844
555,0.0448282590191577
556,0.0441467264155552
557,0.0441370722877114
558,0.0439293752231268
559,0.0434322521800266
560,0.0440599201107915
561,0.0432304879141878
562,0.0441280563366666
563,0.0433889657185829
564,0.0437331046987079
565,0.043064471916988
566,0.043056286044534
567,0.0423136457561281
568,0.0427972338067766
569,0.0422543496796808
570,0.0421987204519573
571,0.0422018728846871
572,0.0422004052352532
573,0.0421416282356398
574,0.0424085812823053
575,0.041920060889538
576,0.0420071186945818
577,0.0420941764996256
578,0.0421812343046693
579,0.0422682921097131
580,0.0423553499147569
581,0.0431025828282703
582,0.0429407950929726
583,0.0433734759753245
584,0.0428816791394431
585,0.043039772670253
586,0.0420162215622655
587,0.0417186228131704
588,0.0413236728334175
589,0.0409287228536646
590,0.0405337728739118
591,0.0405928388660373
592,0.040641498106738
593,0.0405857614292461
594,0.0414553205883603
595,0.0411935593214132
596,0.0410760620119787
597,0.0411555565167478
598,0.0409421270822618
599,0.0409042659663189
600,0.0409863680268539
601,0.0411610494059733
602,0.0412813189443368
603,0.0409774419826646
604,0.0414003190093781
605,0.0410146946033012
606,0.0410754908373349
607,0.0410360584528257
608,0.0404719672725492
609,0.0403992861310482
610,0.0401951960847063
611,0.0398040187198629
612,0.0396140074304358
613,0.0392393458243557
614,0.0388087147173608
615,0.0393617478102715
616,0.0386287655047318
617,0.0390537295662145
618,0.0388195040145712
619,0.0389319645167116
620,0.038708484470814
621,0.0390909340853306
622,0.038235633350715
623,0.0382377598037338
624,0.0378781450940461
625,0.0375185303843583
626,0.0371589156746706
627,0.0370508595144415
628,0.0369214900569645
629,0.0365454661300708
630,0.036889771434353
631,0.0362925870933797
632,0.0364008350343921
633,0.0365944547906096
634,0.0367294829533795
635,0.0369334351217138
636,0.0365387660558055
637,0.0368388341676433
638,0.0365896751023663
639,0.0367875242350358
640,0.0367079390620334
641,0.0366272508832602
642,0.0363307484671273
643,0.0361246840128711
644,0.035918619558615
645,0.0357125551043589
646,0.0362092932421497
647,0.036223343357518
648,0.0355396627117694
649,0.0358278607792672
650,0.0354145972480066
651,0.035548544048188
652,0.0353573429975371
653,0.0346625715366093
654,0.0340888682794446
655,0.0342788972487984
656,0.0338978463142017
657,0.0336236688385683
658,0.0338637634655153
659,0.0344108878166065
660,0.0347421864011546
661,0.0347806053841151
662,0.0350639203299487
663,0.0349417112144242
664,0.0347523251550489
665,0.0346912291700297
666,0.0345666585692958
667,0.0350157484723167
668,0.034875241599299
669,0.0340273682540009
670,0.0342744765711875
671,0.0339980323407092
672,0.0339970355807212
673,0.0338933735911105
674,0.0339250193655304
675,0.0338930890126562
676,0.0338137037070974
677,0.0340478287925282
678,0.0334055171480254
679,0.033464957788051
680,0.0337028166385789
681,0.0333710828808899
682,0.032846615598285
683,0.0320390654445193
684,0.0311700583553401
685,0.0298877523657296
686,0.0291870218967998
687,0.0282890027567486
688,0.0275921156292417
689,0.0272901857499715
690,0.0278284179933839
691,0.028674414400067
692,0.0288182607414989
693,0.0294312373887987
694,0.029807565059324
695,0.03022016253032
696,0.0301677844275535
697,0.0303792099664552
698,0.0300493589963235
699,0.0299503359946864
700,0.0302871417659879
701,0.0298824619869224
702,0.0300228780903451
703,0.0297856875358004
704,0.0302803602794088
705,0.0299878858293822
706,0.0303065918028432
707,0.0304666631765888
708,0.0301634150785734
709,0.0303545891668923
710,0.0299158992125107
711,0.0301196168632966
712,0.0297710093395868
713,0.0290141803049251
714,0.0288485001365967
715,0.0277013103370956
716,0.0270759509751275
717,0.0261488919860399
718,0.0257294357097897
719,0.0256000220572261
720,0.0251836872271506
721,0.0248488150885739
722,0.0254817690426898
723,0.0254153873063729
724,0.0251407582577124
725,0.0252102461788329
726,0.0248717002364353
727,0.0250281828091332
728,0.0249741703686616
729,0.0251118186266308
730,0.0251492298509653
731,0.0255550840262352
732,0.0257446781951008
733,0.0261018871428048
734,0.0262472041484307
735,0.0264999646120082
736,0.02667825076767
737,0.0264911891137466
738,0.0263041274598231
739,0.0261170658058997
740,0.0262900377255934
741,0.0260099214295818
742,0.0260546892528958
743,0.0260994570762099
744,0.026144224899524
745,0.0260734585313439
746,0.0257876506282224
747,0.0259718762617124
748,0.0256269341656566
749,0.0255300566784902
750,0.0253383011033728
751,0.0250328776911018
752,0.0252666567293494
753,0.0248418971209792
754,0.0245277633399722
755,0.0231437117651754
756,0.0217596601903786
757,0.0203756086155818
758,0.01802120405906
759,0.0155238695089512
760,0.0136658502104505
761,0.0125518943953669
762,0.0121924189074819
763,0.0123935675846694
764,0.01344952163011
765,0.0148326126105462
766,0.0166531388152849
767,0.0184404271310329
768,0.0198372146102519
769,0.0206540723076968
770,0.0215247838433253
771,0.0217711738981496
772,0.0222540728027583
773,0.0223570771942792
774,0.0222373044134305
775,0.0223044691717813
776,0.0221639618091703
777,0.0221549696420617
778,0.0221592974072329
779,0.0216607843039711
780,0.0219315761295872
