"wavelength","measurement"
380,0.0126176289887285
381,0.0127256222637126
382,0.0125066761489206
383,0.0125918743996577
384,0.013265139823171
385,0.0140167835526193
386,0.0146040003703835
387,0.0153813765386336
388,0.0163288205104687
389,0.0171239615712082
390,0.0175294674970861
391,0.0179082605443776
392,0.018378927679105
393,0.019476418483114
394,0.0204485893625929
395,0.0226607333040408
396,0.0251634999355311
397,0.0287615769202815
398,0.0323596539050319
399,0.0359577308897823
400,0.0384122569368904
401,0.0413968017996703
402,0.0432096803485024
403,0.0444759376994617
404,0.0455707781070016
405,0.0467379422572655
406,0.0491049767140322
407,0.0503057649162338
408,0.0516790383040487
409,0.0535440862953195
410,0.0569149015822495
411,0.0578502147381798
412,0.0600818105539304
413,0.0611563480321265
414,0.0613232059398034
415,0.0623620789526114
416,0.0622800401831584
417,0.0623453321157476
418,0.0632790808665301
419,0.0624943586093159
420,0.0639902666810391
421,0.0641150369932385
422,0.0645378187308073
423,0.0649658102860311
424,0.0657427987197751
425,0.0636225281539193
426,0.0632415019406838
427,0.061790739448418
428,0.0602127435450004
429,0.0609510187428236
430,0.0610495611655732
431,0.0634666776495499
432,0.0661085996268216
433,0.0678014523979571
434,0.0704117498171295
435,0.0720937516138722
436,0.0730027755099924
437,0.0741713970239822
438,0.0753400185379721
439,0.0765086400519619
440,0.0767250666087855
441,0.0781008544428422
442,0.0796410071980386
443,0.0806166136507533
444,0.0819117574381596
445,0.0832069012255659
446,0.0845020450129722
447,0.085936802233633
448,0.0859779276339394
449,0.0886537716164598
450,0.0881628784654014
451,0.0873775621171329
452,0.0871519088438267
453,0.0869262555705206
454,0.0867006022972144
455,0.0873148016578466
456,0.0868425434873077
457,0.0878853663072717
458,0.0887417954005613
459,0.090413157580107
460,0.0902648222286085
461,0.0895317238621572
462,0.091573708232043
463,0.0892006898636215
464,0.0885501393638011
465,0.0876061721710308
466,0.0868860107705471
467,0.0868583805084791
468,0.0865599966238007
469,0.0863738424300292
470,0.0886312001120301
471,0.0888003352228234
472,0.0893582607418336
473,0.0909439928735794
474,0.0913932357282323
475,0.092547698217492
476,0.0913120070568659
477,0.0913716877695886
478,0.0914313684823113
479,0.091491049195034
480,0.0912466949359043
481,0.0891008844116589
482,0.0876341977926452
483,0.087308774213161
484,0.0856946662006801
485,0.0841669856201706
486,0.0858443349371047
487,0.0866422313248342
488,0.0876801162067175
489,0.0899117770696636
490,0.090477052092355
491,0.0911560390918864
492,0.0933510994167126
493,0.0918852204362255
494,0.0933772884825571
495,0.091986342005681
496,0.092163015298653
497,0.0905439592975141
498,0.0909155738571788
499,0.0887808655417845
500,0.0897407421121033
501,0.0891620145011874
502,0.0909826949477825
503,0.0914268882931166
504,0.0902575377625145
505,0.0932324796023668
506,0.0928598396475872
507,0.0928968490721576
508,0.0934100160450764
509,0.0930991672800169
510,0.0912677258959827
511,0.0921711905734117
512,0.0911616016186015
513,0.0879042725462358
514,0.0875214361679128
515,0.0860759337492534
516,0.0857153592370827
517,0.0853961738147649
518,0.0852892810322344
519,0.0871060071864344
520,0.088179771955831
521,0.0888514529571791
522,0.0895231339585271
523,0.0901948149598752
524,0.0895449601910611
525,0.0897327939098844
526,0.0898502517656937
527,0.0892663234574459
528,0.0893142697527766
529,0.0903417036598005
530,0.0900987920010776
531,0.0899768625738105
532,0.0896364680767124
533,0.0904653782693689
534,0.0910154617622203
535,0.0896426260095552
536,0.0904837781511467
537,0.0899553261450136
538,0.0890394777002925
539,0.0886981949779287
540,0.0893887706352388
541,0.0887428425291268
542,0.0880648759893227
543,0.0887303504524091
544,0.0888797704928352
545,0.0883145980797203
546,0.0889703667054902
547,0.0887756235430305
548,0.0885808803805709
549,0.0883861372181113
550,0.0881527485317706
551,0.0890024387018509
552,0.0894819989063198
553,0.0886264010135954
554,0.088191694780087
555,0.0890112247040574
556,0.087750124516306
557,0.0877192794280863
558,0.0869905942177052
559,0.0865601368395918
560,0.0876499857140086
561,0.0857960550063204
562,0.0872409382432371
563,0.08568865488541
564,0.086061483136267
565,0.0848802533707235
566,0.0845474438768598
567,0.0835028766055568
568,0.0842378236673697
569,0.0834961587275661
570,0.0834487477246054
571,0.0836215071741477
572,0.0838503082764797
573,0.0836397607586795
574,0.0845442861888928
575,0.0833567242711297
576,0.0838708030154203
577,0.0843848817597109
578,0.0848989605040015
579,0.0854130392482921
580,0.0859271179925827
581,0.0872346676317069
582,0.0870163980829839
583,0.0878035352434309
584,0.0865225443220754
585,0.0866780641707643
586,0.0847475743401704
587,0.0845110805970537
588,0.0842594429991942
589,0.0840078054013348
590,0.0837561678034753
591,0.0844501486829597
592,0.0850130375024339
593,0.0850423007711696
594,0.0863099617374346
595,0.0859073733445334
596,0.0865261679434391
597,0.0866782087456185
598,0.0866363926176016
599,0.086606615389517
600,0.0872258327137447
601,0.0877989298230455
602,0.0881290453050858
603,0.0876064310559594
604,0.0886600284667889
605,0.0880145045199524
606,0.0881177889049187
607,0.0877672837789524
608,0.0867454628638591
609,0.0870312072605757
610,0.0864545525681128
611,0.0859232485761289
612,0.0852802297597827
613,0.0848707720480602
614,0.0842713470898009
615,0.0859691880337065
616,0.0848260876930832
617,0.0857489515996943
618,0.0854306090236029
619,0.0858723727016653
620,0.0853369803516196
621,0.0860885360271361
622,0.084665278458511
623,0.0844724742709857
624,0.0839185893676638
625,0.083364704464342
626,0.0828108195610202
627,0.082829018080414
628,0.08261195618147
629,0.0825510328704742
630,0.0833279191018925
631,0.0826110575079181
632,0.0835141378305303
633,0.0841195752390351
634,0.084395433121831
635,0.084925895564241
636,0.0842957034627985
637,0.0853420523471723
638,0.0848372503461547
639,0.0853459394721867
640,0.0851658368125141
641,0.0852186510538141
642,0.0849384287015687
643,0.0847883814081719
644,0.0846383341147752
645,0.0844882868213785
646,0.0854309619544475
647,0.0858801664214174
648,0.0847501503369738
649,0.0862129172361489
650,0.0855567214337998
651,0.0858853440509448
652,0.0849066484011587
653,0.0838401048523303
654,0.0827686820997058
655,0.083802763180637
656,0.0834810777838103
657,0.0846883505098232
658,0.0851193577370204
659,0.0872642002368665
660,0.0878114673990156
661,0.0880529927676742
662,0.0885355292565312
663,0.0883294447983167
664,0.087762227968624
665,0.0882472717403444
666,0.0886006474608717
667,0.0887612082199012
668,0.0895794133972335
669,0.0878970026108944
670,0.0883254684393536
671,0.088561068180834
672,0.0883567979242944
673,0.0886305468731228
674,0.0890089968561461
675,0.0891294557562382
676,0.0891262611854173
677,0.089862771120253
678,0.088981630613365
679,0.0889244297651956
680,0.0911455013562111
681,0.0895014511776366
682,0.0865453919451826
683,0.0850208351434982
684,0.0815024696136281
685,0.0789488836737505
686,0.077245475423297
687,0.0765418977249713
688,0.0770168096387578
689,0.078326781031562
690,0.0804243112633783
691,0.08374137278519
692,0.0847010116003734
693,0.0867682150196476
694,0.0881363572677397
695,0.0883698022888979
696,0.0903255019445886
697,0.0904684012701916
698,0.0902318336563687
699,0.0907035336530941
700,0.0927178534415474
701,0.0920746147650573
702,0.0940233399022616
703,0.0941466141521063
704,0.0960598535294516
705,0.0960419758601762
706,0.097424284813187
707,0.0987474570369333
708,0.0985619283070178
709,0.0999813305743475
710,0.0991920244729647
711,0.0993743789258998
712,0.0999128428767813
713,0.0969312262745202
714,0.0962714264473451
715,0.0934323613874153
716,0.091277695078845
717,0.0903476839000454
718,0.0899192682799052
719,0.0908718965040254
720,0.0918685218005312
721,0.0912101111762374
722,0.0933325549556432
723,0.0938401633081579
724,0.0937771272771921
725,0.094460941125688
726,0.0944585050682033
727,0.0958698587492248
728,0.096994200026294
729,0.0986610238673502
730,0.0999172013036941
731,0.102151047952295
732,0.103729252550308
733,0.105453139854495
734,0.106699872886278
735,0.107224479723088
736,0.108065805993983
737,0.108301509463546
738,0.108537212933109
739,0.108772916402672
740,0.110192361844813
741,0.111115518261958
742,0.111492418721884
743,0.111869319181809
744,0.112246219641734
745,0.112613442509011
746,0.112538886060365
747,0.113337239665935
748,0.112170954498864
749,0.112896708787724
750,0.113039635902544
751,0.112718496641857
752,0.114198886003932
753,0.112718104827262
754,0.109083280938979
755,0.100183589335566
756,0.0912838977321521
757,0.0823842061287386
758,0.0693737003284715
759,0.0599458411133402
760,0.0559986806353028
761,0.0560023718985171
762,0.0586203060208517
763,0.0658761342486047
764,0.0737621831631913
765,0.0820098390795439
766,0.0901630048405094
767,0.0983464082326443
768,0.103385815159263
769,0.106449536774688
770,0.109259478174202
771,0.110741275193161
772,0.111902800541371
773,0.113354181486951
774,0.112905674004653
775,0.113227116533923
776,0.113702907339524
777,0.112231559247308
778,0.113992976692276
779,0.112737645162176
780,0.114332957191849
