"wavelength","measurement"
380,0.0175751483347631
381,0.0169983247691729
382,0.0169612343220707
383,0.0166613194647005
384,0.016807653828621
385,0.0177779379121053
386,0.0186767340382407
387,0.019308670426828
388,0.0201415503582428
389,0.0204533287912965
390,0.0204483995633413
391,0.0201988460116786
392,0.020562369134085
393,0.02065374467484
394,0.0211804877340283
395,0.0228960824664451
396,0.0252125938189978
397,0.0278536240144535
398,0.0304946542099093
399,0.033135684405365
400,0.034358403610238
401,0.0362538086287872
402,0.0373425125543791
403,0.0377926950560756
404,0.037927975312534
405,0.0380809503304065
406,0.0387370151757522
407,0.0390779536305174
408,0.0394021083214503
409,0.0401790606435873
410,0.0420821591504826
411,0.0420258258377547
412,0.0429723243732414
413,0.0436814202037718
414,0.0435152762365215
415,0.043812861831944
416,0.0432609576108735
417,0.0428275639051312
418,0.0436586310926326
419,0.0424827916132391
420,0.0436964148081116
421,0.0434409275532992
422,0.043855788703918
423,0.044084536334721
424,0.0439628073743127
425,0.0431818451672046
426,0.0425977849664422
427,0.0413415599191624
428,0.0402879941851997
429,0.0403554308741944
430,0.040581818281867
431,0.0423089928126838
432,0.0439727118475956
433,0.0452594040249029
434,0.046953911881292
435,0.0477629869415372
436,0.0482407919913823
437,0.0488269389119049
438,0.0494130858324276
439,0.0499992327529502
440,0.0503010342046103
441,0.0509663096865644
442,0.0520144621063891
443,0.052306218812369
444,0.0531176142647892
445,0.0539290097172094
446,0.0547404051696295
447,0.0554996304844306
448,0.05560162033417
449,0.0574407442880908
450,0.0568757760530423
451,0.0563574270696746
452,0.0561305276596002
453,0.0559036282495258
454,0.0556767288394514
455,0.0558092310015478
456,0.0556381507126486
457,0.056294976840335
458,0.0567354081881241
459,0.0575082995373298
460,0.0575182979522351
461,0.0566661613641938
462,0.0579398947392891
463,0.0561800666718453
464,0.0555610342508131
465,0.0551302151713971
466,0.0542308122657757
467,0.0540431883216616
468,0.0536862763555057
469,0.0532476191384385
470,0.0543413321273621
471,0.0542958472525929
472,0.0545465791502387
473,0.0551425387421272
474,0.0551744998119716
475,0.0558084687056259
476,0.0543983702838553
477,0.0542958911093304
478,0.0541934119348055
479,0.0540909327602805
480,0.0538290735960094
481,0.0523748417714176
482,0.0513806529971799
483,0.0512439036253132
484,0.0502157535010621
485,0.0491121767308511
486,0.0499072048740425
487,0.0504304326253321
488,0.0511147230148245
489,0.0523593910094001
490,0.0527640754992997
491,0.0531142775277982
492,0.0541841721573194
493,0.0536087452505338
494,0.0543227122291354
495,0.0534758802531226
496,0.0536646515734991
497,0.0527424444366962
498,0.0530329020285166
499,0.0518870388177355
500,0.0523485938723669
501,0.0520579173459628
502,0.0531773476267213
503,0.0535598201561416
504,0.0530470795540358
505,0.0547727289519046
506,0.0544885322427924
507,0.0546677132353139
508,0.0550361882157148
509,0.0548806658832504
510,0.054081153182761
511,0.0547598278747348
512,0.054290875741349
513,0.0526010109613592
514,0.0524473051376382
515,0.0516996744699368
516,0.0515858115982857
517,0.0517758045832744
518,0.0517863024191956
519,0.0529708048215346
520,0.0540161538392542
521,0.0546504737639939
522,0.0552847936887335
523,0.0559191136134732
524,0.0556149087762747
525,0.0558588833177657
526,0.0561080046671065
527,0.0559282073127726
528,0.0562938667956781
529,0.0570422823422634
530,0.057089813926301
531,0.0572634879282979
532,0.0571046020887769
533,0.057781788882791
534,0.0581396464277891
535,0.0574974727518829
536,0.0581455412003762
537,0.0578269257587794
538,0.0575640638032747
539,0.0573898185070964
540,0.0578096359643813
541,0.0574495731556857
542,0.057261712175705
543,0.057478874199612
544,0.0579134339925799
545,0.0575300465430379
546,0.0580690345564603
547,0.0580800348560846
548,0.0580910351557088
549,0.0581020354553331
550,0.0578423226642321
551,0.058527108316536
552,0.0589410010332928
553,0.0585095667587453
554,0.0583977322807608
555,0.0591718413000782
556,0.0583101603717206
557,0.0584737582417952
558,0.0580837057854609
559,0.0577682462246778
560,0.058620898312026
561,0.0575709165750515
562,0.0585717126824034
563,0.0577049048216785
564,0.058054727969672
565,0.0572879537301062
566,0.0570012247924723
567,0.0564423202093263
568,0.0568842952558345
569,0.0563384155536215
570,0.0563544006499647
571,0.0563638367308982
572,0.0564599129355799
573,0.0563816592928155
574,0.0566959221355088
575,0.0559437521681765
576,0.0562317845533442
577,0.0565198169385119
578,0.0568078493236796
579,0.0570958817088473
580,0.057383914094015
581,0.0583033144247131
582,0.0579793851960717
583,0.0584188574150078
584,0.0575902156634714
585,0.0575338432767653
586,0.0563240792447895
587,0.0559169727057481
588,0.0557112260861597
589,0.0555054794665714
590,0.055299732846983
591,0.0556274400210459
592,0.0562116382560157
593,0.0562842031492502
594,0.0570151152809347
595,0.0568979565481151
596,0.0573294638009251
597,0.0575775809746572
598,0.0571953892237074
599,0.0573915351938093
600,0.0577578486393107
601,0.0582520648664824
602,0.0585783252797377
603,0.0582548224985919
604,0.0588159342889539
605,0.0584888278907628
606,0.0585532327177489
607,0.0583461202872582
608,0.0576643787476345
609,0.0575637095070401
610,0.0572435741704417
611,0.0569564391043826
612,0.0565895559445746
613,0.056290986079442
614,0.0557805770243846
615,0.0566738056555514
616,0.0558935467858212
617,0.0564866058152338
618,0.0562268031218334
619,0.056516398985971
620,0.056216213982627
621,0.0565369900527253
622,0.0554051016218468
623,0.0553342161463011
624,0.0549427936982911
625,0.054551371250281
626,0.054159948802271
627,0.0539174153301262
628,0.0539320505193106
629,0.0539797902517722
630,0.0545831430419543
631,0.054027203896062
632,0.054567491987436
633,0.0549385327498055
634,0.0553480900110349
635,0.0557066245538082
636,0.0552026954819514
637,0.0560477696041544
638,0.055822042390331
639,0.0563323357850974
640,0.0562275928474926
641,0.056327632287544
642,0.056362836951551
643,0.0563400001293879
644,0.0563171633072248
645,0.0562943264850618
646,0.0570128227537674
647,0.0572895065116931
648,0.0566633718844252
649,0.0578371630052222
650,0.0574541684663116
651,0.0579055897652468
652,0.0575143291391123
653,0.0568217140288831
654,0.0562351610037467
655,0.0571656955982394
656,0.0571268908253034
657,0.0579601962974522
658,0.0587233085675947
659,0.0601324345270443
660,0.060875257044588
661,0.0612232432475271
662,0.0615557237088835
663,0.0616347185647629
664,0.0614954969469307
665,0.0618498480801283
666,0.0621118217573977
667,0.0626864215600024
668,0.0630101149805413
669,0.0620416693554921
670,0.062597052921603
671,0.0626725330263243
672,0.0627217743343197
673,0.0630047968130259
674,0.0635893909183886
675,0.0637137536978965
676,0.0638959780236565
677,0.0645817345626356
678,0.0640115493330778
679,0.0641752415503448
680,0.0658367373745434
681,0.0649083254768079
682,0.0630379698749363
683,0.0618727963233455
684,0.0596136779945824
685,0.0578195438353208
686,0.056567641610507
687,0.0562597390060169
688,0.0567710945824945
689,0.0583126315879822
690,0.0601971364816527
691,0.0626816023636743
692,0.0641344072401564
693,0.0657228022650705
694,0.0673133206439851
695,0.0677873398433999
696,0.0693503071178078
697,0.0702116766547246
698,0.0698571378550984
699,0.0707962995522307
700,0.0726334261136767
701,0.0726851461036823
702,0.0744124695764224
703,0.0748678666744189
704,0.0763029928298595
705,0.0765603617866621
706,0.0780286076982838
707,0.0790886231346767
708,0.0793544604141032
709,0.0806820403479685
710,0.0802466243612882
711,0.0804500235921142
712,0.0810838589452045
713,0.0787667595037629
714,0.0782278644259167
715,0.0758016365389425
716,0.0742504942387739
717,0.0733313207681081
718,0.0732606445512437
719,0.0744324172750414
720,0.0752848334011398
721,0.0746788074576172
722,0.0766402483830528
723,0.0767926970192335
724,0.0770547893523591
725,0.0777625984336584
726,0.0776558243849671
727,0.0789869600282611
728,0.0799512673875841
729,0.0816651263893698
730,0.0826545224612516
731,0.0844608950438861
732,0.0861200095995352
733,0.0878559269485836
734,0.0885636991960221
735,0.0888661588158482
736,0.0896600379041304
737,0.0900066397723206
738,0.0903532416405109
739,0.0906998435087011
740,0.0916393176610639
741,0.092016289841269
742,0.0924616500958761
743,0.0929070103504831
744,0.0933523706050901
745,0.0934800347191732
746,0.0931449661779005
747,0.0937898239137176
748,0.09285290524963
749,0.0933030450177856
750,0.0932483338586507
751,0.0930360347439932
752,0.0941679756505304
753,0.0931693103017839
754,0.0901806050665362
755,0.0827180201268785
756,0.0752554351872208
757,0.0677928502475631
758,0.0570795294939376
759,0.0486965035023706
760,0.0448595776705909
761,0.0449379552271924
762,0.0475165720293042
763,0.0533140042774602
764,0.0603971537827319
765,0.0668915044819096
766,0.0744021834433878
767,0.0810719625484174
768,0.0847980987912747
769,0.0875519800415066
770,0.0896706063041681
771,0.0909135532477027
772,0.0917269662912034
773,0.0930703715262537
774,0.0927009412910277
775,0.0929130473677794
776,0.0933550246511449
777,0.0925234781096616
778,0.0936717418322862
779,0.0925188408003197
780,0.0939475481720428
