"wavelength","measurement"
380,0.0210893871837618
381,0.0208700733018262
382,0.0206569033765471
383,0.0206650919913398
384,0.0207900487585207
385,0.0222678241932745
386,0.0237902071091951
387,0.0243611473549891
388,0.0258193400823577
389,0.0267008047899689
390,0.0266623746004885
391,0.0271167524784865
392,0.0276451225328494
393,0.0283318862298506
394,0.0297760845287395
395,0.0324317899110101
396,0.0364617473855766
397,0.0409697930598131
398,0.0454778387340496
399,0.0499858844082861
400,0.0525123215711408
401,0.0560346825204485
402,0.0589766407787023
403,0.0602783219097454
404,0.0614028011147914
405,0.0622638698943803
406,0.0641596156493648
407,0.0652639015653064
408,0.0672419559498379
409,0.0689499846378791
410,0.0727223126825129
411,0.0733576506652708
412,0.0755571774112025
413,0.0775359696402557
414,0.0772376022274691
415,0.0781111862566748
416,0.0774618069657618
417,0.0775324506967479
418,0.0788465261609882
419,0.0773045251295223
420,0.0789029578257111
421,0.0789699817056545
422,0.0795651164196923
423,0.0798772201913534
424,0.080336418506653
425,0.0782829072660076
426,0.0774537559697506
427,0.0752544396046772
428,0.0735570335202212
429,0.0734851893567975
430,0.0738652688347421
431,0.0770974206859259
432,0.0801346286269563
433,0.0823262349758275
434,0.085727425531013
435,0.0873850610891818
436,0.0879213455051983
437,0.0891328645764288
438,0.0903443836476593
439,0.0915559027188898
440,0.0922825329935385
441,0.0936453155164044
442,0.0954097744748543
443,0.0961330860658779
444,0.0977267046435565
445,0.099320323221235
446,0.100913941798914
447,0.10194188699793
448,0.102141965331664
449,0.104878224867961
450,0.104293869822515
451,0.103260264995746
452,0.102911965535981
453,0.102563666076216
454,0.102215366616451
455,0.102543507386719
456,0.102537257388017
457,0.103608206212922
458,0.104173931669648
459,0.105642957265539
460,0.105854960507467
461,0.104281281935706
462,0.106581064885223
463,0.103977211250633
464,0.10279421029674
465,0.102068425811623
466,0.100942955197814
467,0.100591859004895
468,0.0999421296419883
469,0.0994604172772911
470,0.101770526441761
471,0.101995478303253
472,0.102646734481907
473,0.104073200783271
474,0.104401607558203
475,0.105863684648183
476,0.103895402216643
477,0.103708678426045
478,0.103521954635447
479,0.103335230844849
480,0.103062918774865
481,0.100660863519182
482,0.0984710311570326
483,0.0985144205185373
484,0.0964085230120402
485,0.0946411118025868
486,0.0962001816820455
487,0.0970417367683466
488,0.0983718810147098
489,0.100510898704189
490,0.101327837090657
491,0.101973504512982
492,0.10415771577222
493,0.102799517327629
494,0.104271231004359
495,0.102494012843309
496,0.102509544549255
497,0.100812816420908
498,0.101332676170247
499,0.0988269548731492
500,0.0995855250156561
501,0.0988922371049151
502,0.10094940947812
503,0.101511278885838
504,0.100318996268519
505,0.103286285614591
506,0.102775188538932
507,0.102761527416629
508,0.103275369194272
509,0.102788507568289
510,0.10087355239413
511,0.10161185359174
512,0.100439458706492
513,0.0972795794458555
514,0.0966686536989364
515,0.0949503995061835
516,0.0943581977812613
517,0.0941316106229841
518,0.0941425714861835
519,0.0960218386117525
520,0.097141307525014
521,0.0978394942095129
522,0.0985376808940117
523,0.0992358675785106
524,0.0986380570061281
525,0.0987843874252656
526,0.0985679677500405
527,0.0980948277280594
528,0.0983688004690119
529,0.0990967799816919
530,0.0990665351077916
531,0.0988915196072602
532,0.0986266946149266
533,0.0991768454169722
534,0.0997707244014021
535,0.0983607254515998
536,0.0994540322600612
537,0.0983927293831526
538,0.0977302829495943
539,0.0973378259934894
540,0.09773738239507
541,0.096962522126692
542,0.0965610351547476
543,0.0968447245549964
544,0.0972079155842646
545,0.0966741550123355
546,0.0972352232531351
547,0.0970987268665813
548,0.0969622304800276
549,0.0968257340934738
550,0.0963777234203144
551,0.0972278105737263
552,0.097943900908114
553,0.096824101255866
554,0.09655462838492
555,0.0975238789760731
556,0.0960928236782317
557,0.0960031882764038
558,0.0954859944316746
559,0.0944838375621787
560,0.0958005689963793
561,0.0941138954481416
562,0.0955674825473728
563,0.0941582959037148
564,0.0944765689043831
565,0.0933091113076381
566,0.0927770757636858
567,0.0916932534020289
568,0.0927708275241791
569,0.0916782170132562
570,0.0918856233343138
571,0.0920475086240309
572,0.0919624503818181
573,0.091885985022961
574,0.0926107546984786
575,0.0914657454228162
576,0.0920428217884912
577,0.0926198981541663
578,0.0931969745198414
579,0.0937740508855165
580,0.0943511272511916
581,0.0957073427828907
582,0.0952510572170574
583,0.0960966205136586
584,0.0948240643147758
585,0.0946434439941053
586,0.0929383437071002
587,0.0925054797523439
588,0.092198090629619
589,0.0918907015068942
590,0.0915833123841694
591,0.0921774257286999
592,0.0929415143073993
593,0.0931141652727657
594,0.0945722748441504
595,0.0940886581172701
596,0.0948045956363791
597,0.0949799125825734
598,0.0947464598401374
599,0.0949708594877392
600,0.0955905383459736
601,0.0962935612625758
602,0.0965955585752641
603,0.0962253800128532
604,0.0968847713483425
605,0.0962412457767733
606,0.0966199490830277
607,0.0963580461767334
608,0.0952403872429486
609,0.0951388767000223
610,0.0945804233253756
611,0.094030084630667
612,0.0934278730572705
613,0.0932533215182905
614,0.0920622593023258
615,0.0937726273050638
616,0.0925721674611503
617,0.093632927139117
618,0.0930261128975564
619,0.0934568798807117
620,0.0930032135779939
621,0.0935951301941788
622,0.0916809990315881
623,0.0918501641583418
624,0.0912270724300069
625,0.090603980701672
626,0.0899808889733371
627,0.0896270277225015
628,0.0896674262651267
629,0.0894559391287812
630,0.0905764660883144
631,0.0893209306249979
632,0.0904296865855259
633,0.0909953159372924
634,0.0915299396650447
635,0.092140847096161
636,0.0912484760154635
637,0.0927169016203642
638,0.0921760245210395
639,0.0929735598810474
640,0.0928697624591722
641,0.0930271190533069
642,0.0929819960068019
643,0.0929788530409808
644,0.0929757100751596
645,0.0929725671093385
646,0.0942390182329291
647,0.0947198650112187
648,0.0935532387810708
649,0.0954640183907041
650,0.0946636972695006
651,0.0954587372195585
652,0.0946754352754268
653,0.0930992172113961
654,0.0926535532758634
655,0.0937517536912549
656,0.0937168681178724
657,0.0949607945387469
658,0.096047138916308
659,0.0983899775367811
660,0.0994549591192307
661,0.0999278650924973
662,0.100321671231609
663,0.100440631054584
664,0.100063542054111
665,0.100646657341236
666,0.100791860383198
667,0.101877213529404
668,0.102172933196794
669,0.100726191225005
670,0.101423837498203
671,0.101554930342706
672,0.101548834599206
673,0.101978487854076
674,0.102267835785315
675,0.102846703702716
676,0.10273128642652
677,0.103903567510187
678,0.10288361938346
679,0.102815028331734
680,0.105235039900283
681,0.103446209806352
682,0.099827266365012
683,0.0977421625578278
684,0.0940249557488946
685,0.0910116062683752
686,0.0886852052680391
687,0.0879830304996044
688,0.0886816921578459
689,0.089897423424052
690,0.0923348034093894
691,0.0957425328152713
692,0.0969571865945929
693,0.0986863080059485
694,0.100428578719879
695,0.100529055434921
696,0.10229309220983
697,0.102703811651696
698,0.101369294062486
699,0.102031678206281
700,0.1038689719438
701,0.103326492425993
702,0.10489312024986
703,0.104836527847826
704,0.106578010096393
705,0.106105582507057
706,0.107577363361237
707,0.108582997416729
708,0.108440156029677
709,0.10990433366304
710,0.108512134195444
711,0.108169405244012
712,0.108690112299539
713,0.105096798096477
714,0.104265162922784
715,0.10030471698968
716,0.0980842105253362
717,0.0966176968938441
718,0.0962105707096841
719,0.0974341109397033
720,0.0982156962435846
721,0.0969938165340214
722,0.0989079455652288
723,0.099117025692058
724,0.0989222732691745
725,0.0994397882650995
726,0.0993699223821047
727,0.100719000923608
728,0.101894580151406
729,0.10345569898896
730,0.104522003322878
731,0.106473449902863
732,0.108186263438576
733,0.110182206078848
734,0.110628667878642
735,0.110733105133749
736,0.111909978383689
737,0.112008112491512
738,0.112106246599335
739,0.112204380707159
740,0.113892039140945
741,0.113881837289115
742,0.114384407340403
743,0.11488697739169
744,0.115389547442977
745,0.115338003814479
746,0.115176111147362
747,0.115543322854455
748,0.114501717072439
749,0.115201292334992
750,0.115535746519036
751,0.11481999720315
752,0.116097571648311
753,0.114945717942979
754,0.110865489607851
755,0.101710198174941
756,0.0925549067420321
757,0.0833996153091229
758,0.0702730521867616
759,0.0607316110426371
760,0.0565433993641513
761,0.0567373763892169
762,0.0596089768694919
763,0.0669881978605862
764,0.0755386056471262
765,0.0836479445872279
766,0.0918318633191344
767,0.0997764562670712
768,0.104733997559007
769,0.107964374483299
770,0.110638223360266
771,0.112299003421967
772,0.113244417394228
773,0.114220048336149
774,0.114074052328834
775,0.114487798687319
776,0.115136775934446
777,0.113766973818304
778,0.115565013397658
779,0.113765744578815
780,0.115360155889522
