"wavelength","measurement"
380,0.00758765738077593
381,0.00745525787417221
382,0.00765064062399583
383,0.00724623747301491
384,0.00775055636754005
385,0.00817197029518052
386,0.00865673725857443
387,0.00924326361829128
388,0.0100110931293977
389,0.0104608486494688
390,0.0107269934159386
391,0.0106930763662216
392,0.0107391586264623
393,0.0110426826962502
394,0.0112230730267413
395,0.0119190010660176
396,0.0132917398048959
397,0.0147728983455531
398,0.0162540568862103
399,0.0177352154268675
400,0.0192873957335518
401,0.0206010907672445
402,0.0215761045876329
403,0.0218362741146234
404,0.0223816512495424
405,0.0222637148153967
406,0.0228756654277237
407,0.0230123778969775
408,0.0232429733546764
409,0.0236757710828511
410,0.0247016465529057
411,0.0248643856619507
412,0.0256682503697009
413,0.0265370987338907
414,0.0267151599854812
415,0.0270728606746694
416,0.0269632468480005
417,0.0267592523730522
418,0.0272200145684017
419,0.0267772898947943
420,0.0271507226328691
421,0.0273067445296955
422,0.0274276486930736
423,0.0279498135277532
424,0.027997342848262
425,0.0277743069448766
426,0.0277421836070667
427,0.0273316637044747
428,0.0263778563962902
429,0.026467482725061
430,0.026262820251788
431,0.0269997938237061
432,0.0275490228919263
433,0.0287644047378889
434,0.0304152874005978
435,0.0312225908996571
436,0.0316124300043959
437,0.0322438566873764
438,0.032875283370357
439,0.0335067100533375
440,0.0339999596503434
441,0.0349115844488362
442,0.0356123894460453
443,0.0362854824037821
444,0.0369828459180744
445,0.0376802094323667
446,0.038377572946659
447,0.0390155686686134
448,0.0395608121725523
449,0.0412447039599275
450,0.0413220740959873
451,0.0413585743382781
452,0.0414076358648693
453,0.0414566973914604
454,0.0415057589180516
455,0.0418211029905375
456,0.0417307095755897
457,0.0421893617080058
458,0.0425235176162934
459,0.043463278214774
460,0.043825125364967
461,0.0435978693738022
462,0.044926900028911
463,0.0439993852794222
464,0.0436674385782869
465,0.0435074250638504
466,0.0429688150668654
467,0.0430121354207503
468,0.0425000907778642
469,0.042291183790078
470,0.0431564454552995
471,0.0432766960062683
472,0.0434424146205212
473,0.0442905864128358
474,0.0445306749766508
475,0.0451692885591162
476,0.044384415974638
477,0.0444646340926059
478,0.0445448522105737
479,0.0446250703285416
480,0.0448238634882204
481,0.0437120685762547
482,0.0433043099678208
483,0.043168263234419
484,0.0421154554376683
485,0.0411722948172273
486,0.0413842351557114
487,0.0415465001165648
488,0.0420815775437364
489,0.0432670505572767
490,0.0438561706633568
491,0.0443145885574339
492,0.0457211883759705
493,0.0451696876281731
494,0.0460706053963973
495,0.0456678030237002
496,0.045952749311162
497,0.0453651311276601
498,0.0456493836249668
499,0.0447466129356353
500,0.0449428416853544
501,0.0445808198390321
502,0.0454245982654617
503,0.0456521859957463
504,0.0451874946783399
505,0.0467791381602895
506,0.0465635286208017
507,0.0470061081911525
508,0.047333201953444
509,0.0472670100119484
510,0.0465390903669601
511,0.0472445800729891
512,0.0468020461552213
513,0.0458387590284475
514,0.0454555756901485
515,0.0447724961617508
516,0.0441900644589398
517,0.0438202725184235
518,0.0435291030514949
519,0.0441597786515967
520,0.0447929654002664
521,0.0454927356671227
522,0.0461925059339791
523,0.0468922762008354
524,0.0467304992509812
525,0.046608337623361
526,0.046806620296847
527,0.0463017679530198
528,0.0465136423890358
529,0.0469685403334847
530,0.0469595291012898
531,0.0472340748860548
532,0.0470250216221674
533,0.0475016600253563
534,0.0474974637915046
535,0.0468087988568821
536,0.0474468462912068
537,0.0471979208370772
538,0.0468021337847223
539,0.0466318736040503
540,0.0469032177543324
541,0.0465453954823284
542,0.0461083219196961
543,0.0463078375914965
544,0.0464047182705903
545,0.0460826173646851
546,0.0466694466476154
547,0.0464909947574711
548,0.0463125428673269
549,0.0461340909771826
550,0.0459518174281478
551,0.0463753415221673
552,0.0465318482614671
553,0.0460856080634828
554,0.0459635995173138
555,0.046405374635726
556,0.0459481351753275
557,0.0457532200071229
558,0.0454006759993495
559,0.044904778776997
560,0.0453823098805239
561,0.0446478198734431
562,0.0455571845146564
563,0.0448675029044458
564,0.045107645999221
565,0.0446494399649723
566,0.0443372102147082
567,0.043863922070517
568,0.0443148568357388
569,0.0435963311194714
570,0.0436575529505945
571,0.0434861695864713
572,0.0435918974069022
573,0.0433964557765858
574,0.0437889149824686
575,0.0431531302908001
576,0.0432475311691748
577,0.0433419320475495
578,0.0434363329259242
579,0.0435307338042989
580,0.0436251346826736
581,0.0442132747672878
582,0.0441011329311238
583,0.0445119284506517
584,0.0439069134125685
585,0.0441586796681116
586,0.0433695176800804
587,0.0426061682607522
588,0.0421993008259412
589,0.0417924333911301
590,0.0413855659563191
591,0.0414003950641735
592,0.0418022929125728
593,0.0417336236110017
594,0.0422825543045346
595,0.0418490416565487
596,0.0421794066448528
597,0.0420845862996488
598,0.0418883876588058
599,0.0418037919076589
600,0.0420252463167114
601,0.0419328598829439
602,0.0419894299706538
603,0.0417478971786295
604,0.0421123257040792
605,0.0417726531428735
606,0.0418427295335989
607,0.0417585328854435
608,0.0410850873937301
609,0.0412064004709885
610,0.0408668518880097
611,0.0405251088249703
612,0.0403014631663463
613,0.0400277597335739
614,0.0392940674244088
615,0.0398088769053923
616,0.0392872369767019
617,0.0394543209909907
618,0.0394192177063254
619,0.0396177149793316
620,0.0393383442269311
621,0.0395855023277402
622,0.0388488977483616
623,0.0388100519926109
624,0.0384709347707152
625,0.0381318175488194
626,0.0377927003269237
627,0.037520293579263
628,0.0372903578534444
629,0.0370962076514721
630,0.0372895258526721
631,0.0367786588478148
632,0.0368643650768083
633,0.0371200614747306
634,0.0372506764983249
635,0.0373408371247264
636,0.0370558619462598
637,0.0373838532770529
638,0.0370587993265763
639,0.0371813670604368
640,0.0369535892677454
641,0.0367748763121605
642,0.0366952744403311
643,0.0365384929045616
644,0.0363817113687921
645,0.0362249298330226
646,0.0364112035727737
647,0.0363698666054401
648,0.0354586811487369
649,0.0361261782681001
650,0.0355277531149696
651,0.0358654129272657
652,0.0354726464722856
653,0.0349129819388464
654,0.0341970667517395
655,0.0341317394448441
656,0.0338382463899471
657,0.0336612769236076
658,0.0338124051726206
659,0.0344955051671726
660,0.0347931005894093
661,0.0348524510097381
662,0.0350674923652311
663,0.0347361957658584
664,0.034694304296596
665,0.0346314017612337
666,0.0344694832812884
667,0.0346222418527484
668,0.0345224158353911
669,0.0339540057423972
670,0.0338642558528359
671,0.0338757886490455
672,0.0336060295319694
673,0.0335739553804888
674,0.0335363773352567
675,0.0333585992133787
676,0.0333888461614379
677,0.0334716070514458
678,0.0330821266321392
679,0.0327855014531734
680,0.0331078098610868
681,0.0330733777897376
682,0.0321534957902917
683,0.0317307105387975
684,0.0305238130065393
685,0.0295707049957443
686,0.0285727324768813
687,0.0275514884375959
688,0.0268402124799507
689,0.0266937495606773
690,0.0270409383498237
691,0.0276911733128251
692,0.0281115933296368
693,0.0287924394556385
694,0.0291042506706959
695,0.0291305376302266
696,0.0293244834312492
697,0.0294067316864986
698,0.0289978688364075
699,0.0289176201416671
700,0.0291245259985411
701,0.0286927008403478
702,0.0288375994241066
703,0.0286418473339906
704,0.0290377842195717
705,0.0286864516107382
706,0.0287235161072988
707,0.0290781023893522
708,0.0286324362662621
709,0.0288910040337624
710,0.0283788463637699
711,0.0282834097034326
712,0.0284917009220651
713,0.0275280665025536
714,0.0273628690395847
715,0.026415117603202
716,0.0255090063576711
717,0.0245430813080897
718,0.0240581569671272
719,0.0238219386440924
720,0.0236533297096002
721,0.0230615318856219
722,0.0238006448567901
723,0.023674280069453
724,0.0235875491260428
725,0.0234391260668054
726,0.0230257751779757
727,0.0232707233524083
728,0.0231622847579626
729,0.0233732735290681
730,0.0235844871582588
731,0.0236707308445611
732,0.023851386722272
733,0.0242780554867534
734,0.0244339360883522
735,0.024516068707306
736,0.0245938687915599
737,0.024495953989131
738,0.0243980391867022
739,0.0243001243842733
740,0.0242894500481506
741,0.0242372619492506
742,0.0241624117469864
743,0.0240875615447222
744,0.0240127113424579
745,0.024046086741321
746,0.0238034414950233
747,0.0238240410753824
748,0.0234497323751735
749,0.023460711776347
750,0.0232502425400216
751,0.023068940378736
752,0.0232363999619783
753,0.0228514111119451
754,0.0226887716743762
755,0.0214067186885348
756,0.0201246657026933
757,0.0188426127168519
758,0.016465939883487
759,0.0142665876063862
760,0.0123493584851987
761,0.0113005866941169
762,0.0106499967302285
763,0.0111794578792029
764,0.0122655045690288
765,0.0134716853722415
766,0.0153872113620063
767,0.0170195528654244
768,0.0181839958168063
769,0.0188683160910519
770,0.0198135417144743
771,0.0201046761964833
772,0.0200441049812766
773,0.0204502474928842
774,0.0204386499202975
775,0.0204121323474908
776,0.0203998099623011
777,0.0201473321345978
778,0.0201614397561399
779,0.0200038484347083
780,0.0202832442573571
