"wavelength","measurement"
380,0.0298362655486519
381,0.029070154322488
382,0.0285584525291883
383,0.028099898407975
384,0.0281939981513272
385,0.0296527534177702
386,0.0307772695567482
387,0.0317291337101699
388,0.0327669845080676
389,0.0334422113674367
390,0.0331347115101256
391,0.032797010164446
392,0.0330469212164659
393,0.0329065436206396
394,0.0342411911453886
395,0.0362842079081398
396,0.0398888385435211
397,0.0438857256365978
398,0.0478826127296745
399,0.0518794998227512
400,0.0536144379545663
401,0.0558351164834929
402,0.0576648642074519
403,0.0579619225909527
404,0.0578825798590664
405,0.0574504274831942
406,0.0585214874848988
407,0.0586311123091222
408,0.0589293934480449
409,0.059780824331875
410,0.0623604396016797
411,0.061754784917939
412,0.0633965732474854
413,0.0641641729652908
414,0.0638177033957181
415,0.0640054269419765
416,0.0630499607589912
417,0.0623692162447168
418,0.0629624337509588
419,0.0618737885782799
420,0.0630285103595271
421,0.0626723693934223
422,0.0631406803220307
423,0.0631929390760884
424,0.0630059591409911
425,0.0613584312643163
426,0.0606173658015427
427,0.0587327916182879
428,0.0573396050284673
429,0.057314681645647
430,0.0573302212454632
431,0.0595840307600253
432,0.0619106931421847
433,0.0638055682899032
434,0.0661599038738446
435,0.0673425230042153
436,0.0679737887778608
437,0.0688998963362551
438,0.0698260038946494
439,0.0707521114530437
440,0.0709626679403663
441,0.0719960207238753
442,0.0737042168699702
443,0.0739703068187536
444,0.0751809724327077
445,0.0763916380466617
446,0.0776023036606157
447,0.0785076379888779
448,0.0787846804982764
449,0.0810954207221799
450,0.0805688965317013
451,0.0799188092909347
452,0.0796284384702584
453,0.0793380676495822
454,0.079047696828906
455,0.0791274154355898
456,0.0791647188361365
457,0.0798675519623576
458,0.0805772961331409
459,0.0815794942353121
460,0.0816629612754045
461,0.0805525387914998
462,0.0823469407308514
463,0.0797584247308056
464,0.0788653869394506
465,0.0781156142721678
466,0.0770820105965726
467,0.0770677731851369
468,0.0764339646368472
469,0.0759201459978909
470,0.0776561572416078
471,0.0774875998303208
472,0.0778810104236236
473,0.078786149155198
474,0.0787462079634373
475,0.0797927247191469
476,0.0780520524219417
477,0.0778618263151499
478,0.0776716002083581
479,0.0774813741015663
480,0.0773787730035688
481,0.0752666588952478
482,0.0738083580641728
483,0.073695932376931
484,0.0721663985869632
485,0.0708467887843306
486,0.0719458992593751
487,0.0726477197887795
488,0.0735185440894423
489,0.0755067135285025
490,0.0758882793873235
491,0.0764421478945183
492,0.0780211885388531
493,0.0770849396596898
494,0.0781176660842526
495,0.0768199999423108
496,0.0771753625598744
497,0.0758575382704603
498,0.0760193489175667
499,0.0743131540206447
500,0.07500700419534
501,0.0746277379915244
502,0.0761803141179122
503,0.0767980946413868
504,0.0757267350365013
505,0.0781119564170884
506,0.0775921116174627
507,0.0778800622046606
508,0.0783273114575588
509,0.0779892410859413
510,0.0767066840152148
511,0.0776016848460513
512,0.0765977509660797
513,0.0742903304133673
514,0.0737826688784515
515,0.0726813207598191
516,0.0724027530226271
517,0.0725668765304781
518,0.072474126079492
519,0.0741763531237247
520,0.0753041519066809
521,0.0759653339892949
522,0.076626516071909
523,0.077287698154523
524,0.0768717579914425
525,0.0769233726830001
526,0.0771961504873252
527,0.0769776799082432
528,0.077200342374023
529,0.0779768368534016
530,0.0779316149018855
531,0.0780236256121233
532,0.0778186278605731
533,0.0785943507912489
534,0.0788743304266531
535,0.0779651180410222
536,0.0788202069115828
537,0.0783160129048779
538,0.0776278198637105
539,0.0774306191693162
540,0.0778510153897587
541,0.077392992584169
542,0.0769070280493696
543,0.0773725913315366
544,0.0777422311954006
545,0.0771952165164005
546,0.0778036279482438
547,0.0776866937670997
548,0.0775697595859557
549,0.0774528254048116
550,0.0773197848693344
551,0.07784977278293
552,0.0786152672712638
553,0.0777285247354215
554,0.0774749800855246
555,0.0784061776822487
556,0.0772082827509534
557,0.0771571936711642
558,0.0768798493281667
559,0.0762144507346025
560,0.0772203972537182
561,0.0756990161365836
562,0.077081730796218
563,0.0757605650999234
564,0.0761904921192658
565,0.0752124849554419
566,0.0746727092033405
567,0.0738582514920985
568,0.0745320027842581
569,0.0737413596793193
570,0.0736721524152355
571,0.0738314950386175
572,0.0738810178576842
573,0.0736849153200784
574,0.0742670659723512
575,0.0732319470625527
576,0.0736103347233382
577,0.0739887223841238
578,0.0743671100449093
579,0.0747454977056949
580,0.0751238853664804
581,0.0759957082837275
582,0.0756178763186516
583,0.0762716257510011
584,0.0749998454815963
585,0.0749195805541808
586,0.0733253119973275
587,0.0728629299816625
588,0.0725027531007938
589,0.0721425762199252
590,0.0717823993390565
591,0.0721089680434959
592,0.0727761146044238
593,0.0726618729424185
594,0.0736983859327297
595,0.0734041532342108
596,0.0738107888794249
597,0.0739064315616538
598,0.0736396156558856
599,0.0737044055729929
600,0.074067352186851
601,0.0746773160060848
602,0.0749390154620529
603,0.0743966973045605
604,0.075049106001478
605,0.0747733129418549
606,0.0747903937804691
607,0.074393722936499
608,0.073420498766464
609,0.0733930594407561
610,0.073001551466905
611,0.0725530726654353
612,0.071929439156508
613,0.0716143415317842
614,0.0712445550669242
615,0.0722982216972945
616,0.0713541418690049
617,0.0721045879953815
618,0.0718980867252042
619,0.0722285749814303
620,0.0718303469348216
621,0.0722409789159674
622,0.0706681609337495
623,0.0708320976283675
624,0.0702886446736647
625,0.069745191718962
626,0.0692017387642592
627,0.0691367267291769
628,0.0689861673879861
629,0.0690263529570875
630,0.069783902892904
631,0.0689506379057469
632,0.0695863526737831
633,0.0701109207224255
634,0.0702433687683987
635,0.0707055697185166
636,0.0702140137784268
637,0.0709626191642736
638,0.0705842245735591
639,0.0710920062743043
640,0.0708182996501293
641,0.0707307539547732
642,0.0705919095808518
643,0.0703309428194027
644,0.0700699760579536
645,0.0698090092965045
646,0.0705094796246814
647,0.0707453885600294
648,0.0697498784662047
649,0.070950947923665
650,0.0701406110338968
651,0.0704181258321674
652,0.0696354094441167
653,0.0685480425858498
654,0.0675966504140758
655,0.0684147662051412
656,0.0680529888458698
657,0.0689021132656628
658,0.0694285779505776
659,0.0709331222379438
660,0.0713216809546193
661,0.0714193820484399
662,0.071530089668439
663,0.0713596514130251
664,0.0709473332489693
665,0.0712528645508963
666,0.0712092488607101
667,0.0714853510302235
668,0.0716949174789676
669,0.0703321883348092
670,0.0708484667164095
671,0.0707121957968935
672,0.0706809041769622
673,0.0708931562976229
674,0.0711259780650781
675,0.071151685923083
676,0.0709945372899151
677,0.0716385238391045
678,0.0708519563498285
679,0.0710982959121547
680,0.0725507076395618
681,0.0711865062069935
682,0.0689474296461533
683,0.0673262174538795
684,0.0646832446546602
685,0.0625638794073612
686,0.0610825825844131
687,0.0604942717296112
688,0.0610411381994498
689,0.062170793443697
690,0.0640468379786545
691,0.0664884629379313
692,0.0678766013907986
693,0.0691414638678925
694,0.0706954667374343
695,0.0709755775629565
696,0.0722768998879855
697,0.0730338839885093
698,0.0725236568524443
699,0.0732786893715931
700,0.0750012375097423
701,0.0747796450677869
702,0.0763001284724169
703,0.076645628441651
704,0.0782557314755118
705,0.0782749897146316
706,0.0794707116532739
707,0.0805059405742205
708,0.0807514949772445
709,0.0819281333991064
710,0.0812258600620005
711,0.0813869426935804
712,0.0815920049704776
713,0.0792175371344113
714,0.078528060897752
715,0.0760253462771366
716,0.074397848606077
717,0.0734805199508835
718,0.0732689470372031
719,0.0743863149904053
720,0.0751629064157985
721,0.0741366745320113
722,0.0761838115026883
723,0.0762591934821389
724,0.0764708160958911
725,0.0771451597079681
726,0.0769374108710597
727,0.0781592929015735
728,0.0790853518470644
729,0.0806168396166726
730,0.0814729699763856
731,0.0831645817953646
732,0.0846268617098859
733,0.086222778472661
734,0.0870036367443622
735,0.0870389268659433
736,0.0878514652480294
737,0.0880554293084054
738,0.0882593933687814
739,0.0884633574291574
740,0.0895334221785096
741,0.0899096382934037
742,0.0902055969899422
743,0.0905015556864807
744,0.0907975143830193
745,0.0908908497097464
746,0.0907236636635651
747,0.0908909693171376
748,0.08991694799553
749,0.0903186593216031
750,0.0903479791442302
751,0.0901565184601062
752,0.0913461233856194
753,0.090277767553499
754,0.0869552901950591
755,0.079653257041526
756,0.0723512238879928
757,0.0650491907344596
758,0.0547396925681264
759,0.0468328607407428
760,0.0435401294516879
761,0.0437782110099077
762,0.0463419506379409
763,0.0519210492739289
764,0.0587086952526009
765,0.0648522147973792
766,0.0715755419106423
767,0.0778360225644914
768,0.081191935800964
769,0.0838431433725519
770,0.0862144323287024
771,0.0871048252274235
772,0.0880536134338143
773,0.0893007789566291
774,0.0889040489102641
775,0.0889553646098088
776,0.0891986825564839
777,0.0884497779950259
778,0.0896764100418888
779,0.0883788724656077
780,0.0899749513158389
