"wavelength","measurement"
380,0.00122190588669798
381,0.00118645068265811
382,0.00123116612855591
383,0.00115690966126449
384,0.00122397851078176
385,0.00130956260643745
386,0.00134119341008104
387,0.00144132993948712
388,0.00151491810349045
389,0.00157064886316956
390,0.00159094067957559
391,0.00157261168648153
392,0.00162857609690308
393,0.00168574837516658
394,0.00178028098286896
395,0.00192478306813553
396,0.00215244544731479
397,0.0024517625499415
398,0.00275107965256822
399,0.00305039675519493
400,0.00322598103230204
401,0.00346167469498051
402,0.00366726837836379
403,0.00374160139887523
404,0.00381449209868448
405,0.00387357422116606
406,0.00402896113988075
407,0.0041343104737408
408,0.0041970615495651
409,0.00433476831376858
410,0.00459079077202555
411,0.00462028885580084
412,0.0047930792258644
413,0.00493376107054756
414,0.00492465280109081
415,0.00501544904179786
416,0.00497132183527161
417,0.00494741620623988
418,0.00502835376357041
419,0.00493344443817101
420,0.0050630269034152
421,0.0050390038898719
422,0.00508106799666442
423,0.00510570855407569
424,0.0051283194874537
425,0.00497208617346268
426,0.00494482215157759
427,0.00479836906999675
428,0.00467338799292162
429,0.00465480008878258
430,0.00466456192186167
431,0.00486631119879915
432,0.00504279067321369
433,0.00515579675816469
434,0.00536623797094403
435,0.00543832287905951
436,0.00551562915804544
437,0.00558885720563719
438,0.00566208525322895
439,0.0057353133008207
440,0.0057380127660144
441,0.0058320297579686
442,0.0059630457530674
443,0.0059920308111143
444,0.00606312805913676
445,0.00613422530715921
446,0.00620532255518166
447,0.00631858147760681
448,0.0063345540729624
449,0.00652052663443918
450,0.00646564963059038
451,0.00640393268064614
452,0.00638474524073119
453,0.00636555780081624
454,0.00634637036090129
455,0.00634196440023525
456,0.00634706863766868
457,0.00638421920352469
458,0.00639352117300183
459,0.006487339947603
460,0.00649217741412859
461,0.00639821410405713
462,0.00657789362297976
463,0.00639968563930491
464,0.00630394439622016
465,0.00626525066034189
466,0.00617683080723966
467,0.00619392031396852
468,0.00612894131398731
469,0.00610238649344444
470,0.0062389323413485
471,0.00624145703786754
472,0.00626117883641387
473,0.00635251395940164
474,0.00634884201773273
475,0.00646317855347219
476,0.00629578398267829
477,0.00632240073766605
478,0.00634901749265381
479,0.00637563424764158
480,0.00635615837753996
481,0.00619924786145527
482,0.00611955102269878
483,0.00607175403741727
484,0.0059499653257579
485,0.00582542727676947
486,0.00588010747614873
487,0.00594520511895042
488,0.00599137273201487
489,0.00612233466876303
490,0.00615884063970959
491,0.00621280430737762
492,0.00632641252939702
493,0.00625180715554955
494,0.00633870056431309
495,0.00622630908129844
496,0.00623854592386641
497,0.0061194515359579
498,0.00612421424452958
499,0.00596710137271033
500,0.00598881327377261
501,0.00587999278436898
502,0.00597265122423121
503,0.00599184180061875
504,0.00590512375384376
505,0.00607667404919321
506,0.00604881166699635
507,0.00607057862693947
508,0.00610039318992514
509,0.00611045542834092
510,0.00600736290346081
511,0.00609842606782033
512,0.00605513542107719
513,0.00584473960489094
514,0.00581601638353992
515,0.00572812948263196
516,0.00568211605173645
517,0.00566979166417109
518,0.00565883973344897
519,0.00573892802101094
520,0.00585573057587778
521,0.0059014228810145
522,0.00594711518615121
523,0.00599280749128792
524,0.00593974249450958
525,0.00594919824922555
526,0.00594305339198868
527,0.00588250920432206
528,0.0059245916916194
529,0.0059914602836015
530,0.00598858553124892
531,0.00598261016573832
532,0.00594739636572535
533,0.00599691228136007
534,0.00600461774665912
535,0.00594926756815698
536,0.00598399708324344
537,0.00595114422696888
538,0.00588698897416916
539,0.00583161713913609
540,0.00585883288034486
541,0.00578949926395195
542,0.00574970640976473
543,0.00576244810184145
544,0.00579865792195091
545,0.00574618422078931
546,0.00579516060951546
547,0.005789484455525
548,0.00578380830153454
549,0.00577813214754408
550,0.00573278638771346
551,0.00576800528350663
552,0.00580620239328496
553,0.00573365625942117
554,0.00569744044533317
555,0.00572711684712775
556,0.00565740418796259
557,0.00562387966745783
558,0.00555291712111514
559,0.0055026032583239
560,0.00554482438112755
561,0.00541941550577291
562,0.00550100684589947
563,0.00538488864757108
564,0.00537396336599181
565,0.0052750799907584
566,0.00521552197463016
567,0.00511925706995615
568,0.00512025465366072
569,0.00502596792360076
570,0.00499362021130015
571,0.00500105962905375
572,0.00498458161062733
573,0.00495636697352276
574,0.00499475820466914
575,0.00492840794168863
576,0.00496180909753616
577,0.00499521025338369
578,0.00502861140923121
579,0.00506201256507874
580,0.00509541372092627
581,0.00517335576509632
582,0.00515117129406599
583,0.00519130554434177
584,0.00507646341302297
585,0.00502703733632684
586,0.00483645717127824
587,0.00470756504841525
588,0.00463296056735395
589,0.00455835608629266
590,0.00448375160523137
591,0.00449531910777896
592,0.0045534069324244
593,0.00457168337948902
594,0.00468821255434477
595,0.00468273579608371
596,0.00475476700817174
597,0.00479183215219525
598,0.00484487273830939
599,0.00488399479409756
600,0.00494452120018988
601,0.00500012582194291
602,0.00503526790024847
603,0.00502517815285704
604,0.00507457267733527
605,0.00506791589490617
606,0.00507993929346745
607,0.00506754101241713
608,0.00500413022562515
609,0.00501215976821299
610,0.00498004337711854
611,0.00493323687593786
612,0.00490938715276187
613,0.00490005569754197
614,0.00485013504753888
615,0.00490706368173411
616,0.00487152151240337
617,0.00490947712281925
618,0.00490559071032517
619,0.00491455221914912
620,0.00489282576021687
621,0.00492489070594694
622,0.00482024479681266
623,0.00478734434389311
624,0.00473570932135897
625,0.00468407429882483
626,0.00463243927629069
627,0.0046052154343968
628,0.0045846031760049
629,0.00459660649972959
630,0.0046548827944961
631,0.00460765925088243
632,0.00467742021859069
633,0.00472432872968896
634,0.00474276068911902
635,0.00477276243809163
636,0.00476899547912516
637,0.00484363062700155
638,0.00480007714554714
639,0.00483108174672285
640,0.004808687232226
641,0.00479555446549329
642,0.00477666875716703
643,0.00471494012227347
644,0.00465321148737991
645,0.00459148285248635
646,0.00457380786679932
647,0.00452715846601289
648,0.0044593013425542
649,0.00455400552593593
650,0.00453406253538763
651,0.00456026019842491
652,0.00453005655748451
653,0.00446965166583986
654,0.00439720015738604
655,0.00445579871358028
656,0.00446096855184759
657,0.00455459571697108
658,0.00461633433239707
659,0.00476432684239906
660,0.00480122966837319
661,0.00483298897778691
662,0.00487560236396244
663,0.00485527878996595
664,0.00483128270336463
665,0.00487122732541251
666,0.00487519233520191
667,0.00491789974948367
668,0.00491218852935599
669,0.00484094826947711
670,0.00485314376144924
671,0.00483702551327262
672,0.00483694465256269
673,0.00484522912189081
674,0.0048608797239501
675,0.00487042885603578
676,0.00485098003213171
677,0.00490327608360499
678,0.00483782089547985
679,0.00482695840361112
680,0.00494404942567126
681,0.00486636792577512
682,0.00470187804492821
683,0.00457061085285199
684,0.00435784139491805
685,0.00418524518661472
686,0.00403266465929984
687,0.00392382156862373
688,0.00389777393626114
689,0.00389273371813067
690,0.00399996726071399
691,0.00409979673791592
692,0.00412849630263561
693,0.0041939995888008
694,0.00431081364580322
695,0.00434957387410177
696,0.00444982389574842
697,0.00450553037640665
698,0.00446647678808595
699,0.00451693391440554
700,0.0046514575814276
701,0.00467903846356626
702,0.0048025721802305
703,0.00489224882407531
704,0.00507072894925856
705,0.0051309277525738
706,0.00525777934848639
707,0.00538333682227601
708,0.00546782106283468
709,0.00558560036950411
710,0.00558536353577383
711,0.00563929191495098
712,0.00561507908089227
713,0.00534901037828482
714,0.00515149706341624
715,0.00482286979889612
716,0.00450266278142516
717,0.00434002069934855
718,0.00430864008395365
719,0.00440031622698709
720,0.00452552059530165
721,0.00453807083539357
722,0.00468882272372395
723,0.00467093933580987
724,0.00470679135391041
725,0.00477786344991005
726,0.00480189519338554
727,0.00497755922426629
728,0.0051638721089028
729,0.0054453278092576
730,0.00572788058396884
731,0.00610293861376502
732,0.00644491480683111
733,0.00678989487531133
734,0.0070934024742426
735,0.00725101539102363
736,0.00750902093673553
737,0.00772063009461083
738,0.00793223925248614
739,0.00814384841036144
740,0.00844058644856811
741,0.00862443460063068
742,0.00877748807721001
743,0.00893054155378934
744,0.00908359503036868
745,0.00920624208104971
746,0.00926724252119289
747,0.00936574492346522
748,0.00933224814760646
749,0.00941767039340463
750,0.00947267427849975
751,0.00947163223896863
752,0.009634666721695
753,0.00952981542767018
754,0.0093827529598997
755,0.00861076676864117
756,0.00783878057738263
757,0.0070667943861241
758,0.00586520716869277
759,0.00476605818932838
760,0.00414208322537985
761,0.0039744705344118
762,0.00416151290361258
763,0.00467766645768212
764,0.00548576899300999
765,0.00626681072551068
766,0.00717167913057276
767,0.00802552478090707
768,0.00856649764503815
769,0.008994690517524
770,0.00929065665261517
771,0.00946890434376988
772,0.00965190719747035
773,0.00978202225338959
774,0.00973737086295556
775,0.00976599010394143
776,0.00982498392186947
777,0.00970192777214362
778,0.00984429513463567
779,0.00972877002708185
780,0.00983200574988318
