"wavelength","measurement"
380,0.000723452956377578
381,0.000731282460460865
382,0.00074419126581855
383,0.000742061381164574
384,0.000767726966582102
385,0.000847845185434244
386,0.000873999711507207
387,0.000950004271658663
388,0.00103994244150759
389,0.00105574301415037
390,0.00109452848923752
391,0.00109412166004411
392,0.00117003364690243
393,0.00123260994477581
394,0.00134603253512583
395,0.00143469016491014
396,0.00164036860694065
397,0.00187119684083261
398,0.00210202507472458
399,0.00233285330861654
400,0.00254544242016728
401,0.00274838461472797
402,0.00294806956759372
403,0.00302130777051808
404,0.00317315014580269
405,0.00320376482138477
406,0.00334366007124215
407,0.0034176839368916
408,0.00355893179148383
409,0.00368941932851805
410,0.00388301090868883
411,0.00395755197763215
412,0.00410764677911535
413,0.00422132221096898
414,0.00425111664224307
415,0.00431701673101971
416,0.00429859584143832
417,0.00429889006035161
418,0.00436521180289449
419,0.00426716035102015
420,0.00440133229158942
421,0.00436794639804133
422,0.00439929224065624
423,0.00442149135484831
424,0.00443184033125092
425,0.00433787148307285
426,0.00428521207243763
427,0.00417441063076277
428,0.00403015529006693
429,0.00404478086706742
430,0.00403568775166166
431,0.00420868492912699
432,0.00436431688704818
433,0.00448749820665358
434,0.00464447947665535
435,0.00475941554512951
436,0.00475944959881867
437,0.00483786708177323
438,0.00491628456472779
439,0.00499470204768234
440,0.00496574595716294
441,0.00504723604628567
442,0.0051776893051447
443,0.00519938287806159
444,0.00527273982958379
445,0.005346096781106
446,0.0054194537326282
447,0.00549943074781463
448,0.00551765811999083
449,0.00567737476609403
450,0.0056032508690642
451,0.00555481405645135
452,0.00554200064452843
453,0.00552918723260552
454,0.0055163738206826
455,0.00549964459325629
456,0.00548400203741438
457,0.00556120322024129
458,0.00555874465919792
459,0.00563376322619358
460,0.00562548970470499
461,0.00555741171425387
462,0.00573702992339163
463,0.00554566661159031
464,0.00550663801433438
465,0.00546098014378464
466,0.00540034676104273
467,0.00539799613928644
468,0.00535401190876405
469,0.00533601418248187
470,0.00546307015154104
471,0.00545610496921518
472,0.00551594197897006
473,0.00557838596065213
474,0.00557743573550472
475,0.00568279257739488
476,0.00556024173496815
477,0.00557953780969025
478,0.00559883388441234
479,0.00561812995913443
480,0.00562475454030903
481,0.0054862150633357
482,0.00539066526591815
483,0.00539279196260791
484,0.00526567805820494
485,0.00516288746576645
486,0.00520748439516862
487,0.00526492050449586
488,0.00530863572616524
489,0.00541876109459591
490,0.00546122287321623
491,0.00548683733428417
492,0.00559793842402913
493,0.00552589382851787
494,0.00559478953096725
495,0.00551455503012058
496,0.00553501614240277
497,0.00541351315580266
498,0.0054034739305969
499,0.0052784446881673
500,0.0052810837720449
501,0.00520260067797952
502,0.00527369504323764
503,0.00529837996168598
504,0.00520492221784488
505,0.00537046415427637
506,0.00534359312940463
507,0.00535614446230842
508,0.00537357116429617
509,0.00536784284865336
510,0.00528658974500052
511,0.00537840833349512
512,0.00532106022893376
513,0.00513968364771089
514,0.00510506811810617
515,0.00501210564286446
516,0.0049728975980903
517,0.00495844488513564
518,0.00494809072481607
519,0.00501875701222354
520,0.00510574549455877
521,0.00514247562292757
522,0.00517920575129636
523,0.00521593587966516
524,0.00517685608274431
525,0.00517401484632208
526,0.00517685625184004
527,0.00512927470440456
528,0.00516052944576559
529,0.00520989190453013
530,0.00518455149529048
531,0.00517195467301316
532,0.00516086189407894
533,0.00519997266336596
534,0.00520767812866501
535,0.00516651678609155
536,0.00518099217581686
537,0.00514398174975532
538,0.0050953876867297
539,0.00503383889087027
540,0.00505043709111946
541,0.00500429609049144
542,0.00494907725650214
543,0.00498676984138862
544,0.00501534221401055
545,0.00496699980701382
546,0.00498943836483772
547,0.0049906026311314
548,0.00499176689742507
549,0.00499293116371874
550,0.00493675546831664
551,0.00496713527037487
552,0.00499887514602455
553,0.00494911818764482
554,0.00492076590087608
555,0.00493242707927511
556,0.00486545693816561
557,0.00483870660148096
558,0.00478801186571927
559,0.0047328589091931
560,0.00476319031300096
561,0.00465369132682189
562,0.00471673645702316
563,0.00461443485664384
564,0.00461881074566173
565,0.00450982877300502
566,0.00446991616365951
567,0.00440035604956978
568,0.00438992373766514
569,0.00431377594538807
570,0.00430215094037588
571,0.00430239083767679
572,0.00428932865012208
573,0.00427052068572579
574,0.00429187436558188
575,0.00423788459315961
576,0.00426923844011928
577,0.00430059228707895
578,0.00433194613403862
579,0.0043632999809983
580,0.00439465382795797
581,0.00446746117764457
582,0.00445664529243857
583,0.00447949894191974
584,0.00437740924585535
585,0.0043507028237265
586,0.0041790411065828
587,0.00409937198243535
588,0.00403134553037649
589,0.00396331907831762
590,0.00389529262625876
591,0.00391632263721156
592,0.00396992389938511
593,0.00398331089110579
594,0.00406154991567067
595,0.00407511203524911
596,0.00414957374238047
597,0.00417078154847258
598,0.00422704089829276
599,0.0042379692115782
600,0.00430769646467243
601,0.00436330108642545
602,0.00439215234287559
603,0.00439161597374911
604,0.00441833901563389
605,0.00442000284686667
606,0.00442094669144661
607,0.00439975702517196
608,0.00435669889732397
609,0.00436252785656176
610,0.0043366453568082
611,0.0043059693505469
612,0.00429009701571924
613,0.00427541847140399
614,0.00421780125376366
615,0.00426689537330568
616,0.00425230144368631
617,0.00428629874111607
618,0.00429494525295019
619,0.0042972119522291
620,0.00426763017710948
621,0.0042985373532412
622,0.00422146716208174
623,0.00421325484575105
624,0.00416044106961481
625,0.00410762729347857
626,0.00405481351734233
627,0.00403108214355126
628,0.00402116187371487
629,0.004014929915709
630,0.00407030275423455
631,0.00403828841654072
632,0.00408103366546997
633,0.00412956688586748
634,0.00416141255037455
635,0.00419207118989942
636,0.00419475270652091
637,0.00423482446317289
638,0.00420169802441791
639,0.00424162100965806
640,0.00421127155057341
641,0.0042205431309429
642,0.00420087134358911
643,0.00414388326884765
644,0.00408689519410618
645,0.00402990711936472
646,0.00403305556418413
647,0.00399394726693757
648,0.00391011018597772
649,0.00401619171372449
650,0.00397905570778854
651,0.00401180256963178
652,0.00398063329957957
653,0.00394046884807624
654,0.00388107687121001
655,0.00393357948307934
656,0.00393276285878044
657,0.00399882251706102
658,0.00406891678031168
659,0.00419454654627978
660,0.00424188736312922
661,0.00426229779343517
662,0.00430187415562411
663,0.004280247748699
664,0.00426187245558978
665,0.00429270819531308
666,0.00430208379361788
667,0.00430967383897616
668,0.00431958566581625
669,0.00427007753504109
670,0.00427738138203411
671,0.00426457605187602
672,0.00428013356558007
673,0.00428336654656136
674,0.00429527506210798
675,0.00429308774966006
676,0.00429369817358664
677,0.00433560002688809
678,0.00429320607641741
679,0.00427855332606217
680,0.00438789303960572
681,0.00430047861136036
682,0.00416046447249042
683,0.00405208772652507
684,0.00386826086632342
685,0.00370784340885887
686,0.00358017655055579
687,0.00350094608597528
688,0.0034744736643889
689,0.00348691549348907
690,0.00355350502796929
691,0.00363618309285188
692,0.00367480389454577
693,0.00372745402223852
694,0.00384363746431079
695,0.00388090217178537
696,0.00398593873592277
697,0.00403121160497605
698,0.00399030777493316
699,0.00403708631416013
700,0.0041475349424421
701,0.00418241606825147
702,0.0042923570771632
703,0.00436627655888583
704,0.00450164057785433
705,0.00457236276781666
706,0.00471118071995614
707,0.00481933059411104
708,0.00488509783320083
709,0.00499066773413904
710,0.00499605059908329
711,0.00504320315221395
712,0.00503829852112114
713,0.00479591510219279
714,0.00461515906531219
715,0.00431963251572013
716,0.0040542627215513
717,0.00392657378576011
718,0.00392247602463548
719,0.00396019955697716
720,0.00408409014418721
721,0.00405904434833848
722,0.00424127005266251
723,0.00423538148623258
724,0.00426664457641684
725,0.00430054049902048
726,0.00435425931618748
727,0.00450251239914027
728,0.00469238453575241
729,0.00495512980354385
730,0.00519487083132955
731,0.00553421591143487
732,0.00583146880606836
733,0.00618719560398345
734,0.00639983553282147
735,0.00659346794821774
736,0.00681981136931102
737,0.0070172010363652
738,0.00721459070341939
739,0.00741198037047358
740,0.00767488854523918
741,0.00782055821840478
742,0.00797572469292719
743,0.00813089116744961
744,0.00828605764197202
745,0.00839693978286219
746,0.00843898564612009
747,0.00856927388739839
748,0.00850557328394701
749,0.00860703022812568
750,0.00865101367938916
751,0.00863937380561502
752,0.00879384681481035
753,0.00870636370698711
754,0.00861529021062039
755,0.007902143165884
756,0.00718899612114761
757,0.00647584907641122
758,0.00537743965802237
759,0.00440129781383781
760,0.00380896088852099
761,0.00368022735970566
762,0.00385911333788262
763,0.00437974469588336
764,0.00505650415492328
765,0.00583252724360475
766,0.00663264788120448
767,0.00745276001204539
768,0.00791617599830705
769,0.00829043815645288
770,0.0086041403364549
771,0.00878021153024647
772,0.0089294677266425
773,0.0090599681583524
774,0.00902862974977737
775,0.00903874657354144
776,0.00912824638871613
777,0.00901366412711434
778,0.00909524940680638
779,0.00903753723675639
780,0.00913152831985234
