"wavelength","measurement"
380,0.00257964338442364
381,0.00259930925261771
382,0.0025887872649805
383,0.00256330629263511
384,0.00266475393354167
385,0.00288208935621645
386,0.00308750229236032
387,0.00326051134843807
388,0.00348989262091642
389,0.00360792209589139
390,0.003667648608505
391,0.00365453530359641
392,0.00374006872217178
393,0.00383804140919328
394,0.00401005758884753
395,0.00421586987608993
396,0.00472714776917748
397,0.00528234293046233
398,0.00583753809174718
399,0.00639273325303203
400,0.00670551895100961
401,0.00717024349832827
402,0.00747170519903407
403,0.00751688924392777
404,0.00771313692771402
405,0.00768951344919606
406,0.00785429143654355
407,0.00793833088311272
408,0.00806110604337479
409,0.00819896989364552
410,0.0086328892713751
411,0.00863711016365276
412,0.00893278594270817
413,0.00918577072193334
414,0.0091633061737783
415,0.00927932395427331
416,0.00919741897947806
417,0.00918593971208411
418,0.00934084957619757
419,0.00911466408247551
420,0.00937825426694972
421,0.00937615967662276
422,0.00947521324078421
423,0.00959418569206292
424,0.00970030791157355
425,0.00956934206347161
426,0.0094492408150161
427,0.00919819104147744
428,0.00890516203829867
429,0.00892592733180912
430,0.00898396287328351
431,0.00931889242161532
432,0.00971399655368477
433,0.0100673907621544
434,0.0105699025780942
435,0.0107921409214925
436,0.0109028879358203
437,0.0111256174565113
438,0.0113483469772023
439,0.0115710764978933
440,0.0116649288914383
441,0.011935669964717
442,0.0122624817358109
443,0.0124630780993003
444,0.012699914092508
445,0.0129367500857156
446,0.0131735860789232
447,0.0134491784962109
448,0.0135649339105425
449,0.0141798142085288
450,0.0141343851989474
451,0.0140400659905781
452,0.0140500860358218
453,0.0140601060810656
454,0.0140701261263093
455,0.0140996553743757
456,0.0141664035750887
457,0.0144161052443258
458,0.014506033704048
459,0.0148370210605545
460,0.0148289416328542
461,0.0147423189208944
462,0.015184546271034
463,0.0147923348798364
464,0.0147073222529399
465,0.0146376317531108
466,0.0144734560361518
467,0.0144358816282942
468,0.0143337074084328
469,0.0142648130398654
470,0.0146254741124312
471,0.0146152292544035
472,0.0147442301352277
473,0.0149449055635174
474,0.0150273670748148
475,0.0152984928379369
476,0.0149666317525523
477,0.0149901573333765
478,0.0150136829142007
479,0.015037208495025
480,0.01503089960275
481,0.0146377860553516
482,0.0143985653061395
483,0.0143963158464783
484,0.0140985548600908
485,0.0137850876955527
486,0.0139568275674184
487,0.0140917999472399
488,0.0142263372958992
489,0.014673661376731
490,0.0148393900545435
491,0.0149841718542712
492,0.0153841288645626
493,0.0152341676957373
494,0.015498492610305
495,0.0152973126565405
496,0.01538155955755
497,0.0151541528648333
498,0.0152643249376646
499,0.0149206674194478
500,0.0150709175850947
501,0.0149305958137902
502,0.015238398356684
503,0.0153266445291444
504,0.0151780755873874
505,0.015706807470554
506,0.0156510187643233
507,0.0157431305772007
508,0.0158175183349891
509,0.0158042756604035
510,0.0155547763340134
511,0.0157839600800403
512,0.0156285587716283
513,0.0152203321977166
514,0.0151119031164648
515,0.0148586730702744
516,0.014763702684143
517,0.014744284690308
518,0.0146735115135478
519,0.0149384976962752
520,0.015225746998603
521,0.0153966342950178
522,0.0155675215914326
523,0.0157384088878473
524,0.0156388731864941
525,0.0156538943909107
526,0.0156500435978324
527,0.0155761927663854
528,0.015673378507592
529,0.0158247718888904
530,0.0158391573861389
531,0.0158516342227977
532,0.0158006824620684
533,0.015965490843207
534,0.016018577749894
535,0.0158291218023019
536,0.015995820883631
537,0.0159055228153929
538,0.0157893738550651
539,0.0156959816771224
540,0.0157869449348279
541,0.015662340778773
542,0.0155685107146277
543,0.0156661666509345
544,0.0157419897346203
545,0.0156015885283767
546,0.015718493644257
547,0.0156911475317822
548,0.0156638014193074
549,0.0156364553068326
550,0.0155404274635547
551,0.0156678503001515
552,0.01573608583892
553,0.015603161216658
554,0.0155508461854715
555,0.0157134788651297
556,0.0155320777654314
557,0.0155079052838867
558,0.0153923022150831
559,0.0152763874657883
560,0.0154653386762875
561,0.0151942633687996
562,0.0154660003057069
563,0.0152285637654495
564,0.0152945440081941
565,0.0150654650540148
566,0.0150131883368648
567,0.0148686078171892
568,0.0149632669244911
569,0.0147798868177529
570,0.0147890850652726
571,0.0147987338892837
572,0.014806097810373
573,0.0147606689511353
574,0.0148602060440135
575,0.0146949149763538
576,0.0147425670758324
577,0.014790219175311
578,0.0148378712747896
579,0.0148855233742682
580,0.0149331754737468
581,0.0151368025871896
582,0.0150594342333593
583,0.015156512170783
584,0.0149320789848566
585,0.0149540299770839
586,0.0146034098827133
587,0.0144387584455009
588,0.0143053005399779
589,0.0141718426344548
590,0.0140383847289317
591,0.01409511463611
592,0.0141627422758173
593,0.0141894652608725
594,0.0143413123447376
595,0.0142816885382374
596,0.0143287993576052
597,0.0143520963792868
598,0.014293190068597
599,0.0142900979703714
600,0.0143315212738015
601,0.0143852904041983
602,0.0144564614671433
603,0.0143569086857167
604,0.0144791748687769
605,0.0143882232907198
606,0.0143823635224586
607,0.0142985346426002
608,0.0141428993011924
609,0.0141272734457398
610,0.0140410369016942
611,0.0139143735813861
612,0.0138083665882645
613,0.0137638440309842
614,0.0135576731213516
615,0.0136665967260572
616,0.0135421224244216
617,0.0136885321691991
618,0.0136278319554833
619,0.0136677468273743
620,0.0135700390393595
621,0.0136752174234781
622,0.0133767343072519
623,0.0133482244072138
624,0.0132188238107212
625,0.0130894232142287
626,0.0129600226177362
627,0.0129203086940753
628,0.0128538476766584
629,0.012810772903555
630,0.0129066976847094
631,0.0127199665874302
632,0.0127975924176749
633,0.0128780777522836
634,0.0128744581165212
635,0.0129307158019907
636,0.0128241683288394
637,0.0129310489973287
638,0.0128032778987966
639,0.0128974782080481
640,0.0128072768870662
641,0.0127722608717562
642,0.0127114180154784
643,0.012635103085769
644,0.0125587881560596
645,0.0124824732263503
646,0.0125595997501474
647,0.0125400699908067
648,0.012289157387444
649,0.012477520694695
650,0.0123125470384241
651,0.0124080744399838
652,0.0122454785415169
653,0.0120058710733293
654,0.0117562046260554
655,0.0118374846747144
656,0.0116832767725734
657,0.0117632847749431
658,0.0118779339604229
659,0.0121412154766349
660,0.012204706712531
661,0.0122338512231842
662,0.0122514700857474
663,0.0121463772824806
664,0.012065326531084
665,0.012092361497002
666,0.0120960444874544
667,0.0121080076534476
668,0.0121069870544632
669,0.0118576288438245
670,0.0118817214077901
671,0.0118274349639126
672,0.011777500672873
673,0.0117969003515237
674,0.0118206466663341
675,0.0117685992786589
676,0.011708778711657
677,0.0117820983732935
678,0.0115979457523504
679,0.0115528448984719
680,0.0118309330881717
681,0.011591649309867
682,0.011281864484428
683,0.0109910501854864
684,0.0105284416673086
685,0.0101451406858815
686,0.00980164345121968
687,0.00953264909240963
688,0.00942713274296533
689,0.00948927416110172
690,0.00969309691702999
691,0.00997965672675077
692,0.0101021532544773
693,0.0101664039005028
694,0.0103907318078304
695,0.0103497030161731
696,0.0105075639447946
697,0.0104621641925425
698,0.0103230634926672
699,0.0103296048697324
700,0.010463043250064
701,0.0103561766178058
702,0.0104230975595276
703,0.0104067259083367
704,0.0105666799816369
705,0.0104687277431812
706,0.0105856750278871
707,0.0106473141231834
708,0.0106122062799815
709,0.0106641490969629
710,0.0104996906998103
711,0.0104769064833935
712,0.0105248746965559
713,0.0101631332640691
714,0.00999160958592203
715,0.0095962338502419
716,0.00921436935743744
717,0.00895279634128289
718,0.00882514417528544
719,0.00884345771523082
720,0.00885338295286957
721,0.00873753106394002
722,0.0089645529740323
723,0.00892473004645498
724,0.00887438859344872
725,0.00886045021063224
726,0.00879582263984435
727,0.008877299801318
728,0.00891961336792324
729,0.00900948175175903
730,0.00912956091856046
731,0.00931698701614325
732,0.00943555730719881
733,0.009623276882973
734,0.00970015543724583
735,0.00966816383928007
736,0.00978617251820666
737,0.00978256526257315
738,0.00977895800693964
739,0.00977535075130613
740,0.00985111592106981
741,0.00982827554429901
742,0.00983104872773597
743,0.00983382191117292
744,0.00983659509460988
745,0.00982281274050758
746,0.00978941531099901
747,0.0097557482775554
748,0.00956592161170396
749,0.00962560672410049
750,0.00956122104609727
751,0.0095122856992329
752,0.0095661578397196
753,0.00937319321703504
754,0.00929161795323734
755,0.0086129993066516
756,0.00793438066006585
757,0.00725576201348011
758,0.00618896572455704
759,0.00524235223351116
760,0.00455493071784524
761,0.00435350086257985
762,0.00449613206030266
763,0.00486709475389629
764,0.00546255606300186
765,0.00606804937541152
766,0.00674089432895209
767,0.00740944977622963
768,0.00781323118619144
769,0.00810691491177162
770,0.00830676940867385
771,0.00838514979934679
772,0.00846910023165501
773,0.0086101395332188
774,0.00849825432202977
775,0.00846510575759829
776,0.00849494329157847
777,0.00839086657777896
778,0.00840599228685457
779,0.0083205953609472
780,0.00840103895581964
