"wavelength","measurement"
380,0.0025965195218795
381,0.00249280174800964
382,0.00256710665847025
383,0.00252825621111516
384,0.00260028160897984
385,0.00271282597807705
386,0.0029055815681559
387,0.00308338607507611
388,0.00323014910598139
389,0.00334476539950038
390,0.00334203031553035
391,0.00330787725699313
392,0.00342823914545154
393,0.00345053018227816
394,0.0036572163915951
395,0.00392780256138825
396,0.00441966447542937
397,0.00495859364257658
398,0.00549752280972379
399,0.006036451976871
400,0.006412311722601
401,0.00676329012634139
402,0.0071281795413599
403,0.0073586704398425
404,0.00743872447519903
405,0.00755699230944147
406,0.00791679698803846
407,0.00791629218173068
408,0.00815468878864267
409,0.00834945169549868
410,0.00890494932357691
411,0.00894911970154258
412,0.00931760280635936
413,0.00957185934494252
414,0.00958115030457604
415,0.0097019378111685
416,0.00973386446449389
417,0.00970819617590498
418,0.00992487675906131
419,0.00977191245766276
420,0.0101376495037379
421,0.010149417340405
422,0.0103268501205965
423,0.0105303206495825
424,0.0105283337090132
425,0.0105037040436039
426,0.0104191928204494
427,0.0102887005322678
428,0.0101297691121264
429,0.0101972654709625
430,0.0103693416432187
431,0.0108935755204359
432,0.0115231538044292
433,0.0120412017242022
434,0.0127781524929756
435,0.0130947260057693
436,0.0134473905497897
437,0.0138859327940508
438,0.0143244750383118
439,0.0147630172825728
440,0.015173837396656
441,0.0157710795345869
442,0.0164113994539624
443,0.0169450920736587
444,0.0176982423378631
445,0.0184513926020676
446,0.019204542866272
447,0.0198609765975953
448,0.0202519867807741
449,0.0212341186430113
450,0.0214407807580631
451,0.0214106395989223
452,0.0213503879497737
453,0.0212901363006251
454,0.0212298846514765
455,0.0209154982067001
456,0.0207545001072287
457,0.0207085043542067
458,0.0204820558562868
459,0.0205729751229268
460,0.0202211199750125
461,0.019876078454541
462,0.020134569423551
463,0.0194363631284136
464,0.0190346914867778
465,0.0187410371568287
466,0.0184472031324079
467,0.0182884694559917
468,0.0180209270887259
469,0.0176561451928688
470,0.0180208077555162
471,0.0178249290964019
472,0.0178405811928487
473,0.0179043701985703
474,0.0179129317563281
475,0.0180357163310205
476,0.0175651893043728
477,0.0175085397335105
478,0.0174518901626482
479,0.0173952405917859
480,0.0172764463156293
481,0.0168742767680431
482,0.0165925857700847
483,0.0166445257723961
484,0.0163744210639418
485,0.0160980282291969
486,0.0163599606745439
487,0.0166117251013357
488,0.0168474902675078
489,0.0173603265078416
490,0.0175129233318541
491,0.0177321463170382
492,0.0182775725838831
493,0.018130553142079
494,0.0185005465838402
495,0.0183027149124309
496,0.0185135306015831
497,0.018285631935725
498,0.0185489671537229
499,0.0182938586926394
500,0.0185599425731786
501,0.0185597306750725
502,0.0190643656174748
503,0.0192705032713336
504,0.0191466860815996
505,0.019878358855989
506,0.0198175460372128
507,0.0200171575902625
508,0.0201708429373762
509,0.0202393552995989
510,0.0199838122134647
511,0.0202781534333118
512,0.0201554382441704
513,0.019639554533402
514,0.0196078976356086
515,0.0193708223018043
516,0.0193584696960785
517,0.0193547778525348
518,0.0193205023619667
519,0.0197243624267091
520,0.0200091029942531
521,0.0201748273743626
522,0.020340551754472
523,0.0205062761345814
524,0.0204162157977535
525,0.0204458833939315
526,0.0204593996190482
527,0.0203623305154841
528,0.0204815512009153
529,0.0206632804071436
530,0.0206434606355968
531,0.0206460922798267
532,0.0205574017622845
533,0.0207984201006278
534,0.0208517145904404
535,0.020632223826876
536,0.0208729799785623
537,0.0207983814059541
538,0.0207117653220001
539,0.0206779456369629
540,0.020915865270817
541,0.0208606507665398
542,0.0207963775649226
543,0.0209798431031148
544,0.0210316734731505
545,0.0208460516907929
546,0.0209842077209974
547,0.0208874659574809
548,0.0207907241939644
549,0.0206939824304479
550,0.0206957711184155
551,0.0207740426876427
552,0.0209475230678283
553,0.0207959573055666
554,0.0207434483190556
555,0.0209918208533866
556,0.0207311654178392
557,0.0208217388353137
558,0.0207635229073919
559,0.0206817261734294
560,0.0209219823159892
561,0.0205877569365544
562,0.0209921905677206
563,0.0207334720063869
564,0.0208574028195507
565,0.0206933495096065
566,0.0206803095621716
567,0.0205587817686519
568,0.0208072029243544
569,0.0206626035225293
570,0.0207124583785273
571,0.0208406671759313
572,0.0209985389891279
573,0.0209946391167849
574,0.021234606586257
575,0.0210169066739488
576,0.0212046540925327
577,0.0213924015111166
578,0.0215801489297004
579,0.0217678963482843
580,0.0219556437668682
581,0.0223381081564765
582,0.0223226718238347
583,0.0226539045212594
584,0.0223912759715843
585,0.0226022037998363
586,0.022181966544344
587,0.0222340828178343
588,0.0222323071594852
589,0.022230531501136
590,0.0222287558427869
591,0.0224882893352215
592,0.0228159752985833
593,0.0228990887170626
594,0.0233524719416454
595,0.0233686371604198
596,0.0236462126281288
597,0.0238244854651327
598,0.0238292716470255
599,0.0239651045793576
600,0.0242192811637733
601,0.0244506856617835
602,0.0246404564820771
603,0.0245577556775172
604,0.0248757311562823
605,0.0248561118180649
606,0.0249794023124649
607,0.0249949625744623
608,0.0248931447814063
609,0.0250267025114506
610,0.0249981109404701
611,0.0249167060841253
612,0.024742208112071
613,0.0246192387538725
614,0.0243876326211608
615,0.0247092249408783
616,0.0243869860653694
617,0.0246582238981296
618,0.0245311006426215
619,0.0245676867831697
620,0.0244856758381482
621,0.024722045843092
622,0.0241977661664554
623,0.0241985526808992
624,0.0240167150676135
625,0.0238348774543278
626,0.0236530398410421
627,0.023568160826204
628,0.0235555605801418
629,0.0234489677377683
630,0.0236640779472644
631,0.0233022565890394
632,0.0233906582924832
633,0.023443647235096
634,0.0234085999311665
635,0.0235470743342943
636,0.0233116021425771
637,0.0234973653786081
638,0.0233229145218008
639,0.0234330236660674
640,0.0233174955969507
641,0.023270548532355
642,0.0231410764756968
643,0.023035714248966
644,0.0229303520222352
645,0.0228249897955045
646,0.0229914244542909
647,0.0230285302434886
648,0.0225875729332323
649,0.0229234947533395
650,0.0226711825661486
651,0.0227126188061552
652,0.0224925409846113
653,0.0221770674720981
654,0.0217372525912042
655,0.0219871576795883
656,0.0217251337177967
657,0.0219378164326187
658,0.0221187449699082
659,0.0224922016750963
660,0.0226376611189935
661,0.0226168888806241
662,0.02271440534379
663,0.0225556671658163
664,0.0223892730110205
665,0.0224239642277996
666,0.0224352089589834
667,0.022451684303557
668,0.0225133160984834
669,0.0220501427125565
670,0.0221579647226589
671,0.022084861244394
672,0.0220044737015084
673,0.0220585724380441
674,0.0221225244163113
675,0.0220482072761277
676,0.0220044209591644
677,0.0220918894734586
678,0.021877706826595
679,0.0218159805891709
680,0.0222445689977432
681,0.0217768509727431
682,0.0212023486017885
683,0.0207315862507693
684,0.0199135250726786
685,0.0192770342516385
686,0.0187502305911543
687,0.0184173229350988
688,0.0183392543601621
689,0.0184748877352957
690,0.0188196538641521
691,0.0193187169667582
692,0.019558596903957
693,0.0197836936522574
694,0.0199792157651906
695,0.0199330122320741
696,0.0201254758932953
697,0.0201787732700185
698,0.0198255943969665
699,0.0198339247395056
700,0.0201504753315236
701,0.0199623850525864
702,0.0201433870575762
703,0.0201310861852609
704,0.0203881295429119
705,0.0202208585577925
706,0.020459334147068
707,0.0206127447422703
708,0.0204981607441827
709,0.020635222122669
710,0.0203473813432913
711,0.020327809076464
712,0.0203332720495109
713,0.0196031832273987
714,0.0192907306147231
715,0.0184873461972889
716,0.0178834947114774
717,0.017429898791068
718,0.0173190214169214
719,0.0173825455642809
720,0.0174426896949301
721,0.0172208679815638
722,0.0176635201639557
723,0.017572317533024
724,0.0174903882855585
725,0.0175102480866398
726,0.0174640263274721
727,0.0176476367029358
728,0.017807353781017
729,0.0180871561128027
730,0.0183332683810221
731,0.0186723657494903
732,0.0190127017020332
733,0.0194158610327776
734,0.0195624893106401
735,0.0196399511036356
736,0.0198079934746429
737,0.0198671038151177
738,0.0199262141555924
739,0.0199853244960672
740,0.0203197285414679
741,0.0203056739016154
742,0.0204531307602632
743,0.020600587618911
744,0.0207480444775589
745,0.020810689590662
746,0.0207876771523659
747,0.0209536193472641
748,0.0208019290797136
749,0.0210686447154282
750,0.0210213472664707
751,0.0210224019476165
752,0.0213299273148315
753,0.0212348825616622
754,0.0208833578563211
755,0.0193628471630541
756,0.0178423364697872
757,0.0163218257765203
758,0.0139851798900717
759,0.0119243558879849
760,0.0108599026650842
761,0.0108056336879927
762,0.0114043993233458
763,0.0126635409304079
764,0.0142904918298246
765,0.0157513351095759
766,0.0175624916830851
767,0.0192285318620971
768,0.0201621736748686
769,0.0208446461878019
770,0.0215065481612751
771,0.0218584031312858
772,0.0221428137515818
773,0.0224640067742915
774,0.0224519757654006
775,0.0223800633069877
776,0.0226287109166827
777,0.0223839445983081
778,0.0226960662076509
779,0.0224405376851798
780,0.0227839317023618
