"wavelength","measurement"
380,0.0217157854081224
381,0.0210163539513747
382,0.0215681546476948
383,0.0211225435268823
384,0.0221199664156085
385,0.0233887861101345
386,0.024675230654377
387,0.0257535653960431
388,0.0274427897621281
389,0.0287383220053081
390,0.0287096251321651
391,0.0297252602969085
392,0.0296832875563718
393,0.0308235165770762
394,0.0323188248345235
395,0.0360310698110278
396,0.0404663432385894
397,0.046189207499009
398,0.0519120717594286
399,0.0576349360198483
400,0.0606339356185161
401,0.0650424648812798
402,0.0684754868140474
403,0.0705835885876492
404,0.0722985790436067
405,0.0738963373284924
406,0.0770156365121725
407,0.0786317549623918
408,0.0801991899947145
409,0.082981255506437
410,0.0881267407271458
411,0.089092009837747
412,0.0915441186681301
413,0.0948773245043772
414,0.09512069154423
415,0.0962857582973996
416,0.0961728957687593
417,0.0954136612707947
418,0.0971143286467386
419,0.0956913963915864
420,0.0976422351725857
421,0.0975308399158399
422,0.0981957237295236
423,0.0985891250220887
424,0.0987408267777855
425,0.0970851222488264
426,0.0961776437577072
427,0.093496883279293
428,0.0906394844250088
429,0.0904705384557794
430,0.0911658235593474
431,0.0948192693992778
432,0.0987469969787917
433,0.10164281164401
434,0.105875455142186
435,0.10809754873796
436,0.109054346198443
437,0.110956290486361
438,0.112858234774278
439,0.114760179062196
440,0.116027096417031
441,0.117905512781838
442,0.120070030770707
443,0.121642265089858
444,0.123631824024241
445,0.125621382958624
446,0.127610941893008
447,0.12962232294887
448,0.130332566890004
449,0.135000684393915
450,0.133724447872409
451,0.132683718224093
452,0.132308019591824
453,0.131932320959555
454,0.131556622327286
455,0.131333216775545
456,0.131909274672204
457,0.133307922288554
458,0.134546315791482
459,0.136630357458194
460,0.136354088905566
461,0.135601135172324
462,0.138674504266197
463,0.13535934050497
464,0.134445707704239
465,0.13326676396687
466,0.132045454239604
467,0.132152934357582
468,0.13154643520668
469,0.131134793405029
470,0.133712091128531
471,0.13503291212738
472,0.136203940681057
473,0.138545890967095
474,0.139248184324832
475,0.141653509588351
476,0.138909646609373
477,0.139194536626622
478,0.139479426643871
479,0.13976431666112
480,0.13953077807414
481,0.135969479159536
482,0.133699487425727
483,0.133448879993836
484,0.131286575603811
485,0.128468202978981
486,0.130174583956114
487,0.13144680673024
488,0.133050662064998
489,0.136481040980657
490,0.137300136441429
491,0.138806154418242
492,0.141937050901312
493,0.14058928725972
494,0.142239458449181
495,0.140117102269557
496,0.140577908926436
497,0.137728677445751
498,0.138574182283678
499,0.13562123084455
500,0.136648721862999
501,0.135271780027812
502,0.137858256442221
503,0.138197945900598
504,0.137142587518105
505,0.141102501310791
506,0.14033332322723
507,0.140526263690713
508,0.141223250491026
509,0.140553419487255
510,0.137929574804721
511,0.139213364692712
512,0.137446620375966
513,0.133253196912256
514,0.131837993616156
515,0.129549408027732
516,0.12847055742092
517,0.128087204762849
518,0.127282829357102
519,0.129865790103901
520,0.131714987924724
521,0.132637719208988
522,0.133560450493252
523,0.134483181777516
524,0.133334272330775
525,0.133182774296365
526,0.133089233928405
527,0.131846532147869
528,0.132433427280419
529,0.133238236496055
530,0.133189300977495
531,0.133038206362847
532,0.132196705704572
533,0.133332132410476
534,0.133525769027325
535,0.131687815147398
536,0.132904493220349
537,0.13201260144426
538,0.130930221098153
539,0.1298438446421
540,0.130588944517607
541,0.129692193801593
542,0.12873387695479
543,0.129154980274817
544,0.129867971753714
545,0.12877902626557
546,0.129819622771306
547,0.129409590738038
548,0.128999558704769
549,0.128589526671501
550,0.127982561137871
551,0.129087314669387
552,0.129835586587193
553,0.128472792963347
554,0.127696675732625
555,0.129235193202017
556,0.127148857953491
557,0.12701411843302
558,0.125992601547316
559,0.124527409889778
560,0.126301492487177
561,0.123862823253187
562,0.125757537536509
563,0.12361447089586
564,0.124499778162776
565,0.122734469694636
566,0.121736606168409
567,0.120612439946787
568,0.121371657666719
569,0.12017042830132
570,0.120279094632024
571,0.120751115269828
572,0.120656617950071
573,0.120800181119184
574,0.121765222509109
575,0.120464276200418
576,0.121150943910303
577,0.121837611620188
578,0.122524279330074
579,0.123210947039959
580,0.123897614749844
581,0.125951029065139
582,0.125588666382158
583,0.126383670520761
584,0.124647379281052
585,0.124840788756347
586,0.12203919328894
587,0.121282691106192
588,0.120586405817062
589,0.119890120527933
590,0.119193835238803
591,0.119978608687128
592,0.121313232496312
593,0.121184490507223
594,0.123053694223937
595,0.122733724977883
596,0.123602727966569
597,0.124325383240835
598,0.123938753119572
599,0.1241399186415
600,0.124827318253942
601,0.125601189179371
602,0.126466437869216
603,0.126124954837942
604,0.126592871778175
605,0.126515501824632
606,0.126722918664065
607,0.125884579891871
608,0.124526742614213
609,0.124712595734872
610,0.124238669541097
611,0.123556368287273
612,0.122574822946757
613,0.122449625365962
614,0.120943138589568
615,0.123335072877159
616,0.121512183510066
617,0.123023459963146
618,0.122848190492397
619,0.123380523719849
620,0.12291571243478
621,0.124168313600843
622,0.121745778964935
623,0.121783950054082
624,0.120876963514636
625,0.11996997697519
626,0.119062990435743
627,0.118917172541258
628,0.118752214934951
629,0.118715079617571
630,0.119905344282935
631,0.118438041866882
632,0.119750103861567
633,0.120460510513476
634,0.120594670099439
635,0.121788556175574
636,0.120766242502074
637,0.121812954463802
638,0.121451775685054
639,0.122474693124343
640,0.121965525052961
641,0.121746488171397
642,0.121460524651982
643,0.121093298206057
644,0.120726071760132
645,0.120358845314207
646,0.121407836769898
647,0.121746926747629
648,0.119631695668776
649,0.121694214433274
650,0.120509874822296
651,0.121049130110121
652,0.119978584375586
653,0.118505909943759
654,0.116349301696672
655,0.117831623682358
656,0.117091426134945
657,0.118447024416993
658,0.119450495761159
659,0.122599766175263
660,0.123477586428708
661,0.123585476553717
662,0.124226631575689
663,0.124145364908948
664,0.122983787870773
665,0.123743780959726
666,0.12380642513031
667,0.124430249020198
668,0.124719613245803
669,0.122450873158416
670,0.123390443798757
671,0.123646793737592
672,0.123127169554543
673,0.123456727366033
674,0.123911417859542
675,0.12368744807664
676,0.123825372833341
677,0.124866938656465
678,0.12313188190151
679,0.123293380916518
680,0.125858678198692
681,0.124277861523941
682,0.120272429215783
683,0.117819202428773
684,0.113682966619596
685,0.109983393804341
686,0.106955878004065
687,0.105312579359463
688,0.105343311162618
689,0.10646570281949
690,0.108617098601887
691,0.112172947027151
692,0.113777896962043
693,0.115412717522501
694,0.116996357957757
695,0.117608529577699
696,0.119456783463317
697,0.119682745897522
698,0.118544592436555
699,0.119004445133611
700,0.121241041916703
701,0.120606742967474
702,0.122578279011315
703,0.122546247102953
704,0.1242808137585
705,0.124378606432858
706,0.126365048581185
707,0.12791005510192
708,0.127233129823809
709,0.128600567202894
710,0.127324590686851
711,0.127733479807318
712,0.127878560496489
713,0.123718296774566
714,0.122025972562359
715,0.117777340520854
716,0.114012905384588
717,0.111848874976001
718,0.111464060198186
719,0.11226699977155
720,0.113537033430913
721,0.112511239486896
722,0.115461530016156
723,0.115234524472377
724,0.115489256497927
725,0.115559880117467
726,0.115619470859989
727,0.117310185204925
728,0.118555480904583
729,0.1209774254821
730,0.122740539984494
731,0.125900279448529
732,0.128274687634033
733,0.130780804393113
734,0.132171819801529
735,0.132603354720307
736,0.134730783080599
737,0.135225148690866
738,0.135719514301133
739,0.1362138799114
740,0.138291617168921
741,0.138672099323457
742,0.139343516196884
743,0.140014933070311
744,0.140686349943738
745,0.141442839164168
746,0.141170008006634
747,0.141763058845172
748,0.140945200208871
749,0.141484719207694
750,0.141558066706804
751,0.141408121698949
752,0.143014217885025
753,0.142106602315395
754,0.138722207815681
755,0.12814707396649
756,0.117571940117298
757,0.106996806268107
758,0.0909962925523285
759,0.0785552828670105
760,0.0717693355200424
761,0.0715283591345466
762,0.0746158263699757
763,0.0827043675046303
764,0.0927537740457018
765,0.102052651842993
766,0.113279004262287
767,0.124002274573453
768,0.129470180841155
769,0.133573828928194
770,0.137375857677597
771,0.139189365842348
772,0.140426631624281
773,0.142245853217921
774,0.142028366868367
775,0.142612612612656
776,0.143063299969483
777,0.141555209413904
778,0.143180693602957
779,0.141102991507439
780,0.143755672589894
