"wavelength","measurement"
380,0.0208941733001465
381,0.0205291082193744
382,0.0202956857562335
383,0.0198702144308254
384,0.0208992201805267
385,0.022021110913125
386,0.0232984925494355
387,0.0244222791475485
388,0.0258366410786253
389,0.0266891893674326
390,0.0274268117094278
391,0.0279653168121356
392,0.0282954725639579
393,0.0293948727267059
394,0.0312349376636672
395,0.0337104161132908
396,0.038055152006057
397,0.0435472935497299
398,0.0490394350934028
399,0.0545315766370757
400,0.057686201927505
401,0.0618059082152644
402,0.0654787768023937
403,0.0680246444924681
404,0.0691247761491809
405,0.070608973451343
406,0.0732199716623728
407,0.074570610991352
408,0.0765833643634239
409,0.0793170028216512
410,0.0842786208647701
411,0.085217616696821
412,0.0878164256278204
413,0.0905914959408569
414,0.0907722808551035
415,0.0921979748697113
416,0.0914624722572383
417,0.091047902894263
418,0.0924547123463515
419,0.0909622062525295
420,0.0930468831284436
421,0.0936899062986426
422,0.0940329653362161
423,0.0947296078664046
424,0.0951010164810587
425,0.092867025190419
426,0.09164976002817
427,0.0892450520635831
428,0.0867460957952354
429,0.0869667175502948
430,0.0862494248675539
431,0.0906759642174405
432,0.093948095684278
433,0.0972104546258565
434,0.101058210613562
435,0.103044428298728
436,0.103948908063422
437,0.105716587048643
438,0.107484266033865
439,0.109251945019086
440,0.110495793153731
441,0.112016636605584
442,0.114443933152219
443,0.115691870993096
444,0.117672946801536
445,0.119654022609977
446,0.121635098418417
447,0.123248764287304
448,0.123827779152473
449,0.127915138192541
450,0.126358317703241
451,0.125795175839583
452,0.125546144314472
453,0.12529711278936
454,0.125048081264249
455,0.124480880250501
456,0.125403891895264
457,0.126181135278863
458,0.127531899685695
459,0.129468966618217
460,0.130011769813008
461,0.128489590325972
462,0.132010062877824
463,0.128374127102519
464,0.127302488452389
465,0.126138649561572
466,0.125194170476593
467,0.124896543187237
468,0.124643337242765
469,0.124246067931471
470,0.127555721851497
471,0.12766614114654
472,0.129249989733746
473,0.131017360811348
474,0.131648844479333
475,0.134252134777225
476,0.131443504047117
477,0.131805596613417
478,0.132167689179716
479,0.132529781746015
480,0.131857653341841
481,0.129093203741318
482,0.126602955881405
483,0.126421922288184
484,0.12367034579353
485,0.12174544772846
486,0.123160785775867
487,0.124336726596282
488,0.126221165898833
489,0.12893708557252
490,0.130688333154681
491,0.131188780301403
492,0.13452853561727
493,0.132635555673497
494,0.134670282524526
495,0.132643407284024
496,0.132907393213088
497,0.130350188765767
498,0.131126302854073
499,0.128382175918545
500,0.129195166672871
501,0.12817785750244
502,0.130630644581786
503,0.131484985914206
504,0.129851066136458
505,0.133938592996389
506,0.132787994651225
507,0.132890031401814
508,0.133442309194921
509,0.133174198451074
510,0.130761638531238
511,0.132075638112335
512,0.129825538705883
513,0.125808063818388
514,0.124886880549106
515,0.122507528564575
516,0.121570938148938
517,0.121259127536816
518,0.12060818075424
519,0.122766512223841
520,0.124668027740454
521,0.125531094880833
522,0.126394162021211
523,0.127257229161589
524,0.126324524995741
525,0.126024724831534
526,0.126020165741452
527,0.124908601492357
528,0.125288834860699
529,0.126441055547062
530,0.125991704278052
531,0.126028459027813
532,0.125018882622436
533,0.126520121248503
534,0.126308398710577
535,0.124470444830649
536,0.125882158513187
537,0.124736985923757
538,0.123878088648245
539,0.122742049287615
540,0.123588031229193
541,0.122293199148106
542,0.121582418695728
543,0.122519375411683
544,0.122853189469828
545,0.121821642398588
546,0.122603900255999
547,0.122313593203442
548,0.122023286150885
549,0.121732979098327
550,0.12059812206379
551,0.121854610644774
552,0.122935326503539
553,0.121315956463467
554,0.12059547541755
555,0.122013588951007
556,0.119807902528578
557,0.119518681622904
558,0.118807546447739
559,0.117723591962754
560,0.119234484052027
561,0.116655339745091
562,0.11863299336767
563,0.116664044412744
564,0.117315363874871
565,0.115576420229806
566,0.114661953765457
567,0.113395069630039
568,0.114436702208255
569,0.113085797545191
570,0.113071611123928
571,0.113493648451319
572,0.11368641784965
573,0.113551502575034
574,0.114655645870036
575,0.112979962050036
576,0.113703476431059
577,0.114426990812082
578,0.115150505193105
579,0.115874019574128
580,0.11659753395515
581,0.118560639596961
582,0.11759994190142
583,0.118746110836257
584,0.117336267371148
585,0.117326814180006
586,0.114970125101987
587,0.113783592515093
588,0.113219970499479
589,0.112656348483866
590,0.112092726468252
591,0.112741739386647
592,0.11388668294093
593,0.113715738926017
594,0.11556809845021
595,0.115519100996871
596,0.116581171387865
597,0.116728103147139
598,0.116226218469448
599,0.11650867552919
600,0.117220334440642
601,0.118156056085503
602,0.118606562306804
603,0.118112657642128
604,0.119327440586029
605,0.118610632128395
606,0.118989237228766
607,0.118281807126701
608,0.117246206575514
609,0.116848005629444
610,0.116493499267965
611,0.115602922777689
612,0.11521793877457
613,0.114726929273611
614,0.11374705237478
615,0.115833136405798
616,0.114085542410161
617,0.1155895868458
618,0.115250727309652
619,0.115725341714365
620,0.115243136969629
621,0.116575553518048
622,0.114049447695659
623,0.114250979988893
624,0.113470050259774
625,0.112689120530654
626,0.111908190801535
627,0.111268055360527
628,0.111693491279275
629,0.111525172658191
630,0.112345231266213
631,0.111347552261181
632,0.112454737609888
633,0.112863596597879
634,0.113411171256779
635,0.113934035967849
636,0.113254327677536
637,0.114850077925345
638,0.113981925569553
639,0.11464530188861
640,0.114427474266659
641,0.114188572223264
642,0.113729589552421
643,0.113526914389402
644,0.113324239226384
645,0.113121564063365
646,0.114025686308931
647,0.114173768636156
648,0.112398579693802
649,0.114416241641263
650,0.113126900460608
651,0.113788505005515
652,0.112356816121569
653,0.111058019071088
654,0.108978319667702
655,0.110632379181473
656,0.109710648841846
657,0.111215464698936
658,0.112221957012413
659,0.114989807164914
660,0.115826478154567
661,0.115941279891181
662,0.11649295014039
663,0.116285352029749
664,0.115722842360331
665,0.116119998726168
666,0.116640411291842
667,0.116615550680659
668,0.117125079487844
669,0.114953376596497
670,0.115847220746817
671,0.115736248280833
672,0.115460224077653
673,0.1156353462762
674,0.116199592679484
675,0.116047416689972
676,0.116003945971246
677,0.116972505036029
678,0.115722817350321
679,0.115715554034292
680,0.118108061026349
681,0.116218281581189
682,0.112896961505109
683,0.110488316901563
684,0.106316195638756
685,0.102776459563393
686,0.100329542024043
687,0.0985013920982114
688,0.0986568075438247
689,0.0995365146660734
690,0.101839508181151
691,0.104962122143908
692,0.10659714445512
693,0.108183446417559
694,0.110148781747991
695,0.109982367186502
696,0.111655175990791
697,0.112445876597041
698,0.111285111638505
699,0.11163865825641
700,0.113682164751063
701,0.113351061267194
702,0.114751393806943
703,0.114729992506496
704,0.117147664404351
705,0.116642178661822
706,0.118532041336733
707,0.119540596943514
708,0.119821685114981
709,0.121488930812018
710,0.120440785731487
711,0.12044072257459
712,0.120588320738186
713,0.116497768171719
714,0.114910308212402
715,0.110340126028361
716,0.107778311311313
717,0.105425424548547
718,0.105157557900865
719,0.106133516625658
720,0.107154549178202
721,0.105402349431758
722,0.109312484301087
723,0.108472405076293
724,0.108914414312973
725,0.109270222012666
726,0.10930820824739
727,0.110531313160845
728,0.112118848065591
729,0.114516579116361
730,0.116058476275142
731,0.118783104613917
732,0.121527123817354
733,0.124028388716632
734,0.125543996222983
735,0.12568899677987
736,0.127862197402445
737,0.128368875751266
738,0.128875554100087
739,0.129382232448908
740,0.131231062622753
741,0.13131841920963
742,0.132025233299223
743,0.132732047388815
744,0.133438861478408
745,0.134262452835344
746,0.134266406547833
747,0.135017509008034
748,0.13388418794008
749,0.134511772771535
750,0.134958850792184
751,0.134485524751301
752,0.136880734739132
753,0.13528232418713
754,0.13208266653799
755,0.122103258682409
756,0.112123850826828
757,0.102144442971247
758,0.0875466202331245
759,0.0753681602442604
760,0.0680165592800018
761,0.0681809420492823
762,0.0711093049010164
763,0.0787679529483111
764,0.0882474032794375
765,0.0972124181956376
766,0.107492749498072
767,0.11749963813225
768,0.123599888203388
769,0.127457052658034
770,0.131116683899476
771,0.131801905798956
772,0.134126857849515
773,0.135894127925464
774,0.135267483323364
775,0.136295216516911
776,0.136110951051351
777,0.135051886388767
778,0.13663287993888
779,0.135141932473566
780,0.136771649266263
