"wavelength","measurement"
380,0.00077178343238544
381,0.000746144604979059
382,0.000763735815398109
383,0.000767890807145022
384,0.000780042688846789
385,0.000883078026701258
386,0.000914605902427607
387,0.000964838354424783
388,0.00101831529054409
389,0.00108511266363965
390,0.00110325889744089
391,0.0010873257278253
392,0.00112970274450058
393,0.00118850149745
394,0.00123444790604542
395,0.00131743870286287
396,0.00146250443718218
397,0.00163630053149973
398,0.00181009662581729
399,0.00198389272013485
400,0.00212624909294228
401,0.00226629601614083
402,0.002382866074088
403,0.00242887109176666
404,0.00248060786722455
405,0.0024987195957166
406,0.00261494002279334
407,0.00266783450633655
408,0.00274260137258434
409,0.00281217497045624
410,0.00297262764730293
411,0.00300637259787663
412,0.00308784634819727
413,0.00319593380141213
414,0.00318496170604733
415,0.00323972971521286
416,0.00323557806346086
417,0.003261933527484
418,0.00331837410262988
419,0.00326359027406913
420,0.00336879791149652
421,0.00337183544853059
422,0.00341468316139003
423,0.00346565622009852
424,0.00346661267983795
425,0.00344327815453973
426,0.00338992125163451
427,0.0033224511270346
428,0.00321982179106529
429,0.00324422065152809
430,0.00327535761659803
431,0.00341254996029794
432,0.00357978303077249
433,0.00367498261268045
434,0.00384824705267475
435,0.00392839475735501
436,0.00400470853877129
437,0.0040742584906443
438,0.00414380844251732
439,0.00421335839439033
440,0.00422681019794074
441,0.0043418466855382
442,0.00446668681805804
443,0.00453111304928195
444,0.00461879018729486
445,0.00470646732530778
446,0.00479414446332069
447,0.0048906010722031
448,0.00495455555095958
449,0.00513317080418026
450,0.00513212632783872
451,0.00509014658553852
452,0.00510092602640384
453,0.00511170546726916
454,0.00512248490813447
455,0.00513582883460845
456,0.00514644743501609
457,0.00527483812373419
458,0.00530179576250612
459,0.00543871976365404
460,0.00544265353746503
461,0.00540335429060687
462,0.00554422583466406
463,0.00540056826366122
464,0.00538173506694702
465,0.00533292106176776
466,0.0052810574554515
467,0.00527906399860205
468,0.00529064553324273
469,0.00523050126299816
470,0.00537001586284567
471,0.00537061887456009
472,0.00541853365371042
473,0.00549302350554164
474,0.00552477552135055
475,0.00558975743742536
476,0.00548879491333411
477,0.00550229065153855
478,0.00551578638974299
479,0.00552928212794744
480,0.0054971436047124
481,0.00537102524365379
482,0.00527605300362798
483,0.00528174481589435
484,0.00518905674463827
485,0.005095337115899
486,0.00518209595744026
487,0.00524200704689576
488,0.00531230505563255
489,0.00545529103583839
490,0.00553246699372837
491,0.00555725021483805
492,0.00571321018783317
493,0.00564541073844476
494,0.00575671779859149
495,0.00567305014954295
496,0.00569109890263195
497,0.00558081099759037
498,0.00564105899510819
499,0.00552832552293349
500,0.00559442676627377
501,0.00554312404079033
502,0.00567171905267391
503,0.00572187958241851
504,0.00567332520602238
505,0.00585523409824656
506,0.00583579738971946
507,0.00586344615054893
508,0.00589901085926049
509,0.0058939317263532
510,0.00577879928360615
511,0.00588366506159585
512,0.00581346810769612
513,0.00565795014416176
514,0.00562127099068104
515,0.00553351940145428
516,0.00551407051646354
517,0.00553332382141376
518,0.00552558987390148
519,0.00561216872478764
520,0.005732515375705
521,0.00578448052961759
522,0.00583644568353019
523,0.00588841083744278
524,0.00586374746516787
525,0.00589557014763841
526,0.00588820631593578
527,0.00584740051297096
528,0.00589787589682391
529,0.0059650737328482
530,0.0059679565789163
531,0.00598147754546143
532,0.00595468722548331
533,0.00602570795192265
534,0.00604954472464465
535,0.00598025550341801
536,0.00602034759808909
537,0.00599822786823086
538,0.00595028171969902
539,0.00593409807978255
540,0.00596497780207772
541,0.00592535644592627
542,0.00590209478209119
543,0.00594477286711364
544,0.0059604665943165
545,0.00590799935260805
546,0.00595886416464921
547,0.00594505957649455
548,0.00593125498833988
549,0.00591745040018522
550,0.00591048697730351
551,0.00595520371163361
552,0.00598142288825176
553,0.00593729916798334
554,0.00591905312124714
555,0.00598025364876929
556,0.00590294681620372
557,0.00589257023323434
558,0.00586581384105186
559,0.00580518672389472
560,0.00588794248978952
561,0.00578501331955459
562,0.00589562788213174
563,0.0057922210517749
564,0.00581805319052558
565,0.00573762800954967
566,0.00572023294734748
567,0.00565324674430559
568,0.00568363438958872
569,0.00562370306915102
570,0.00561595958551724
571,0.00563083926412065
572,0.00563689403051626
573,0.00561929815567697
574,0.00566200266624865
575,0.00558382439999311
576,0.00560589256773596
577,0.00562796073547881
578,0.00565002890322165
579,0.0056720970709645
580,0.00569416523870735
581,0.00577913933980886
582,0.00574543036891261
583,0.0057858768850711
584,0.00568348016608547
585,0.0056786988484847
586,0.00554741849522962
587,0.0054790096062189
588,0.00542861343607602
589,0.00537821726593314
590,0.00532782109579027
591,0.00535080174871306
592,0.00538738182016484
593,0.00538042238153336
594,0.00545284062057909
595,0.00543038253623978
596,0.00547491481371244
597,0.00545505202977765
598,0.00545979770287794
599,0.00544449297118803
600,0.00547955239240004
601,0.00551767635213769
602,0.00553665203259587
603,0.00550776574222425
604,0.00552842186802842
605,0.00549235256692231
606,0.00550238520118324
607,0.00547678120136221
608,0.00539019966957718
609,0.00539462252090503
610,0.00535851755899385
611,0.00530611111756543
612,0.00526671898477639
613,0.00523946311672824
614,0.00516574567453281
615,0.00521656777044414
616,0.00518145356046089
617,0.00523017951217855
618,0.00519646988897534
619,0.00522130684696408
620,0.005188814648008
621,0.00520597068604752
622,0.0050866308352514
623,0.00509055624397742
624,0.00503936953552283
625,0.00498818282706824
626,0.00493699611861364
627,0.00491286617895705
628,0.00489026144980977
629,0.00488201599918706
630,0.00492937539088389
631,0.0048609534848734
632,0.00489603213482931
633,0.00490683557292139
634,0.00492390449571269
635,0.00493801850226281
636,0.00491402524165974
637,0.00493271504993683
638,0.00489586776586826
639,0.00492714870583679
640,0.00490191540770404
641,0.00487535026270018
642,0.0048695846492932
643,0.00483691119126322
644,0.00480423773323324
645,0.00477156427520326
646,0.0047873902285057
647,0.00478970996438105
648,0.00469576759904414
649,0.00479790646766859
650,0.00471333717324758
651,0.00473564974585879
652,0.00467550158244156
653,0.00459780170006267
654,0.00449460170896096
655,0.00455508126104798
656,0.00452315850624988
657,0.00453273197003437
658,0.00458646790679145
659,0.00468853113922755
660,0.004720991618624
661,0.00471030467468104
662,0.00471303149866432
663,0.00468946779367687
664,0.00465725121207933
665,0.00464835777360444
666,0.00464922812900359
667,0.00467491699074544
668,0.00465891902469265
669,0.00458270139827974
670,0.00458093444280891
671,0.00455633078461279
672,0.00454994747291146
673,0.00458029546051166
674,0.00457871292926311
675,0.00456297086079482
676,0.00454869703739034
677,0.00457744893866111
678,0.00450494142132915
679,0.0044777320974474
680,0.00458590736662818
681,0.00451492556570607
682,0.0043676421307902
683,0.00425397918098019
684,0.00407726868368172
685,0.00392681201821828
686,0.00379952177137634
687,0.00376962322461243
688,0.00373794906685832
689,0.00377412202822316
690,0.00385967898684627
691,0.00397262962750314
692,0.00404962337092402
693,0.00405562514612603
694,0.00415461828747792
695,0.00415298469726166
696,0.00423971414691889
697,0.00423015912227833
698,0.00417187530989279
699,0.00419521254884362
700,0.00426793005748312
701,0.00424492346722802
702,0.00427606375105781
703,0.00428965906616732
704,0.00436444628452821
705,0.00433758906211646
706,0.00438959845498208
707,0.00442973197504269
708,0.00440909771292563
709,0.00445671459162098
710,0.00439993601885289
711,0.00439658111250755
712,0.00438611157258864
713,0.00424028820665423
714,0.00414852296564234
715,0.00398011753483815
716,0.00382555497836247
717,0.00375429806029982
718,0.00369890453448666
719,0.00372181774915424
720,0.00374491895232488
721,0.0036794544629252
722,0.00377119469206582
723,0.00376989777944494
724,0.003754224203702
725,0.00375201460107486
726,0.00371444662799369
727,0.00377918750959945
728,0.00382098248996057
729,0.00384472246613478
730,0.00390893927148631
731,0.00400840419407943
732,0.00405480642933836
733,0.00415153481151197
734,0.00417380374006496
735,0.00417989808662388
736,0.00421315130506197
737,0.00422388166304082
738,0.00423461202101967
739,0.00424534237899852
740,0.00426887560275837
741,0.00426959235592804
742,0.00427759434818268
743,0.00428559634043732
744,0.00429359833269196
745,0.0042987432930313
746,0.00425440957266287
747,0.00425397927260793
748,0.00416696348801183
749,0.00421725606019682
750,0.00416729453902019
751,0.00418029042211615
752,0.00419559420078009
753,0.00409779220326253
754,0.0040193185155459
755,0.00369788867266149
756,0.00337645882977708
757,0.00305502898689267
758,0.00258950504066532
759,0.002227348982401
760,0.00200868705022076
761,0.00197040346831706
762,0.00207718592781082
763,0.00223620857566458
764,0.00254510524108538
765,0.00278700453832672
766,0.00307635038225778
767,0.00334133989822383
768,0.00350695387006829
769,0.00363424244738507
770,0.00369308826561078
771,0.003758815993329
772,0.00376084979803276
773,0.00383229461604529
774,0.00377910807795061
775,0.00377555259314492
776,0.00378770773573428
777,0.00373650019383017
778,0.00378309989545677
779,0.00371659864242628
780,0.00374855768204692
