"wavelength","measurement"
380,0.00343751595541772
381,0.00342892296592238
382,0.00342237565391677
383,0.00328965112266842
384,0.00338091259467509
385,0.00366033691416036
386,0.00383715037197352
387,0.00397434359112605
388,0.00429014288543157
389,0.00432672264697248
390,0.00433809172313236
391,0.00437043286011574
392,0.00447594284966465
393,0.00456870255851774
394,0.00474000164191218
395,0.00519800210141544
396,0.00581721321003439
397,0.00652042748297879
398,0.00722364175592318
399,0.00792685602886758
400,0.00828595484137483
401,0.00887450332996498
402,0.00926108627789148
403,0.00948178485354282
404,0.00951487728927193
405,0.00966947357483222
406,0.00991666078098186
407,0.0101306695945522
408,0.0102944312440595
409,0.0105595675434146
410,0.0111170641304299
411,0.0112562013087366
412,0.0116405981159863
413,0.0118848240101872
414,0.0118848319100503
415,0.0120322257552283
416,0.0120320804391133
417,0.0119854967411559
418,0.0122492759821324
419,0.0120097581932265
420,0.012397318935142
421,0.0124610722663403
422,0.0125965177544582
423,0.0128934620474287
424,0.0128125954752764
425,0.0126794943328816
426,0.0126325851888932
427,0.0124013063594787
428,0.0121359630623598
429,0.0122361634949779
430,0.0123935790227098
431,0.0130233499221937
432,0.0136287864867548
433,0.014194239475899
434,0.0150439878954888
435,0.0154498512478864
436,0.0159299670609178
437,0.0163210400626422
438,0.0167121130643666
439,0.0171031860660909
440,0.0175738259581955
441,0.018114305104171
442,0.0187683255507843
443,0.019352318473394
444,0.0200781265714492
445,0.0208039346695043
446,0.0215297427675595
447,0.022199076116623
448,0.0225516567277761
449,0.0236265513403591
450,0.0237348937019448
451,0.0237285442817748
452,0.0236663699258265
453,0.0236041955698781
454,0.0235420212139298
455,0.0232704065842721
456,0.0231230428410622
457,0.023215109383463
458,0.0230403313927296
459,0.0231339000876509
460,0.0229500526437226
461,0.022489195844141
462,0.0228775198376489
463,0.0221072918016193
464,0.0217910228523283
465,0.0214863855007789
466,0.0211574483964444
467,0.0210077400919767
468,0.0206849251901352
469,0.0205124955921809
470,0.0207482125586574
471,0.0206678495782878
472,0.0207297217432521
473,0.0208845670370207
474,0.0207983674115561
475,0.0210228854125222
476,0.0204572642855659
477,0.020440938774096
478,0.0204246132626262
479,0.0204082877511563
480,0.0202952066658321
481,0.019760085702747
482,0.0194047193825854
483,0.0194776006419895
484,0.019084490175577
485,0.0188231834220681
486,0.0191147726438042
487,0.0193224604818761
488,0.0195908514470928
489,0.0201244049796089
490,0.0203946911338156
491,0.0205572148879994
492,0.0210969784616673
493,0.0209490342174993
494,0.0212942292374724
495,0.0210716040397667
496,0.0211773802676442
497,0.0210221895369969
498,0.0211647357971538
499,0.0208057597801188
500,0.0210919174428961
501,0.0210339473215346
502,0.0215233698928502
503,0.0217721394368698
504,0.0215484159475696
505,0.0222979622352364
506,0.022242083095146
507,0.0223689496370987
508,0.022641390522563
509,0.0226050358934415
510,0.0222712486888113
511,0.022645868985629
512,0.0223931360716489
513,0.0218128927566058
514,0.0217976415851
515,0.0215273641210771
516,0.0214521904092158
517,0.0214503180555495
518,0.0214567906922609
519,0.0218314472828784
520,0.0222149057390499
521,0.0224207458984792
522,0.0226265860579085
523,0.0228324262173378
524,0.0227101588223942
525,0.0227315675706768
526,0.0227573292371652
527,0.0226428784737138
528,0.022774892509453
529,0.0229984460373711
530,0.0230030627952266
531,0.0230368523479239
532,0.0229564351324418
533,0.0231865342570557
534,0.0233496457561012
535,0.0230516678195147
536,0.0233046607278172
537,0.0232595851577874
538,0.0231524270668492
539,0.0231017743684144
540,0.023304980577355
541,0.0232834482358953
542,0.0232130372590836
543,0.0233783651586079
544,0.0235626510444518
545,0.02339448913525
546,0.0234563697523042
547,0.023378166301217
548,0.0232999628501298
549,0.0232217593990426
550,0.0231562037812361
551,0.0233295815827723
552,0.0235554789412605
553,0.0233133516671932
554,0.023283721743137
555,0.0235364237802758
556,0.0232565386575253
557,0.0233262595450995
558,0.0232538118014833
559,0.023176142830466
560,0.0235194083352138
561,0.0231280403995102
562,0.0235372295015227
563,0.0232723412889598
564,0.0234328505321851
565,0.0231699162718373
566,0.0231425521388494
567,0.0229710574239068
568,0.0232631798069713
569,0.0230821510763785
570,0.0231308950073787
571,0.0232566660850658
572,0.0233696923715392
573,0.0233783879998683
574,0.0236313762865509
575,0.0234552887525217
576,0.0236308047709158
577,0.0238063207893099
578,0.0239818368077041
579,0.0241573528260982
580,0.0243328688444923
581,0.0247322441223001
582,0.0246337978455485
583,0.0248830326865514
584,0.024672852964081
585,0.0247794282345143
586,0.0242445336683984
587,0.0242451663108817
588,0.0241555208777827
589,0.0240658754446837
590,0.0239762300115846
591,0.0241647066574205
592,0.024410253477921
593,0.0244642374846214
594,0.0248422554442373
595,0.0248718168249082
596,0.0250288009482687
597,0.0251211541650145
598,0.0251380699318039
599,0.0252233701687695
600,0.0254792776836614
601,0.0256121537420722
602,0.0258090779034201
603,0.0256448004009129
604,0.0259623631065852
605,0.0258314726692993
606,0.0259746593088831
607,0.0259860093545726
608,0.0257909830412353
609,0.0258849290436412
610,0.0258259392466371
611,0.025656910500412
612,0.0255580844657272
613,0.0254062848427231
614,0.0250512042841686
615,0.0253370683997311
616,0.0251006015931284
617,0.025286046371126
618,0.0252152874584269
619,0.0253238142253528
620,0.0251854135634638
621,0.025347039391412
622,0.0248372930489262
623,0.0247927573235181
624,0.0246148678762213
625,0.0244369784289244
626,0.0242590889816276
627,0.0241732985821719
628,0.024083768047216
629,0.0240349658976591
630,0.0242160932045162
631,0.0238792260414688
632,0.0240163232193829
633,0.0240658373200688
634,0.0240809419806785
635,0.0241914061335259
636,0.0239116833028712
637,0.0241541593675484
638,0.0239710473545289
639,0.0241193871514252
640,0.0239586493405101
641,0.0238896440299587
642,0.0237928501302966
643,0.023668097832577
644,0.0235433455348574
645,0.0234185932371378
646,0.0236431968936386
647,0.0235832538679713
648,0.0232280481232614
649,0.0235450322094907
650,0.0233012792054572
651,0.0233768196792404
652,0.0231353125512855
653,0.0227947395660218
654,0.0223138214889221
655,0.0225686931056513
656,0.0224178143638979
657,0.0225813168903747
658,0.0227018007892132
659,0.0232075845673811
660,0.0233508093326218
661,0.0233441390609581
662,0.0233884239636407
663,0.023280548812168
664,0.0231198798180237
665,0.0231240324968915
666,0.0231715753705252
667,0.0232240170543855
668,0.0232342497985535
669,0.0228370192946375
670,0.0229104347306677
671,0.0228279101242986
672,0.0227354565162069
673,0.0227848229016702
674,0.0228379847044969
675,0.0228264473061889
676,0.0227449887564476
677,0.0229078930579532
678,0.0226381540795405
679,0.022583723027783
680,0.0230432058532423
681,0.0226806595872238
682,0.0219823779260888
683,0.0215011459622001
684,0.020617920974535
685,0.0199383701420856
686,0.0194160230052926
687,0.0190402929665004
688,0.0190050290471823
689,0.0191537027968263
690,0.0195893725640207
691,0.0201559233872775
692,0.0202742382695
693,0.0206000816889716
694,0.0208342295556174
695,0.0208123305348574
696,0.0210831366534579
697,0.0210891299244179
698,0.0208187563862121
699,0.0208334266115024
700,0.0211636450810099
701,0.0209971480802072
702,0.0212382799800381
703,0.0211569463506101
704,0.0215779367974315
705,0.0214424439259705
706,0.0216960048826904
707,0.0217596045767845
708,0.0217521327891997
709,0.0219628601002807
710,0.0216457014728215
711,0.0215712222588732
712,0.0215641641050925
713,0.0208311989440011
714,0.0204493321383492
715,0.0195555603228136
716,0.0189577076052196
717,0.0185058351235533
718,0.0183656779092861
719,0.0184915482284442
720,0.018644154001313
721,0.0183818017022193
722,0.0188861194705746
723,0.0187215664465898
724,0.0186911961939866
725,0.0186601481173344
726,0.0185779042236688
727,0.0188830159021096
728,0.0190191157189126
729,0.0193719677108769
730,0.0196278603071672
731,0.020036322120495
732,0.0204181564390219
733,0.0208206668862103
734,0.0210826961747012
735,0.0210493817325179
736,0.0213817829432759
737,0.0214254308872971
738,0.0214690788313183
739,0.0215127267753394
740,0.02182427217517
741,0.021945558601324
742,0.0220268671892755
743,0.0221081757772271
744,0.0221894843651786
745,0.0222596584472483
746,0.0223256065369971
747,0.0224169145339847
748,0.0221555879487513
749,0.0224470156850973
750,0.0223421268271422
751,0.0224070442357762
752,0.0226810493641564
753,0.0224767378761009
754,0.02206480460159
755,0.0203734145852011
756,0.0186820245688122
757,0.0169906345524233
758,0.014521673039635
759,0.0124158429390765
760,0.011293456881085
761,0.0111935966780929
762,0.0118281394139531
763,0.0131242005567488
764,0.0147832836908279
765,0.0163493185842852
766,0.0182537825702631
767,0.0199469798139143
768,0.020923451935176
769,0.0216708719242842
770,0.0222687264803281
771,0.0225434388990789
772,0.022830112253737
773,0.0231360063137302
774,0.0231138013149853
775,0.0232147081776788
776,0.0233071396376984
777,0.0231171933288659
778,0.0233435581728698
779,0.0231250584595074
780,0.0235289458461255
