"wavelength","measurement"
380,0.0201062495772107
381,0.0193313854322208
382,0.0191822754762048
383,0.0187423858881777
384,0.0203267808253527
385,0.020957821260296
386,0.0225789525863502
387,0.0239480785102988
388,0.0249605599785329
389,0.0261408376652849
390,0.026742150210202
391,0.0272599662503579
392,0.0279464590640516
393,0.0286816493358157
394,0.030422022285525
395,0.0335505793733993
396,0.0378698658883363
397,0.043251360616651
398,0.0486328553449656
399,0.0540143500732803
400,0.0571735525899379
401,0.0617103014024212
402,0.0651501319592034
403,0.0672541142291997
404,0.0688787960116732
405,0.070000202362982
406,0.0730975308607664
407,0.0745405729442289
408,0.0767036538687031
409,0.0792457354092769
410,0.0845415825115847
411,0.0854524284023317
412,0.0880494064428398
413,0.0905914959408569
414,0.09079567048113
415,0.092058735647847
416,0.0920359987036415
417,0.0911627912725928
418,0.0933866356064289
419,0.0916542828582451
420,0.0934902332609146
421,0.0942193082842052
422,0.094755366065694
423,0.0950701534977885
424,0.0952147605528314
425,0.0934692966175358
426,0.0920250010343642
427,0.0896643717583557
428,0.0869112192314206
429,0.0873153190998404
430,0.0871044507269963
431,0.0909765964361138
432,0.0942436929541002
433,0.0976214895411558
434,0.101596320772024
435,0.103809648979571
436,0.104636178581598
437,0.106412325435342
438,0.108188472289085
439,0.109964619142829
440,0.110700990205544
441,0.1126401463624
442,0.115089550911718
443,0.116790405287883
444,0.11853181753101
445,0.120273229774138
446,0.122014642017266
447,0.123832017339442
448,0.124429684401492
449,0.128800831467713
450,0.127803348023508
451,0.126476541735925
452,0.126058396959099
453,0.125640252182273
454,0.125222107405448
455,0.125608479931838
456,0.125924322517419
457,0.127492602137789
458,0.128116594564095
459,0.129930488338815
460,0.130646859952182
461,0.129562858331979
462,0.132426590464597
463,0.129299092978729
464,0.127918354241403
465,0.126974359526331
466,0.126058991600164
467,0.125755802980941
468,0.125386678782237
469,0.124806778144435
470,0.127651843602291
471,0.128451043900165
472,0.129832785063261
473,0.131711909119227
474,0.132089768681903
475,0.134780804406591
476,0.131960959472224
477,0.132342695967753
478,0.132724432463282
479,0.133106168958811
480,0.132815529474633
481,0.129487028285999
482,0.127507415784113
483,0.127465529868231
484,0.124503172105765
485,0.122107140145018
486,0.124090420422831
487,0.1252153251708
488,0.126988492103741
489,0.130204977237753
490,0.131059088479171
491,0.132352128119583
492,0.135346760577837
493,0.133545279386367
494,0.135596987746703
495,0.133276163037821
496,0.134003181172138
497,0.131088037633766
498,0.131638402924492
499,0.128983852306252
500,0.129846689054204
501,0.129175052008533
502,0.131393839840024
503,0.132025922509864
504,0.130229145022913
505,0.134263576058597
506,0.133444597753672
507,0.133768813065382
508,0.134391625914665
509,0.133761181942589
510,0.131276576481919
511,0.132385974050612
512,0.130906908402314
513,0.126728589785157
514,0.125560556705384
515,0.123300121058264
516,0.122282239104813
517,0.121777555622496
518,0.121109570115286
519,0.123572104040018
520,0.12525945114141
521,0.126148860218732
522,0.127038269296054
523,0.127927678373376
524,0.126690336915905
525,0.12658827292476
526,0.126465072130841
527,0.125597474039712
528,0.126115481917526
529,0.126811810871552
530,0.126228987685726
531,0.126325063287406
532,0.125691185610845
533,0.126974914446545
534,0.127099343402823
535,0.125557993782488
536,0.126279461749801
537,0.125382603683255
538,0.124255526723029
539,0.123457195113521
540,0.124156110776385
541,0.122919363696134
542,0.122377025168957
543,0.123068184836453
544,0.123132583358802
545,0.121947744981177
546,0.123127901114613
547,0.12284972371156
548,0.122571546308508
549,0.122293368905455
550,0.121660267410062
551,0.122360394142998
552,0.123150639225318
553,0.121783806199325
554,0.121222646955348
555,0.122574985747905
556,0.120553074958542
557,0.120124591944872
558,0.119627693843321
559,0.11871685005429
560,0.119535207815225
561,0.117307869116195
562,0.119101975967019
563,0.117217705697317
564,0.117824259886931
565,0.116080647471113
566,0.1148216074163
567,0.113938844105958
568,0.114885728101249
569,0.113764325561271
570,0.113674706451766
571,0.113913288551927
572,0.114409390732406
573,0.114217763624822
574,0.115279292943639
575,0.113770906742282
576,0.11443705016976
577,0.115103193597238
578,0.115769337024715
579,0.116435480452193
580,0.117101623879671
581,0.118956111943085
582,0.118584411718598
583,0.119635923615034
584,0.117846719640126
585,0.11782115461266
586,0.115464465534641
587,0.114449075436422
588,0.113846943690808
589,0.113244811945194
590,0.11264268019958
591,0.113290045316532
592,0.114352415709658
593,0.114757332526523
594,0.11637735204737
595,0.116077980319344
596,0.116621817156773
597,0.117326621248749
598,0.116846066445282
599,0.11710820062057
600,0.118150976077376
601,0.118611261233905
602,0.119375353224106
603,0.118838239543834
604,0.120140355964171
605,0.118963078547973
606,0.119522941806983
607,0.118860826244578
608,0.117759771358327
609,0.117581506132526
610,0.117099615565114
611,0.116222507563015
612,0.115512620599146
613,0.115082579751548
614,0.114104304881897
615,0.115812172709673
616,0.114575671794685
617,0.115706477760605
618,0.115804388594224
619,0.11621750796456
620,0.115964050100583
621,0.11650912652241
622,0.114442539884143
623,0.114666592130421
624,0.113848022344284
625,0.113029452558148
626,0.112210882772011
627,0.112059343344741
628,0.111724250239529
629,0.111895241398748
630,0.113140295462065
631,0.111613717966355
632,0.112648079645771
633,0.113317840528773
634,0.114221340299184
635,0.114483303115242
636,0.113646870598873
637,0.114906240491166
638,0.11456776475451
639,0.115139642321265
640,0.114685584053671
641,0.114358845038956
642,0.114295334714236
643,0.113999055274849
644,0.113702775835462
645,0.113406496396076
646,0.114371724611788
647,0.114752238486885
648,0.112663234914321
649,0.114858035516816
650,0.113834631180024
651,0.114485525015557
652,0.1128587089775
653,0.11139461684485
654,0.109710767408751
655,0.111055864152113
656,0.11012397237026
657,0.111630390256529
658,0.112304438629046
659,0.115180952132207
660,0.116090309474365
661,0.116182041990789
662,0.117066934309416
663,0.116527945019848
664,0.115978251583869
665,0.116351560601057
666,0.116726600461721
667,0.117297786249984
668,0.117311830317957
669,0.115328251424593
670,0.115822412180659
671,0.116088877789459
672,0.1157767850436
673,0.116142960664916
674,0.116709838973281
675,0.116495344048671
676,0.116324489124012
677,0.117165984388699
678,0.116084235133306
679,0.115974625038813
680,0.118502160204604
681,0.117063237542929
682,0.11319713600116
683,0.11065849817273
684,0.106500200133133
685,0.102987286603467
686,0.100495809766785
687,0.0985944471074323
688,0.0989773049243287
689,0.0998582021253968
690,0.102135471629072
691,0.105371051535143
692,0.10659714445512
693,0.108456249100764
694,0.109844762381909
695,0.110257000760199
696,0.11201448824971
697,0.112543829238326
698,0.111187387858532
699,0.111464151506457
700,0.113667929577493
701,0.11336520489624
702,0.114966809516311
703,0.115129126633602
704,0.116873534325539
705,0.117000346614185
706,0.118675766240301
707,0.119540596943514
708,0.11950384252569
709,0.121224733314122
710,0.120131021946489
711,0.119998837154512
712,0.120187081087015
713,0.116290877546201
714,0.114865130989529
715,0.110564638974858
716,0.107285755996888
717,0.105289252068256
718,0.104750550944646
719,0.105366831232421
720,0.106693164774392
721,0.106090306533868
722,0.108538017623263
723,0.108503347125596
724,0.108488160120465
725,0.108970596783763
726,0.108833916065615
727,0.110530969868878
728,0.111653389930438
729,0.114419908098419
730,0.115832819022088
731,0.118701492670267
732,0.120806668409023
733,0.124226307978743
734,0.125212605044055
735,0.125522385745161
736,0.127443381202557
737,0.128032937860952
738,0.128622494519346
739,0.129212051177741
740,0.130939951034635
741,0.131128693182468
742,0.131962662616682
743,0.132796632050896
744,0.13363060148511
745,0.134035010464061
746,0.134443888494835
747,0.135018058275181
748,0.133580443207572
749,0.13483611502207
750,0.134235649048116
751,0.134030090741587
752,0.137155368312829
753,0.135207623855085
754,0.132249552206273
755,0.122316130216865
756,0.112382708227458
757,0.10244928623805
758,0.0870325061831643
759,0.0752243209100368
760,0.0683264374956561
761,0.0680442660741059
762,0.0709721254309549
763,0.07844119621094
764,0.0881477112921855
765,0.0970316177596206
766,0.108019679781471
767,0.116880339423564
768,0.123187937842843
769,0.127664401006175
770,0.130905948403926
771,0.131969249189862
772,0.134317682410972
773,0.135506894586552
774,0.135311058517057
775,0.135706539451692
776,0.135782901247571
777,0.134175988377723
778,0.136320896199161
779,0.135053500462835
780,0.136703952090346
