"wavelength","measurement"
380,0.00444797226546631
381,0.00448375028604624
382,0.00449082675032287
383,0.00448008595479607
384,0.00460367832426874
385,0.005050524214974
386,0.00537021102229118
387,0.00573653396268825
388,0.00602392696692908
389,0.00626685716364335
390,0.00632334024230724
391,0.0063128825542438
392,0.00644976932654295
393,0.00653666442187248
394,0.006729807394451
395,0.00722969205628013
396,0.0080919091991493
397,0.00900282400002141
398,0.00991373880089353
399,0.0108246536017656
400,0.0112920513707288
401,0.0120749959727398
402,0.0126283891292182
403,0.0127471580997333
404,0.0127856435546121
405,0.0128104383335908
406,0.0131560305603192
407,0.0131839127901867
408,0.0133156855417749
409,0.0135616983804462
410,0.0142582832712937
411,0.0142131210721522
412,0.0146740517856098
413,0.0149638128628513
414,0.0150007775022934
415,0.0151349463234081
416,0.0150443334417667
417,0.0148430814568884
418,0.0152455735206577
419,0.0148156390334341
420,0.0152060148480819
421,0.0152438054402369
422,0.0153380600860456
423,0.0154544590752921
424,0.0155131010912387
425,0.0152795198156577
426,0.0151646420515647
427,0.0148138509673304
428,0.0143572389707732
429,0.014389058352574
430,0.0143560208649915
431,0.0150452927112767
432,0.0155190355872592
433,0.0161090202996964
434,0.0168823824213387
435,0.0172020115988453
436,0.0174046915009915
437,0.0177380731473257
438,0.0180714547936599
439,0.0184048364399941
440,0.0185709948547033
441,0.0188832535172882
442,0.0194365280700314
443,0.0196636857094104
444,0.0200739648648896
445,0.0204842440203687
446,0.0208945231758478
447,0.0211980101588505
448,0.0214206032371019
449,0.0221722889267869
450,0.0222401130081246
451,0.0221522298129456
452,0.0221479640575643
453,0.022143698302183
454,0.0221394325468017
455,0.0222277348709645
456,0.0222816604085089
457,0.0225528449627072
458,0.0228452595357486
459,0.0232436691032853
460,0.0233462889741648
461,0.0230917014845105
462,0.0238597238006392
463,0.0232388043725991
464,0.0230800495104533
465,0.0229186462207463
466,0.022682212476601
467,0.0226027925342235
468,0.022591912683642
469,0.0223725490972675
470,0.0228592732083034
471,0.0228457387402034
472,0.0231013608069666
473,0.0234010804699752
474,0.0234857330829158
475,0.0238267008049817
476,0.0233268073275209
477,0.0233749439126605
478,0.0234230804978
479,0.0234712170829395
480,0.0234151693866468
481,0.0228670509655608
482,0.0224769268085554
483,0.0224805743293558
484,0.0219611869731323
485,0.0214678481300998
486,0.0216937382702569
487,0.0218922379665997
488,0.022142334164065
489,0.0227922465633716
490,0.0231171710302394
491,0.0232802425703747
492,0.0238802895273795
493,0.0236117499881669
494,0.0240050096388767
495,0.0236880148245303
496,0.0238504750912269
497,0.0234692478290955
498,0.0236725438501242
499,0.0231466727104278
500,0.023329909865587
501,0.0231351206226015
502,0.0235741513715568
503,0.0237619651061345
504,0.0235512509007348
505,0.0243356066816053
506,0.0241588256329358
507,0.0242836594841658
508,0.0244735211294776
509,0.0244084950115016
510,0.0240334370364985
511,0.0243771356282055
512,0.0241033073697964
513,0.023467924251499
514,0.0232747606336517
515,0.0228979753546964
516,0.0227261634173571
517,0.0226290908398867
518,0.0225978483896417
519,0.0229832278827328
520,0.023403516243401
521,0.0236528676689317
522,0.0239022190944624
523,0.0241515705199931
524,0.0240167231974855
525,0.0240527658663668
526,0.0240563225181812
527,0.0239190279173059
528,0.0239946022922051
529,0.0242756862873625
530,0.0242544272934675
531,0.0242793711033479
532,0.0242415796819179
533,0.0244627218353372
534,0.0244843548631204
535,0.0242355177386988
536,0.0244726724525141
537,0.0242811291848413
538,0.0241809913703279
539,0.0239519035801339
540,0.0240937241515344
541,0.0239178245143206
542,0.0238425814730719
543,0.0238740095208078
544,0.0240360315151656
545,0.0238239946726088
546,0.0239953563171856
547,0.023922448673104
548,0.0238495410290223
549,0.0237766333849407
550,0.0236463192439047
551,0.0239182731078099
552,0.0240150506069417
553,0.0237869848800088
554,0.0237299396763203
555,0.0239893323899128
556,0.0236093324666559
557,0.0235922124224105
558,0.0234181069463043
559,0.0232748466233152
560,0.0235566005385822
561,0.0230909327360426
562,0.0235512313999383
563,0.0231733681569083
564,0.0232412595688407
565,0.0230261477809273
566,0.0228274667071971
567,0.0226185761988735
568,0.0227828683999401
569,0.0224740633501326
570,0.0224769131701996
571,0.0225104934855963
572,0.0224590999914727
573,0.0224705847149704
574,0.0226478940774942
575,0.0222610923120725
576,0.0223451731308962
577,0.02242925394972
578,0.0225133347685438
579,0.0225974155873676
580,0.0226814964061914
581,0.0229728859052564
582,0.0228740884917374
583,0.0230289246755249
584,0.0226613240823023
585,0.0226558828916976
586,0.0220766488426527
587,0.0218999627229976
588,0.0216857221216201
589,0.0214714815202425
590,0.021257240918865
591,0.021277737783366
592,0.0215137699240217
593,0.021507892270166
594,0.02167399733217
595,0.0216552225728663
596,0.0216721969508665
597,0.0217213685247563
598,0.0216611335524732
599,0.0216031744308429
600,0.0217122490671464
601,0.0217670723671634
602,0.021845526155514
603,0.0217067245236765
604,0.0218290956887324
605,0.0217130179067683
606,0.0217727969135653
607,0.021619924631947
608,0.0213449660549743
609,0.0213136701623363
610,0.0211532418277164
611,0.0209688956398691
612,0.0207999542169128
613,0.0207129205355895
614,0.0204553496973988
615,0.020688354662474
616,0.0204185726656271
617,0.0206341726316039
618,0.020521800715032
619,0.0205919205253385
620,0.0204681925196358
621,0.0206003920264173
622,0.0201678569095061
623,0.0201537433569881
624,0.0199368140443088
625,0.0197198847316294
626,0.01950295541895
627,0.019482161875896
628,0.0193568357782348
629,0.0193289610648052
630,0.0194156193351593
631,0.0191558825336794
632,0.0192827855277019
633,0.0193214364685349
634,0.0193341874049377
635,0.0195052555650227
636,0.0192928682389102
637,0.0194125996869431
638,0.0193061036967489
639,0.0193936044057579
640,0.0192613716212065
641,0.0192349961666108
642,0.0190789255181127
643,0.0189911660883659
644,0.018903406658619
645,0.0188156472288722
646,0.0189154691585616
647,0.0188240434904869
648,0.0185276973069108
649,0.0187902973191402
650,0.0185297861242686
651,0.0186521887640526
652,0.0183831610188743
653,0.0180447474624333
654,0.0176237083906855
655,0.0177842800071876
656,0.0176476848378976
657,0.0176014335209879
658,0.01779669020186
659,0.0181840311876225
660,0.018311685398473
661,0.0183036863033113
662,0.0184220916644503
663,0.018274445350802
664,0.0180816526433162
665,0.0181537429910199
666,0.0180924835573626
667,0.0181272600065175
668,0.0181067434553836
669,0.0177618133550366
670,0.0177961158899403
671,0.0177486771389852
672,0.0176162813630666
673,0.0176213551475562
674,0.0176731894534822
675,0.0175358116897516
676,0.0175382757698755
677,0.0175439082210611
678,0.0173046457471297
679,0.0173175036295173
680,0.0175968412367356
681,0.0173799258971406
682,0.0168492485107164
683,0.0163577395715566
684,0.015702247748719
685,0.0151627456207769
686,0.014641126635132
687,0.0142976851669916
688,0.0140677539124754
689,0.014197144880118
690,0.0144492845099508
691,0.014846132156952
692,0.0150775384728089
693,0.0151449523588037
694,0.0153654886493094
695,0.0153159303027304
696,0.0155276432942991
697,0.0154956864329565
698,0.0152709004327671
699,0.0152271724875151
700,0.0154736889362488
701,0.0152898079414881
702,0.0154314368359208
703,0.015330173549542
704,0.0155210474285855
705,0.0154037201481549
706,0.0155070615150845
707,0.0156236990815625
708,0.0155660510257287
709,0.0156481365936533
710,0.0153949924173808
711,0.0153278298264244
712,0.0153139660378135
713,0.0148574922460827
714,0.014598526834989
715,0.0139851009916586
716,0.0134837989840359
717,0.0131517311180629
718,0.0129342463963655
719,0.0128502576367328
720,0.0128739227015177
721,0.0127122798458711
722,0.0130332089039337
723,0.0129603907413376
724,0.0128632099339334
725,0.0128494449067472
726,0.0127323606241331
727,0.012847854174913
728,0.012949081407729
729,0.0130461953632747
730,0.0131555978275851
731,0.0134440189098416
732,0.0135806012723328
733,0.0138577692674425
734,0.0140021867486405
735,0.0139942787129075
736,0.014061244198543
737,0.01405494506242
738,0.0140486459262971
739,0.0140423467901741
740,0.0140904278733563
741,0.014093692382483
742,0.0140872290186039
743,0.0140807656547248
744,0.0140743022908457
745,0.0140541221320144
746,0.0139329255936996
747,0.0139502696833032
748,0.0136881939353599
749,0.0137782941682001
750,0.0136675484284148
751,0.0137368297909405
752,0.0136336898349398
753,0.01338126722067
754,0.0132388679641626
755,0.0123057139855567
756,0.0113725600069507
757,0.0104394060283448
758,0.0089690165730088
759,0.0075648772564831
760,0.00661114917118619
761,0.00628601242596324
762,0.00649269751155126
763,0.0070565912728571
764,0.00783729006552644
765,0.00869544019560816
766,0.0097214920474345
767,0.0105773848961809
768,0.0112041906065503
769,0.0115660854365053
770,0.0119065857791139
771,0.0119353470170335
772,0.0120519664680797
773,0.0122198934462321
774,0.0121981644377506
775,0.0121762720607254
776,0.0121289745507379
777,0.0119736942795817
778,0.0120448441501926
779,0.0119283757503183
780,0.0120046312821007
