"wavelength","measurement"
380,0.00635296195836553
381,0.00625363500356105
382,0.00611156562589408
383,0.00597953008286772
384,0.00633679813617496
385,0.00682474594040495
386,0.00709464342030885
387,0.00772466903309975
388,0.00779929939027051
389,0.00831848175830964
390,0.00830599754770612
391,0.00832742533293923
392,0.00856032091970319
393,0.0087218331640056
394,0.00919531310728417
395,0.0101517825543396
396,0.0115015827927929
397,0.0130066958319623
398,0.0145118088711317
399,0.016016921910301
400,0.0169393060356924
401,0.0180900392855118
402,0.0189417919599572
403,0.0195216031372983
404,0.0198059536288149
405,0.0200951244878053
406,0.0208301129866522
407,0.0210453010838976
408,0.0215077606115774
409,0.0220566543984111
410,0.023207667330796
411,0.0233281101226546
412,0.0240766252674301
413,0.0247501710686239
414,0.0247025095625879
415,0.0248754778690739
416,0.0247867246712353
417,0.0245087225325616
418,0.0250915466771193
419,0.0247207499537394
420,0.0251944895818892
421,0.0251962993482283
422,0.0254436113152248
423,0.0257403619986015
424,0.0258539711285648
425,0.0253653054102008
426,0.0252013540403448
427,0.0245842945805519
428,0.0237488196516803
429,0.0238504116755349
430,0.0240463724574964
431,0.0252303385819912
432,0.0261822502700297
433,0.0271380023917061
434,0.0284454033276017
435,0.0291099826626498
436,0.0295655900594419
437,0.0301244188616273
438,0.0306832476638127
439,0.0312420764659981
440,0.0316152869415382
441,0.0324124458674014
442,0.0334021035440911
443,0.0337046742946461
444,0.0345330818471539
445,0.0353614893996617
446,0.0361898969521695
447,0.0369389238402564
448,0.0373524844025755
449,0.0387401164202641
450,0.0385108423549745
451,0.0384940945923576
452,0.0384655567461969
453,0.0384370189000361
454,0.0384084810538754
455,0.0382084019657308
456,0.0383503577198963
457,0.0387520375152547
458,0.0388887841055953
459,0.0394669947091074
460,0.0394681314954221
461,0.0391894255892422
462,0.0400655917914327
463,0.0389629767283812
464,0.0384697893499757
465,0.0381311550927815
466,0.0376989358951597
467,0.0375117920623257
468,0.0371841418316547
469,0.0371682987316277
470,0.0378011674069288
471,0.0378477313412367
472,0.0381370977335897
473,0.0384270739724479
474,0.0386433478618836
475,0.0392265657332247
476,0.0384273295752571
477,0.0384174773944867
478,0.0384076252137163
479,0.0383977730329459
480,0.0382018507858477
481,0.037250269862074
482,0.0365735355456283
483,0.0365106902304216
484,0.0358149075496388
485,0.0351425957133117
486,0.0356531192968966
487,0.0360400030643883
488,0.0365725544348719
489,0.0375955364746221
490,0.0380565642707313
491,0.0383149198675677
492,0.0393721099784567
493,0.0389606359678828
494,0.0396411676672215
495,0.038997024349197
496,0.0392767170848725
497,0.0387855236347836
498,0.0389931351499758
499,0.038205871246447
500,0.0386860347113355
501,0.0385582133230893
502,0.0392785723357881
503,0.0396822021219142
504,0.0392802099562371
505,0.0406408137696801
506,0.0404722951357148
507,0.0406703892478185
508,0.0409370684833359
509,0.0409341334330327
510,0.0402850741568758
511,0.0407568600313237
512,0.0405217780294272
513,0.03944381413924
514,0.0391181211352719
515,0.0384790237452955
516,0.0383004446434885
517,0.038320493148064
518,0.0381078844157697
519,0.0390779284356285
520,0.0397582374216041
521,0.0401485123710456
522,0.0405387873204871
523,0.0409290622699286
524,0.0407176688685887
525,0.0407421840709884
526,0.0410198748877667
527,0.0406773800236352
528,0.0409738692643995
529,0.0413800161570302
530,0.0414157668042471
531,0.0414780176426151
532,0.0413518333035489
533,0.0418512605467478
534,0.0420132761507694
535,0.0415735619092426
536,0.0418668677150019
537,0.0417998027242478
538,0.0414916635930915
539,0.0413021624190133
540,0.0416334438445705
541,0.0413849177556264
542,0.0412577821155581
543,0.0415635897789763
544,0.0417537345225844
545,0.0414220692116473
546,0.0418268360839867
547,0.0417703709928587
548,0.0417139059017308
549,0.0416574408106028
550,0.0416715508727512
551,0.0418824007162568
552,0.0423450835669587
553,0.0419601042184148
554,0.0419328869383896
555,0.0424456136938864
556,0.0420339881629024
557,0.0419792333592112
558,0.0418248880823084
559,0.0417524197437431
560,0.0422575295164516
561,0.0417034691917905
562,0.0424273836070191
563,0.0418467537997231
564,0.0422389611673074
565,0.0417218369263065
566,0.0417275954885206
567,0.0412544469120398
568,0.0418272839013176
569,0.0414393279463604
570,0.0415433317303999
571,0.0417951755319914
572,0.0420016244567889
573,0.0419508335190333
574,0.0423817547806111
575,0.0420102276370304
576,0.0423041444156771
577,0.0425980611943238
578,0.0428919779729704
579,0.0431858947516171
580,0.0434798115302638
581,0.0440805882028899
582,0.0439761786838149
583,0.0443833488013376
584,0.0439169491718114
585,0.0439662746236165
586,0.0430734240195841
587,0.042832727687526
588,0.0426068866690977
589,0.0423810456506694
590,0.042155204632241
591,0.0426003595455023
592,0.0430582897981399
593,0.0430768216190521
594,0.0436997285122957
595,0.0437241900900647
596,0.0440619694396365
597,0.0442478947037156
598,0.0442288311910176
599,0.044293115936323
600,0.0446289421788292
601,0.0449884447605448
602,0.0452715700276056
603,0.0451305422756774
604,0.0455484346068288
605,0.0453712968221479
606,0.0455101703484594
607,0.0453959049793982
608,0.0450143056263082
609,0.0450758707749085
610,0.0447780418684806
611,0.0445656323331911
612,0.0443829565597511
613,0.0441770656050242
614,0.0436400019825775
615,0.0445073274974952
616,0.0440077034743225
617,0.0444409083882576
618,0.044466868562539
619,0.0445265187077693
620,0.0445253168011529
621,0.0447554745983939
622,0.0440485161083979
623,0.0439762816719476
624,0.0436904106569691
625,0.0434045396419906
626,0.0431186686270121
627,0.0429989316090778
628,0.0430283167500567
629,0.0428460384551964
630,0.0432547017834537
631,0.0427614712554545
632,0.0431627594532121
633,0.0433612965200497
634,0.0435810871037558
635,0.043796680260883
636,0.0434122362859452
637,0.0438853081193496
638,0.0437827465693028
639,0.0438621673562017
640,0.0437760655334001
641,0.0437201437928467
642,0.0436338356489099
643,0.0434597279373099
644,0.0432856202257098
645,0.0431115125141098
646,0.0434815974670765
647,0.0436932042927361
648,0.043020583470421
649,0.0436611525703018
650,0.0432091513902704
651,0.0435219998365858
652,0.0430304275623906
653,0.042335730078028
654,0.0415912382259536
655,0.0420224920807157
656,0.0417017535272701
657,0.0421445650036961
658,0.0425776154336269
659,0.0436735292656753
660,0.0439131512692096
661,0.0440350851329535
662,0.0442708058133534
663,0.0441550076112187
664,0.0437794510160071
665,0.0440362997156621
666,0.0440595223083464
667,0.0441471500536162
668,0.0443170230214427
669,0.0436092862991578
670,0.0437651640725641
671,0.0438587242234645
672,0.0437089244200935
673,0.0438957695934667
674,0.0440304448132847
675,0.0440078033438807
676,0.043945862589174
677,0.0442931044919392
678,0.0438678687264392
679,0.0438489021767093
680,0.044766195031736
681,0.0441628569744584
682,0.0428805094265405
683,0.0420010372436884
684,0.04020408644274
685,0.0390043148324928
686,0.0378713710419414
687,0.0372001111201438
688,0.0371266325837157
689,0.0375427174922559
690,0.0383823988664833
691,0.0395124940133983
692,0.0401051184902426
693,0.0405678665649143
694,0.0412211408404403
695,0.0411484140460017
696,0.041782546157189
697,0.041851408729017
698,0.0413556500542914
699,0.0415082126119519
700,0.0420903367616681
701,0.0417904839961019
702,0.0423785188598672
703,0.0422217764828227
704,0.0430297430527987
705,0.0427319439004463
706,0.0432835189094691
707,0.0436230141945035
708,0.0435491114982318
709,0.04388605124008
710,0.0433836207344789
711,0.0433178431913432
712,0.0434104068030868
713,0.0419974904224618
714,0.0413388855830555
715,0.039589475375637
716,0.0383950843219829
717,0.0374663319963502
718,0.0372319547538219
719,0.0374151696735028
720,0.0376536447233292
721,0.0372031694844948
722,0.0382100774456709
723,0.0381255306824419
724,0.0379676965175422
725,0.0379827208358334
726,0.0378389552992402
727,0.0383570253665549
728,0.0387443336097717
729,0.0393955671035033
730,0.0399185722055669
731,0.040748671897673
732,0.0415920607824797
733,0.0424896368171948
734,0.0429071441482527
735,0.0429632135072484
736,0.0433487007075
737,0.0434992592179906
738,0.0436498177284812
739,0.0438003762389717
740,0.0443176441867719
741,0.0445765681389277
742,0.0447725762150483
743,0.0449685842911689
744,0.0451645923672895
745,0.0452291769524769
746,0.0451348590831156
747,0.0452960343350796
748,0.0449336175150703
749,0.0451364492243634
750,0.0452684278558143
751,0.0451104301635421
752,0.0456975927213031
753,0.0453152804005195
754,0.044261337156258
755,0.0409834771905487
756,0.0377056172248395
757,0.0344277572591302
758,0.0294837894372926
759,0.025153246277314
760,0.022578424336223
761,0.0222172725359125
762,0.0233727657215772
763,0.0259973796422837
764,0.0291016710672156
765,0.0323369585379994
766,0.0359458531466537
767,0.0393246805616793
768,0.041333985430094
769,0.0428236720819435
770,0.0440185705306941
771,0.0444778772893272
772,0.0451402275701895
773,0.0456017260576647
774,0.0455608480650604
775,0.0457140906591844
776,0.0458208174108613
777,0.0453751127073328
778,0.0460201283899518
779,0.0455583427648058
780,0.0459950489426499
