"wavelength","measurement"
380,0.0556394423532915
381,0.05321457566289
382,0.0522458138867656
383,0.0517543644343912
384,0.0522484001860145
385,0.0545865782668625
386,0.0567821031791715
387,0.0598383293691712
388,0.0616584192721301
389,0.0636568089591127
390,0.0626159552801214
391,0.0620628658567303
392,0.0626158472130538
393,0.0634404032565485
394,0.0642833848862138
395,0.0682040250195207
396,0.0747299369038783
397,0.0822592396032927
398,0.0897885423027072
399,0.0973178450021217
400,0.102275899337081
401,0.106452789435688
402,0.110293523153786
403,0.110977485586666
404,0.109993435411347
405,0.109608382343168
406,0.111648543248946
407,0.110642300953686
408,0.111538547825492
409,0.113417722567791
410,0.117150993086299
411,0.11668990410219
412,0.120675996370674
413,0.122072843556468
414,0.121681545325065
415,0.122581157931118
416,0.120889919577921
417,0.119943941608315
418,0.121604925784575
419,0.118894400125964
420,0.120648068208187
421,0.121105772453109
422,0.121529712454869
423,0.12268469383565
424,0.122604980335505
425,0.119915141513505
426,0.118575408846254
427,0.11542990909448
428,0.112305346792476
429,0.111820466947294
430,0.111897817196161
431,0.116857830107687
432,0.121940349130941
433,0.126555833333616
434,0.131557091716518
435,0.133393361631021
436,0.135016106157689
437,0.137332619162558
438,0.139649132167427
439,0.141965645172296
440,0.143241072829157
441,0.14682949478925
442,0.149269341808426
443,0.150444604596659
444,0.153278796139283
445,0.156112987681907
446,0.15894717922453
447,0.161410108129295
448,0.162417306806057
449,0.168509014844886
450,0.167546055276454
451,0.166713296736305
452,0.166534700752749
453,0.166356104769193
454,0.166177508785636
455,0.166002542422876
456,0.165899006622636
457,0.16906119436462
458,0.170341212001573
459,0.173072462519467
460,0.173954161346568
461,0.172233618811861
462,0.176233324544956
463,0.172353816189726
464,0.170124442982631
465,0.168993944012967
466,0.167349283750353
467,0.166630837845113
468,0.16642344855787
469,0.164423148277807
470,0.168393638068239
471,0.168675359891394
472,0.169832802703186
473,0.172096731833698
474,0.17266771385282
475,0.175446525789814
476,0.171114100266898
477,0.17122359928046
478,0.171333098294023
479,0.171442597307585
480,0.171221836617423
481,0.166852990443716
482,0.164015760668197
483,0.163789578202561
484,0.16038200667597
485,0.157010976119445
486,0.15903183447402
487,0.160434511987842
488,0.163062395840442
489,0.16750163086078
490,0.168848540305956
491,0.169999673291216
492,0.174428659055446
493,0.172320018528672
494,0.175489069005055
495,0.172927202180134
496,0.173718193292625
497,0.170971760749371
498,0.171791137854943
499,0.167958257627636
500,0.169265279364544
501,0.168445126689293
502,0.171743832898694
503,0.173343665398563
504,0.172050774456473
505,0.177004232416603
506,0.176364063255408
507,0.177004471992198
508,0.177692721427412
509,0.177293780183051
510,0.174483728028999
511,0.176579544593414
512,0.174727717252044
513,0.170185240814881
514,0.168259563410675
515,0.165708860374371
516,0.164434330400862
517,0.1646165272791
518,0.164386817038442
519,0.168032560676103
520,0.170311820359066
521,0.172187370330732
522,0.174062920302398
523,0.175938470274064
524,0.174525424491315
525,0.174998667119726
526,0.175071896995742
527,0.174884921359552
528,0.175341607905544
529,0.176917914338296
530,0.177097535098208
531,0.177117655140031
532,0.176773684552446
533,0.178293031470117
534,0.178620611457735
535,0.177061803462565
536,0.178549613268523
537,0.177415064868686
538,0.176185135235305
539,0.175728632764693
540,0.176323234170666
541,0.175201494156126
542,0.174341690440008
543,0.175466614820396
544,0.176078675240401
545,0.1751204596348
546,0.17591916645885
547,0.175823542178174
548,0.175727917897498
549,0.175632293616823
550,0.175114329131977
551,0.176548710919707
552,0.177672620062234
553,0.176015737000062
554,0.175777982555416
555,0.177723019424143
556,0.175357586836794
557,0.175746601518011
558,0.174321020297359
559,0.172893989110472
560,0.175382921855725
561,0.172430319721256
562,0.175115877327447
563,0.172957623418442
564,0.173920763796578
565,0.171799036737127
566,0.170784000272518
567,0.169139559672602
568,0.170831728998478
569,0.169433135015754
570,0.1692313525788
571,0.169860409398867
572,0.17048813514339
573,0.169700475972787
574,0.171259897550247
575,0.169050722550497
576,0.169808240881104
577,0.170565759211712
578,0.171323277542319
579,0.172080795872927
580,0.172838314203534
581,0.175367005063042
582,0.174797206798274
583,0.176254256428685
584,0.173629736028076
585,0.173323985117491
586,0.169339327526988
587,0.167482025219332
588,0.166331835039028
589,0.165181644858724
590,0.164031454678421
591,0.164881773760664
592,0.166471352874434
593,0.166143589160238
594,0.16870811358101
595,0.168102988474742
596,0.169145324162625
597,0.170153798446186
598,0.169524224795754
599,0.169049444293749
600,0.170472581371439
601,0.170897245160087
602,0.172389867573104
603,0.171234117105763
604,0.173176805508675
605,0.1724749923791
606,0.172277514327435
607,0.171888098948778
608,0.169906917660034
609,0.169950227844046
610,0.168819895848619
611,0.167621913060592
612,0.167029815214153
613,0.16598141626745
614,0.164150968170887
615,0.16737279327169
616,0.164838050085039
617,0.166868430191547
618,0.16643262485347
619,0.167639912783661
620,0.166631987880254
621,0.167929736939437
622,0.165049450960183
623,0.165413492869223
624,0.16413048654206
625,0.162847480214897
626,0.161564473887734
627,0.161119477007939
628,0.160757951704167
629,0.160901271371398
630,0.162223299429915
631,0.159841042261543
632,0.16187768050149
633,0.162199865547097
634,0.163120086179041
635,0.164068334645008
636,0.162554391282901
637,0.164508393394536
638,0.164112140890142
639,0.165154900705177
640,0.164210955373151
641,0.164392773659786
642,0.163147871578862
643,0.162783597833057
644,0.162419324087251
645,0.162055050341445
646,0.163385088495594
647,0.163087469343666
648,0.161419657649806
649,0.163389399462497
650,0.161654400484257
651,0.16292971651077
652,0.160983848250254
653,0.158707205181124
654,0.155953632520438
655,0.157466305617359
656,0.155952094017316
657,0.157509088937868
658,0.159427071297122
659,0.16316703971409
660,0.164310686502446
661,0.164863312080971
662,0.165332311432322
663,0.165453715887538
664,0.164216291115045
665,0.164331446453247
666,0.164566036981695
667,0.165140698781954
668,0.165738771715077
669,0.162477656588652
670,0.16399343395935
671,0.163737475147595
672,0.163190552416904
673,0.163118996647288
674,0.164071640659765
675,0.164257140951187
676,0.163663458921187
677,0.165208202817422
678,0.16341842028961
679,0.163475383673565
680,0.1665016438316
681,0.163939060729649
682,0.159562384856353
683,0.155751544756285
684,0.149520206444886
685,0.14423616691469
686,0.140593128120348
687,0.138022230293372
688,0.137815531657479
689,0.139239102288778
690,0.141900813325622
691,0.146144252316904
692,0.148132719186987
693,0.15046603762639
694,0.151717971035792
695,0.152196525349531
696,0.154050244295793
697,0.154557947974361
698,0.153308367371547
699,0.153210071381709
700,0.15535086194456
701,0.154659687382823
702,0.15643572227105
703,0.155700972682443
704,0.158220611374444
705,0.157691901201471
706,0.159219224036208
707,0.16111004626671
708,0.160526799854254
709,0.161232492598099
710,0.159762049458248
711,0.158930942627246
712,0.158938427650368
713,0.153574570543776
714,0.150975699893565
715,0.145058599054181
716,0.140657553662284
717,0.136594647487446
718,0.135786990722171
719,0.13693836865095
720,0.136812064285519
721,0.135235425333416
722,0.138575732791443
723,0.137770114839778
724,0.137071654781188
725,0.137101545431451
726,0.137048690865835
727,0.138293742834679
728,0.139480318319703
729,0.142009294778501
730,0.14304272183589
731,0.146740291521478
732,0.148357728426644
733,0.15190210101735
734,0.153139722870622
735,0.15371171778414
736,0.154880674169647
737,0.154959177763713
738,0.155037681357779
739,0.155116184951846
740,0.15719229060562
741,0.157110619888993
742,0.157659198658093
743,0.158207777427193
744,0.158756356196293
745,0.158603884863017
746,0.157927640820999
747,0.158459903003243
748,0.156717519848236
749,0.158117645392211
750,0.156834246013279
751,0.156122619498663
752,0.158208254480063
753,0.156966340148097
754,0.152975961340211
755,0.141442906119765
756,0.129909850899318
757,0.118376795678872
758,0.100926128887531
759,0.086598474669683
760,0.0785023202984088
761,0.0771198408241126
762,0.080597780646968
763,0.0881916348000143
764,0.0987994189668897
765,0.109688241623736
766,0.121711911097177
767,0.132212466321107
768,0.13894762114
769,0.143494756360297
770,0.146985890291586
771,0.149548982155107
772,0.150948252354978
773,0.153326843361761
774,0.152868512953768
775,0.15281574388392
776,0.152733927469299
777,0.151955608316122
778,0.153577446161906
779,0.152460152685841
780,0.154436875018605
