"wavelength","measurement"
380,0.00451971269999021
381,0.00448017302270966
382,0.00445298791139695
383,0.00450581924105607
384,0.00460094704744115
385,0.00498282534232356
386,0.00530043518479236
387,0.00566024420721446
388,0.00599748471873769
389,0.00625131098794488
390,0.00626684628347322
391,0.00632959617362681
392,0.00644807812748564
393,0.00653824695474636
394,0.00682943183912012
395,0.00720078054553044
396,0.00808417379865861
397,0.00901730437027707
398,0.00995043494189553
399,0.010883565513514
400,0.0114325033650267
401,0.0121891199662833
402,0.0126467152453103
403,0.0127855762622257
404,0.0129812393134204
405,0.01294897334487
406,0.0131492672147426
407,0.0133014809524599
408,0.0134190995218868
409,0.0136973912447831
410,0.0143591268349398
411,0.0143883183267438
412,0.0147784659153891
413,0.0151401387105726
414,0.0151665391557821
415,0.0152899250586382
416,0.0151528938286978
417,0.0150886268365248
418,0.0153314177083539
419,0.0149801712016586
420,0.0153647124538841
421,0.0153528126772472
422,0.0154921883731412
423,0.0156652557613979
424,0.0157455293376774
425,0.0155066911127195
426,0.0154065286821601
427,0.0149861171968042
428,0.0145264947280772
429,0.0145429546514264
430,0.01460292802003
431,0.0151519403889764
432,0.0157304396046944
433,0.0162914889597249
434,0.0170907319233374
435,0.0174706092192392
436,0.0176568395269265
437,0.0179968422581545
438,0.0183368449893826
439,0.0186768477206107
440,0.0188547974322904
441,0.0192317686560443
442,0.0197321922208285
443,0.0200129401798687
444,0.020394427851953
445,0.0207759155240372
446,0.0211574031961215
447,0.0215344337473057
448,0.0217037553017209
449,0.0226452284444766
450,0.0226074741061806
451,0.0225124126114873
452,0.0225265958830756
453,0.0225407791546638
454,0.0225549624262521
455,0.0225560483134059
456,0.0226891862526
457,0.0229904954332573
458,0.0231858307406292
459,0.0236377516478057
460,0.0237356248343223
461,0.0235594192207077
462,0.0242865969338742
463,0.0236531928489705
464,0.0234601206314107
465,0.0232886350871516
466,0.0230522233057965
467,0.0230670320876196
468,0.0228362272020422
469,0.0226949084604537
470,0.023226142113088
471,0.0232563091618349
472,0.0234659247460493
473,0.023784725517898
474,0.0238838479632357
475,0.0242476412765643
476,0.0237648486386235
477,0.0237776468317902
478,0.023790445024957
479,0.0238032432181237
480,0.0237716035313362
481,0.023201414187402
482,0.0228356675592852
483,0.0227834944176526
484,0.0222884757673289
485,0.0217933980718092
486,0.0220745715304101
487,0.0222858286100648
488,0.0225268238312575
489,0.0231468707138988
490,0.023402943738998
491,0.0235871937127402
492,0.024193083721528
493,0.0239478263454697
494,0.024360467293378
495,0.0240747542840791
496,0.0241743023556858
497,0.0238100434645829
498,0.0239219935211756
499,0.0234436991679601
500,0.0236259273130996
501,0.0234305887684086
502,0.0238795116560518
503,0.02404295154262
504,0.023789779349322
505,0.0245846920428026
506,0.0244434769098864
507,0.0245321290991887
508,0.0247042566970644
509,0.0246609711330715
510,0.0242203122767053
511,0.0246023216097139
512,0.024363560890221
513,0.0236621312183109
514,0.0235260930271478
515,0.0231466611680585
516,0.0229544709801936
517,0.0228999722938242
518,0.0228200229034579
519,0.0232096256032181
520,0.023633348297047
521,0.0238664653900511
522,0.0240995824830552
523,0.0243326995760593
524,0.0241952142126848
525,0.0242178027962634
526,0.0242224653047423
527,0.0240736194685797
528,0.024224002396343
529,0.0244368040961012
530,0.024456510406823
531,0.0244694602046793
532,0.0244204002887406
533,0.0246254103716771
534,0.0246903213083047
535,0.0243873546732831
536,0.0246383393813718
537,0.0245110983358838
538,0.0243249834154267
539,0.024194054321693
540,0.024311724559618
541,0.0241504002216922
542,0.0239905592259509
543,0.0241413466597591
544,0.024215260381573
545,0.0240077348142474
546,0.02422816259671
547,0.024175318182632
548,0.0241224737685539
549,0.0240696293544758
550,0.0239483528280044
551,0.0241096493207457
552,0.0242635411978929
553,0.0240213696552945
554,0.0239515129093188
555,0.0241877282790053
556,0.0238793173910287
557,0.0238564669017204
558,0.0236798217309399
559,0.0234774908398609
560,0.0237755953637929
561,0.0233736543204851
562,0.0237884313647808
563,0.0234032251051588
564,0.0235038453763589
565,0.0231814792052189
566,0.0230912210763376
567,0.0228143559372491
568,0.023006453809802
569,0.0227691342301831
570,0.0227277387673682
571,0.0227744362185264
572,0.0227616664441892
573,0.0227229444374899
574,0.022843725370828
575,0.0225891103258728
576,0.0226561766066598
577,0.0227232428874467
578,0.0227903091682337
579,0.0228573754490206
580,0.0229244417298076
581,0.0232031558126433
582,0.0230803043569749
583,0.0232530166725852
584,0.0229204286468653
585,0.0229328853809774
586,0.0223670679416885
587,0.022126698920153
588,0.0219359802301292
589,0.0217452615401054
590,0.0215545428500816
591,0.0216158151554287
592,0.0217829463863562
593,0.0217663824736531
594,0.0219919195396699
595,0.0219328869346668
596,0.0219848587441213
597,0.0219686197130979
598,0.0219123059304544
599,0.0218586595353273
600,0.0219903549280833
601,0.0220905793583354
602,0.0221157790307986
603,0.0220058386201056
604,0.0221473867305096
605,0.0220018037548568
606,0.0220248471708947
607,0.0219127172564101
608,0.0216509831426375
609,0.0216434808336811
610,0.0214434336221872
611,0.0213000403943308
612,0.0211139485895312
613,0.0210237327254361
614,0.0207574891747999
615,0.0209935167220963
616,0.0207547193783816
617,0.0209263575522272
618,0.0208535579619477
619,0.0209037520761639
620,0.0207950140009591
621,0.0209299002603034
622,0.0204804144283779
623,0.0204609696179609
624,0.0202651398695541
625,0.0200693101211473
626,0.0198734803727406
627,0.0198097111170561
628,0.0196914126765258
629,0.0196201824795351
630,0.0197597018021899
631,0.0194932898809223
632,0.0196397206172452
633,0.0197154281679039
634,0.0197395336927169
635,0.0198123012273998
636,0.0196359131507329
637,0.019781799980215
638,0.019633564551345
639,0.0197345527296364
640,0.0196002543458818
641,0.0195444915372965
642,0.0194536523213587
643,0.0193380635477565
644,0.0192224747741543
645,0.019106886000552
646,0.0192583068458091
647,0.0191889563173502
648,0.0188296502039602
649,0.0191270573428853
650,0.0188890199401224
651,0.0189789243585548
652,0.0187280029564319
653,0.0183813962284141
654,0.0180264351522931
655,0.0181204347916788
656,0.0179370062081384
657,0.018004390963729
658,0.0181516503858579
659,0.0185173827422345
660,0.018646035331279
661,0.0186853682143976
662,0.0187402349609088
663,0.0185871891473275
664,0.018443322142054
665,0.018469023620151
666,0.0184744539394724
667,0.01850476405859
668,0.0184380106116767
669,0.0180953629944421
670,0.0181492477345876
671,0.0180714424193043
672,0.0179712384839359
673,0.0179875332599096
674,0.0180056215574299
675,0.0179612247550533
676,0.0178559276551189
677,0.0179586694445908
678,0.0176942973494065
679,0.0176193824229964
680,0.0179895009790669
681,0.0176423119793787
682,0.0171887776047549
683,0.0167661954403015
684,0.0160284417454067
685,0.0154426564408827
686,0.0149212185037912
687,0.0145247260680591
688,0.0143314381926578
689,0.0144522399371104
690,0.0147225443961971
691,0.0151838874544264
692,0.0153196159475105
693,0.0154419576147069
694,0.015701617475205
695,0.0156326642661715
696,0.0158442106699935
697,0.0158300504427714
698,0.0155956502512104
699,0.0155709729047797
700,0.0157460592409417
701,0.0155544734341594
702,0.0156988209704577
703,0.0156078407851594
704,0.0158462363489395
705,0.0156979925698032
706,0.0158419599525585
707,0.0159601135317003
708,0.0158368860105488
709,0.0159209945682388
710,0.0156493841842026
711,0.0156064553241834
712,0.0156469306057798
713,0.015116874107089
714,0.0148973689533702
715,0.0142415273551808
716,0.0137076824745717
717,0.0132864303133402
718,0.0131394261516734
719,0.0131089217754104
720,0.0131573298512354
721,0.012924441962246
722,0.0132199425227755
723,0.0131846827949012
724,0.0131084478111427
725,0.0130721302620285
726,0.0129580694875483
727,0.0130552660399374
728,0.01310496305635
729,0.0132617182258514
730,0.013421675028445
731,0.0136283742948309
732,0.0138244226368896
733,0.0140934127117886
734,0.0142103221763158
735,0.0141793378105301
736,0.014282062835941
737,0.0142497939857559
738,0.0142175251355707
739,0.0141852562853856
740,0.0143165002415574
741,0.0142752494122422
742,0.0142685443948885
743,0.0142618393775348
744,0.0142551343601811
745,0.0142520834080675
746,0.0141681656210027
747,0.0141254324031204
748,0.0139072236861413
749,0.0139599588964949
750,0.0138511542793483
751,0.0137432958499468
752,0.0138797391328518
753,0.0135981118026944
754,0.013443866926736
755,0.012472319616427
756,0.011500772306118
757,0.010529224995809
758,0.00899617436180187
759,0.00762781195540468
760,0.00664615930802607
761,0.00631337761793204
762,0.00650069926955984
763,0.00704028850496093
764,0.00788052201387364
765,0.00874971746958
766,0.00974212215971056
767,0.0107374105884087
768,0.0112717599438068
769,0.0116876910011614
770,0.0119762563775103
771,0.0121165815472608
772,0.0122233523573543
773,0.0123366796361536
774,0.0122532793889455
775,0.0122199184299021
776,0.0122525718347163
777,0.0120812820796102
778,0.0121394297405881
779,0.0119772882914609
780,0.0121094685862289
