"wavelength","measurement"
380,0.00537317583988223
381,0.00500006207232027
382,0.00497049433866858
383,0.0049213337141704
384,0.00519729340793719
385,0.0053169178675174
386,0.00555408773100894
387,0.00591712751142496
388,0.00620537442664536
389,0.00639519493257803
390,0.00653429869242176
391,0.00662692594961596
392,0.00654243323031102
393,0.00681779421963107
394,0.00697542820036726
395,0.00769169910514329
396,0.00865793719671232
397,0.00970810695646478
398,0.0107582767162172
399,0.0118084464759697
400,0.0122873087091694
401,0.0131723772311852
402,0.0137746979826749
403,0.0139867675927725
404,0.0142679579530424
405,0.0144453015623193
406,0.0148296404773249
407,0.0150549738630333
408,0.015405990639802
409,0.0156839665024808
410,0.0165732572244438
411,0.0166937146812382
412,0.0171583505657704
413,0.0175949674311531
414,0.0175923209469709
415,0.0176250475692214
416,0.0177590392178941
417,0.0176222597743199
418,0.0179059011298175
419,0.017499923269082
420,0.0181347491384528
421,0.0181741933492455
422,0.0184063781102968
423,0.0185415856171337
424,0.0189341212013517
425,0.0183597384628318
426,0.0181503545978108
427,0.017781628971636
428,0.017407531849191
429,0.0174021134201719
430,0.017545757373108
431,0.0183943057768152
432,0.0192116540746284
433,0.0198851302481899
434,0.0207792899840344
435,0.0213720643452818
436,0.0218944999110607
437,0.0224044857434081
438,0.0229144715757555
439,0.0234244574081029
440,0.0237314305071937
441,0.0243970561408193
442,0.0249435993638176
443,0.0256015149828578
444,0.0262242177460124
445,0.0268469205091669
446,0.0274696232723215
447,0.0281189873460438
448,0.0283948092570457
449,0.0297756866075804
450,0.029659346990834
451,0.0294782372572736
452,0.0294555791621044
453,0.0294329210669352
454,0.0294102629717661
455,0.0294537285757428
456,0.0293716439255792
457,0.0295282387576816
458,0.0296756060549088
459,0.0299903742319201
460,0.0300301364778498
461,0.0295600517316559
462,0.0303123817720084
463,0.0293807689552261
464,0.0289809853219801
465,0.0286996434098404
466,0.0283173773502395
467,0.028241304818024
468,0.0280046766187311
469,0.0278125039658366
470,0.0282779092169123
471,0.0282086914252643
472,0.028413151497485
473,0.0286715051840558
474,0.0287843423966249
475,0.0291199714211431
476,0.0286207239282973
477,0.0285689037593406
478,0.028517083590384
479,0.0284652634214273
480,0.0283321999191839
481,0.0276953173072644
482,0.0271428735701636
483,0.0271814006958212
484,0.0266438608072287
485,0.0260911522441991
486,0.0265086541395449
487,0.0269228852392902
488,0.0272562314205877
489,0.0280887119788648
490,0.0283269438119737
491,0.0287126070512694
492,0.0294216051999613
493,0.0292017953954601
494,0.0296770495346106
495,0.0292548758593205
496,0.0296125260951724
497,0.029144234417889
498,0.0293142315623814
499,0.0287826168555011
500,0.0292160551193657
501,0.0290464056055804
502,0.0296983168819736
503,0.0301197698020519
504,0.0298094170356429
505,0.0309038298283712
506,0.0306969802271883
507,0.030901100215095
508,0.0311078353196681
509,0.0310960160212922
510,0.0306399049014981
511,0.0311360528487572
512,0.0308090515859276
513,0.0299565635517902
514,0.0297478824508105
515,0.0293736138580706
516,0.0291747096254851
517,0.029236224449298
518,0.0291417688842407
519,0.0296961750586565
520,0.0302760096730198
521,0.0305397415046149
522,0.0308034733362101
523,0.0310672051678053
524,0.0308389838100369
525,0.0309908498877966
526,0.0309542117753215
527,0.0308432061436708
528,0.0310120087163568
529,0.0313391056713401
530,0.0313846960771612
531,0.0313811155648204
532,0.0312746117131489
533,0.0315749392106126
534,0.0317483994076042
535,0.0313940346259548
536,0.0316284262637286
537,0.0315876905187387
538,0.0313338699428009
539,0.0312048989331183
540,0.0314564492852509
541,0.0312050281364209
542,0.0311175177096338
543,0.0314912309198766
544,0.0315115805294437
545,0.0313957066894774
546,0.0315451758733058
547,0.0314746327683877
548,0.0314040896634696
549,0.0313335465585515
550,0.0312706132534031
551,0.031569295326921
552,0.031903818072382
553,0.0316033827242068
554,0.0314818305827368
555,0.0319571814155949
556,0.0314976955692109
557,0.0315074415703427
558,0.0314044268547133
559,0.0312386411008193
560,0.0317919666051641
561,0.0311899544186495
562,0.0319258706258746
563,0.0314501760615796
564,0.0317360509282241
565,0.0313726777512105
566,0.031293028604241
567,0.031032177122912
568,0.0314093659800581
569,0.0311533510077108
570,0.0313029207165003
571,0.0314824140264747
572,0.0316293318113689
573,0.0316177136471912
574,0.0319568352029355
575,0.0317371841130698
576,0.0319763845592785
577,0.0322155850054873
578,0.032454785451696
579,0.0326939858979047
580,0.0329331863441134
581,0.0334801032437039
582,0.0334963319204818
583,0.033845885019691
584,0.0334323293698228
585,0.0334876163639896
586,0.0328935577926337
587,0.0327611236803916
588,0.0326979910157406
589,0.0326348583510896
590,0.0325717256864386
591,0.0329547097729391
592,0.0333617164411703
593,0.0334059436859634
594,0.0340716486235623
595,0.0341104940550149
596,0.0343174583614263
597,0.0345499073928922
598,0.0346612080780726
599,0.0347218063426575
600,0.0350687782695762
601,0.0353603114774739
602,0.0355981724839547
603,0.0355063131059935
604,0.0359651985668198
605,0.0358456321153413
606,0.0360159462766631
607,0.0359166489339205
608,0.0356913164639128
609,0.0357180891764303
610,0.0357388263213695
611,0.0354883803209182
612,0.0352720795043108
613,0.0352396523893705
614,0.034851683181867
615,0.0354771503785759
616,0.0350002232257018
617,0.0354366367914905
618,0.0353537802954488
619,0.0355700915346274
620,0.035444831218418
621,0.0357158359852247
622,0.0349972644111767
623,0.0350166545735844
624,0.0347922076696618
625,0.0345677607657393
626,0.0343433138618167
627,0.0342967626343896
628,0.0343056878949771
629,0.0341482872096229
630,0.0345494595284349
631,0.0340845364945468
632,0.0344027524713242
633,0.0345181219585284
634,0.0346402364987962
635,0.034847037555761
636,0.0344604395787208
637,0.034956222727903
638,0.0347505178625677
639,0.0349703133704589
640,0.0347932433142975
641,0.0347878610074614
642,0.0346616051986676
643,0.0345362599635534
644,0.0344109147284392
645,0.034285569493325
646,0.0345837789330275
647,0.0345639189835456
648,0.0341034848918036
649,0.0347192886283002
650,0.0342122245446925
651,0.034479059611719
652,0.0341681360092968
653,0.0335655249936117
654,0.033083880503533
655,0.0333534702566986
656,0.033153940069318
657,0.0334433562855786
658,0.0337500773321743
659,0.0345395173642162
660,0.0348378200536977
661,0.0348462843356103
662,0.0350537362393643
663,0.0349198249897416
664,0.0346976274309511
665,0.0347635903615807
666,0.0348666229055929
667,0.0349360652477119
668,0.0350356842184969
669,0.0344742586325635
670,0.0345864744949996
671,0.0346141258674316
672,0.0344820342759373
673,0.0345766965061945
674,0.0347302555299304
675,0.0346851968472535
676,0.0345995334852623
677,0.0348710827706647
678,0.03446118746827
679,0.0344152438230004
680,0.035238379935362
681,0.0345668600155412
682,0.0336717384714923
683,0.0329256842432506
684,0.0315848228087264
685,0.0305646417754699
686,0.0298151880978803
687,0.0292347256867898
688,0.0291001067709169
689,0.0294569681709808
690,0.0300840817336891
691,0.0309636917299267
692,0.0313135624382344
693,0.0316551077019675
694,0.0321305077940973
695,0.0321299354610545
696,0.0324973282426836
697,0.0326168577547907
698,0.0321760050101416
699,0.0321624872573596
700,0.0327387978429574
701,0.0324740960997178
702,0.0329700609041253
703,0.0327473002458891
704,0.0333244129380737
705,0.0331460388470905
706,0.0334191157257471
707,0.0336952527187623
708,0.0335222216382108
709,0.0338166838009452
710,0.0334277228737776
711,0.0333815502657651
712,0.0334937918816766
713,0.0322677698754587
714,0.0318501386805693
715,0.0304757891244763
716,0.0294535161883744
717,0.0286401453078557
718,0.0285516864439869
719,0.0285714638557985
720,0.028872845777005
721,0.0285404026098774
722,0.0292266691421623
723,0.0289736009965577
724,0.0289977052050697
725,0.0288689388943401
726,0.0288732705293712
727,0.0291925095872252
728,0.0294076312314507
729,0.0299693371217453
730,0.030371498739839
731,0.0309337662213664
732,0.0314886718063882
733,0.0321811103802622
734,0.0325372099020335
735,0.0325851147319775
736,0.032985567163699
737,0.0330139751457196
738,0.0330423831277403
739,0.0330707911097609
740,0.0335349121491288
741,0.0336903898148454
742,0.0338420428448085
743,0.0339936958747716
744,0.0341453489047348
745,0.0343211105444241
746,0.0341634524861121
747,0.0343880389426592
748,0.0340434127665455
749,0.0344209207406005
750,0.0342933017585014
751,0.0342897850436548
752,0.0347160307814063
753,0.0346128654885868
754,0.0338594760170668
755,0.0313890760243132
756,0.0289186760315597
757,0.0264482760388062
758,0.022515356322794
759,0.0193771398276135
760,0.017442641536755
761,0.0173607651051823
762,0.0180647141270496
763,0.0201127759115499
764,0.0225194199296653
765,0.0250692724677479
766,0.0278776109848468
767,0.0303658552950159
768,0.0321572564974387
769,0.0330474929767719
770,0.0340933038551475
771,0.0345479284755865
772,0.0349022507864979
773,0.0353640291706617
774,0.0353671416027178
775,0.0354285349283553
776,0.0355662120373658
777,0.0351515244088542
778,0.0356961524006004
779,0.0353451389351502
780,0.0358476096579573
