"wavelength","measurement"
380,0.00220366112381322
381,0.00229971629734459
382,0.00229691864414206
383,0.00228122062403991
384,0.00239119836828175
385,0.00258389415536312
386,0.0027255289059827
387,0.00282562243993812
388,0.00302029964466241
389,0.00320451181109358
390,0.00325408411821756
391,0.00323800973197029
392,0.0032007660318102
393,0.00333471354274993
394,0.00348204422304467
395,0.00363157382973405
396,0.00412199407110317
397,0.00457352767637328
398,0.00502506128164339
399,0.0054765948869135
400,0.00586124219089494
401,0.00623244019672863
402,0.00652613825615238
403,0.00654185176955839
404,0.00670612865051961
405,0.00683086863103068
406,0.00689644237915429
407,0.00691187254081881
408,0.00705489561963558
409,0.0071748198458757
410,0.00751579080087721
411,0.00755597287578346
412,0.00787223968832434
413,0.00800687896523175
414,0.00802404977956911
415,0.0081865236895699
416,0.00820598342882615
417,0.00808907768690009
418,0.00824354576333822
419,0.00807282613952851
420,0.00823122577960442
421,0.00826691498663007
422,0.00834696131004357
423,0.00842024718416103
424,0.0085442769436533
425,0.00836717136268149
426,0.00834053624923504
427,0.00811373168726275
428,0.0078612599276494
429,0.00786790952759546
430,0.00784264519077855
431,0.00808104679394944
432,0.00844942198547578
433,0.00884206138133094
434,0.00918786704065236
435,0.00940707325774414
436,0.0094970812528482
437,0.00967282147681342
438,0.00984856170077864
439,0.0100243019247439
440,0.0101616735379394
441,0.010303191837346
442,0.010516177261128
443,0.010790036476266
444,0.010984527617131
445,0.011179018757996
446,0.011373509898861
447,0.0116690897673163
448,0.0117009847408364
449,0.0121667802837732
450,0.0121184237155601
451,0.0120828402737728
452,0.0120882521935416
453,0.0120936641133104
454,0.0120990760330792
455,0.0121224987547473
456,0.0121444589754931
457,0.0123318431953142
458,0.0124022545657341
459,0.0126803709128353
460,0.0126581418100427
461,0.0125877439858409
462,0.0129851325499396
463,0.0125682105795629
464,0.0125840086449438
465,0.0125014971784742
466,0.0122656194543971
467,0.0123354937162105
468,0.0122901372681676
469,0.0121601121632143
470,0.0124460975458136
471,0.0123889309775207
472,0.012524492254777
473,0.0126585325841769
474,0.0127703564432579
475,0.0129228468724511
476,0.0126533745488894
477,0.0126650106727904
478,0.0126766467966914
479,0.0126882829205924
480,0.0126383770871716
481,0.0124150507302433
482,0.0121373835866127
483,0.0121401658396975
484,0.0118864844007084
485,0.0116381889171271
486,0.0117570548032951
487,0.0118545264914358
488,0.0119628163934809
489,0.0123204994769074
490,0.0125125230756285
491,0.01258241457504
492,0.0129141781010273
493,0.0127678633115965
494,0.0129938375598827
495,0.0128176326144147
496,0.0129215924794159
497,0.012693924166655
498,0.0127637896404854
499,0.012533395114331
500,0.0125955930134468
501,0.0125046619832069
502,0.0126922754984635
503,0.0128515556795821
504,0.0127492419349701
505,0.0131356973571839
506,0.0130410843085807
507,0.0131520981117912
508,0.0132518772289437
509,0.0131746426132354
510,0.012950328755862
511,0.0131840446226893
512,0.0129787032813095
513,0.0127013051484585
514,0.0125839811644641
515,0.012395591736799
516,0.0122851679231407
517,0.012301216479654
518,0.0122582112522633
519,0.0124902941845959
520,0.0127071887307483
521,0.012817283522629
522,0.0129273783145097
523,0.0130374731063904
524,0.0130000627764063
525,0.0129926236798924
526,0.0129926946625635
527,0.0129306390695105
528,0.0129679486146035
529,0.013107856975512
530,0.0131315002827444
531,0.0131500577378654
532,0.0131112115590793
533,0.0132295262767504
534,0.0132531047934759
535,0.013087874047219
536,0.0132118818692043
537,0.0131337454727148
538,0.0130654649072393
539,0.0129445597901213
540,0.0129865803312377
541,0.0128936081173074
542,0.0128435057987892
543,0.0130025352288391
544,0.0130107943670892
545,0.0128872970514183
546,0.0129679488108959
547,0.0129324814118153
548,0.0128970140127347
549,0.0128615466136541
550,0.0127880923753757
551,0.012914288647958
552,0.0129881349087546
553,0.0128210552844038
554,0.0128040350938903
555,0.0129218498899951
556,0.0127277358938055
557,0.0127493513358553
558,0.0126420492834708
559,0.0125383870764648
560,0.0126948141341954
561,0.0124699543152708
562,0.0126887601080036
563,0.0124854429905593
564,0.0125278887146538
565,0.0123668297308581
566,0.0122957431403287
567,0.012180553820095
568,0.0122739370934394
569,0.012144759539169
570,0.0121378767408979
571,0.0121071228228381
572,0.0120880411070426
573,0.012085945058455
574,0.0121429086019241
575,0.0120162584056531
576,0.0120567312087107
577,0.0120972040117684
578,0.0121376768148261
579,0.0121781496178837
580,0.0122186224209414
581,0.0123685832295449
582,0.0122732008558303
583,0.0123990678223073
584,0.0122492078081027
585,0.0121924997864781
586,0.011915015223563
587,0.0118059887740443
588,0.0116806366782873
589,0.0115552845825304
590,0.0114299324867734
591,0.0115033455214634
592,0.0115764259539561
593,0.0115517140308407
594,0.0116456713027405
595,0.011660268957381
596,0.0116731221897596
597,0.0117026639173454
598,0.0116840856801071
599,0.011574375895062
600,0.0116925907165989
601,0.0117078090640478
602,0.0117596958939455
603,0.0116498462421802
604,0.0117281124647583
605,0.0117457199747679
606,0.0117211327752798
607,0.0116260853098116
608,0.0114703822456665
609,0.0114738782119533
610,0.0113842112653626
611,0.0113124620277275
612,0.0112118097294543
613,0.0110912440823495
614,0.0109751607385652
615,0.0111422101859021
616,0.0109852985217437
617,0.0110923215210872
618,0.011018952042902
619,0.01108972141957
620,0.010959302352929
621,0.0110975689682348
622,0.010790035751133
623,0.0107998939262155
624,0.0106949614645547
625,0.0105900290028938
626,0.010485096541233
627,0.0104695082643241
628,0.0104121301297419
629,0.0103541093496316
630,0.0104548304971461
631,0.0102845004986102
632,0.0103582390036006
633,0.0104004396002186
634,0.0104034021885705
635,0.0104316490295719
636,0.0103538078736811
637,0.0104389637159605
638,0.0103710463140691
639,0.0103944737127524
640,0.0102935211342822
641,0.0103195461147192
642,0.0102421748933027
643,0.0101808974560189
644,0.0101196200187351
645,0.0100583425814513
646,0.0101089652082811
647,0.0101252202954708
648,0.00991453427388089
649,0.0101084087911796
650,0.00993333825565354
651,0.00998788951910057
652,0.00985797609077063
653,0.00970600428910105
654,0.00948089808592271
655,0.00958731315447939
656,0.00941972826701785
657,0.0094629045228831
658,0.00958778478161404
659,0.00974313120258601
660,0.00987674700369861
661,0.00981822182955922
662,0.00989038430588364
663,0.00983266854585207
664,0.00972763633752468
665,0.00974421478236944
666,0.00968030991173771
667,0.00974662191367058
668,0.00974865812708687
669,0.00950989866126665
670,0.00960493685416092
671,0.00956314433723142
672,0.00951160185947832
673,0.00949163210800507
674,0.00952960610012207
675,0.00951439442789295
676,0.00948492677651977
677,0.00946393158294367
678,0.00937409094074893
679,0.00932346460333331
680,0.0094993301854547
681,0.00935344726026577
682,0.00908776249008788
683,0.00881657736395267
684,0.00852966771091517
685,0.00824596938596584
686,0.00794973774380273
687,0.0077689817609156
688,0.00762199842070628
689,0.00766717339115158
690,0.00786242477779106
691,0.00802429099859221
692,0.0081234183841936
693,0.00820543467433868
694,0.00840725727595367
695,0.00829378604315583
696,0.00849239177737945
697,0.00848054929885438
698,0.00829406706068623
699,0.00830954316541012
700,0.00844980515210378
701,0.00834281500388292
702,0.00836138701527385
703,0.00838016934207391
704,0.00848356560228384
705,0.00854661064961338
706,0.00856557277346579
707,0.00857025747396848
708,0.00850096085850429
709,0.00853316769140507
710,0.00847126228655499
711,0.00841987247787293
712,0.00842325178347308
713,0.008207528677605
714,0.00801620330403649
715,0.00767342828609822
716,0.00746697702480325
717,0.00715202952514705
718,0.00715945530724822
719,0.00711564824135333
720,0.00710882700351819
721,0.00704661894485883
722,0.00725226087049805
723,0.00720521050424035
724,0.00713652465741083
725,0.00707843918252261
726,0.00703278458013277
727,0.00711596362551132
728,0.00715873815901636
729,0.00720913862679301
730,0.00732731867081385
731,0.00745981581559027
732,0.00757172155205554
733,0.00770643500087059
734,0.00783497635803139
735,0.0077627919768276
736,0.0078673563336814
737,0.00782954216445292
738,0.00779172799522445
739,0.00775391382599597
740,0.00786235258268497
741,0.00780899243854869
742,0.00781927769717318
743,0.00782956295579766
744,0.00783984821442215
745,0.00784103265141229
746,0.00779095400521778
747,0.0078032316187843
748,0.00764309991784521
749,0.00772120211408589
750,0.00760860945429559
751,0.00761361163324679
752,0.00762087468045706
753,0.00746145541422835
754,0.00737640684191266
755,0.00687747094048967
756,0.00637853503906668
757,0.00587959913764369
758,0.00501780076570387
759,0.00434880802935745
760,0.00373750970576165
761,0.00356468248502129
762,0.00371145244618172
763,0.00401850451257856
764,0.00443048340092028
765,0.0049068322149417
766,0.00543805600196936
767,0.00594511887206144
768,0.0061823778175833
769,0.00645802348499921
770,0.00664288002806971
771,0.00671087106252416
772,0.00674183010308452
773,0.00691132555818572
774,0.00686331936125905
775,0.00674257789213386
776,0.00680050565968339
777,0.00676442514891977
778,0.00675749804804116
779,0.00674609718925143
780,0.00673945300441005
