"wavelength","measurement"
380,0.00456223979434311
381,0.00448021681541315
382,0.00452146875146939
383,0.00452224150486241
384,0.00466664431379842
385,0.00503373436012322
386,0.00536645268529385
387,0.00572819296593958
388,0.00606034914458836
389,0.00637964112623315
390,0.00642505180407798
391,0.00647446791083841
392,0.00658933696665985
393,0.00671294261784786
394,0.00700442748224049
395,0.00739294730768672
396,0.00827423851104768
397,0.00925535712714344
398,0.0102364757432392
399,0.011217594359335
400,0.0117513142463872
401,0.0125700973272826
402,0.0130754720880366
403,0.0132217734852738
404,0.0133872042436187
405,0.0134207521394985
406,0.0136471355124715
407,0.0137979259873256
408,0.013905934247973
409,0.0141868316367266
410,0.0148828131210074
411,0.0149780418200295
412,0.0153413006887359
413,0.015751933726414
414,0.0157938564953733
415,0.0159592833935736
416,0.0158453440561801
417,0.0157206650295515
418,0.015977841804475
419,0.0156119685348162
420,0.0160520476935995
421,0.0160832530750015
422,0.0162430799634223
423,0.016398345617713
424,0.0164420084938802
425,0.0162765099094463
426,0.016132173778883
427,0.0157851282096731
428,0.015275043408722
429,0.0152841023651825
430,0.0153442837491276
431,0.0159434059190351
432,0.0165079768654101
433,0.017127431454259
434,0.0179399682404228
435,0.0184201269954405
436,0.0186149800864436
437,0.0189717955664174
438,0.0193286110463912
439,0.019685426526365
440,0.0198941449915123
441,0.0203043526875751
442,0.0208661057439528
443,0.0211953431739253
444,0.0215839675969205
445,0.0219725920199158
446,0.0223612164429111
447,0.0228206254486183
448,0.0230101595253263
449,0.0239374963833976
450,0.0239200399631662
451,0.0238590820363107
452,0.0238780817754038
453,0.0238970815144968
454,0.0239160812535899
455,0.0239709796147844
456,0.0240584746087727
457,0.0244425366715677
458,0.0246703245618562
459,0.0251511026709931
460,0.0252456218838317
461,0.025104636004585
462,0.0258368148444893
463,0.0252150771357936
464,0.0250056581968409
465,0.0248289777431311
466,0.024586430604018
467,0.0245621204586368
468,0.0244131542825119
469,0.0242506442517077
470,0.0248052807250837
471,0.0248479286943234
472,0.025034409688105
473,0.0254110288715455
474,0.0255629346623919
475,0.0259601549462895
476,0.025416282435165
477,0.0254586863205826
478,0.0255010902060002
479,0.0255434940914178
480,0.0254978089898056
481,0.0248783681818986
482,0.0244631795915488
483,0.0244709148682818
484,0.023892749201489
485,0.0233959219874651
486,0.0236598181297241
487,0.0238772992473614
488,0.0241181127288347
489,0.0248178579525457
490,0.0251115160654097
491,0.0253275770589624
492,0.025979650852844
493,0.0257310104904415
494,0.0261513261096353
495,0.0258403885031299
496,0.0259952029665329
497,0.0256020408911308
498,0.0257470106461501
499,0.0251920954841022
500,0.025400582829068
501,0.0252366874454782
502,0.0256848658571622
503,0.025833328639139
504,0.0255725803081384
505,0.026404629214173
506,0.0262899962522713
507,0.0264018366780682
508,0.0265717417962421
509,0.0265262775452509
510,0.0261121570671957
511,0.0264827802972986
512,0.0262110655684343
513,0.0254961477438513
514,0.0253767069873085
515,0.0249306445298689
516,0.0247481763221773
517,0.0246904369757502
518,0.0245671109125834
519,0.0250160746219155
520,0.0254411767859042
521,0.025709178416625
522,0.0259771800473457
523,0.0262451816780664
524,0.0260775997792228
525,0.0260954587508251
526,0.0261379581551139
527,0.0259802442964959
528,0.0261023809305122
529,0.0263522969464727
530,0.0263767328691708
531,0.0264227899508607
532,0.026331163527136
533,0.0265598216699536
534,0.0266058141586763
535,0.0263264955835358
536,0.0266292213707904
537,0.0264413985941208
538,0.0262635988132376
539,0.0261089121778641
540,0.0262657330927034
541,0.0260704475132261
542,0.0259149200987779
543,0.0260745755550416
544,0.0261675828955743
545,0.0260083771024549
546,0.0261713105393315
547,0.0261206338640759
548,0.0260699571888202
549,0.0260192805135646
550,0.0259081857906531
551,0.0260936777520691
552,0.0262548830106981
553,0.0259812026179432
554,0.025950058621847
555,0.026201918934853
556,0.0258447339233716
557,0.0258178599794307
558,0.0256613977708682
559,0.0254493667959676
560,0.0257656452918453
561,0.0253127952307378
562,0.0257598474975009
563,0.0253612844633164
564,0.0255182221511964
565,0.0251442681753528
566,0.0250530903996983
567,0.0248007929672641
568,0.024963549728483
569,0.024711909934825
570,0.0246857981255258
571,0.0247208029248539
572,0.0247380858932823
573,0.0246586695168709
574,0.0248187215570579
575,0.0245518992960067
576,0.0246186020973547
577,0.0246853048987028
578,0.0247520077000508
579,0.0248187105013988
580,0.0248854133027468
581,0.0252014168725989
582,0.025106505161753
583,0.0253103978822436
584,0.0249250834415295
585,0.0249429704708735
586,0.0243535049717035
587,0.0240938233679318
588,0.0238972984953044
589,0.0237007736226771
590,0.0235042487500497
591,0.0235664516503458
592,0.0237038038429046
593,0.0237099026542542
594,0.024000143439668
595,0.023901587919771
596,0.0239730036895721
597,0.0239822958046797
598,0.0238810069155585
599,0.0238516654708648
600,0.023950187890732
601,0.0240649296021889
602,0.0241143247433268
603,0.0239489865627271
604,0.0241646976164805
605,0.024000940668882
606,0.0240432528744527
607,0.0238877681835193
608,0.0236404856618963
609,0.0236273997832458
610,0.0234287539382633
611,0.0232719710913169
612,0.0230777885845487
613,0.0229924337105402
614,0.0226618148857832
615,0.0229617535045435
616,0.0226656577875909
617,0.0228886264840072
618,0.0228007567296414
619,0.022833696518685
620,0.0227307062358125
621,0.022876677523226
622,0.0223915542840233
623,0.0224168502891202
624,0.0221931464849461
625,0.021969442680772
626,0.021745738876598
627,0.0216960270787318
628,0.0215630821685214
629,0.0215106313776021
630,0.0216634231738651
631,0.0213695663653244
632,0.021479776156596
633,0.0215912973801636
634,0.0215972639671937
635,0.0216962633312632
636,0.0214958286811134
637,0.0216984007859847
638,0.0214967754826627
639,0.0216570743089171
640,0.0215055522548824
641,0.021428983532872
642,0.0213178584418631
643,0.0211942391812596
644,0.021070619920656
645,0.0209470006600525
646,0.0211040379195313
647,0.0210639715718919
648,0.0206669686993433
649,0.0209846562392516
650,0.0207003430867176
651,0.0208160633038535
652,0.0205532718894514
653,0.0201922710472074
654,0.0197639019044632
655,0.0198682935523856
656,0.019665679385449
657,0.0197397644246727
658,0.0199216945301494
659,0.0203370221232212
660,0.0204881359898824
661,0.0205126165776147
662,0.020558245253326
663,0.0204126660956886
664,0.0202581968769018
665,0.0202941217616269
666,0.0202785972723315
667,0.0202819704995363
668,0.0202753772790336
669,0.0198886742020945
670,0.0199606168635215
671,0.0198328199875765
672,0.0197191366580758
673,0.0197580788306561
674,0.0197511877701093
675,0.0197054136872082
676,0.0196155710323331
677,0.0197135394171253
678,0.0194448449821072
679,0.0193575476687871
680,0.0197333811726622
681,0.019395946997675
682,0.0188598896526067
683,0.018386893327903
684,0.0176457194228662
685,0.0169942056496837
686,0.0164424839633157
687,0.0159558891349837
688,0.0157508078845343
689,0.015844129707551
690,0.0161642374186744
691,0.0166073495744434
692,0.0167811536335714
693,0.0169035828861748
694,0.0171593911784015
695,0.0171195447897383
696,0.0173264447877206
697,0.0172892802533587
698,0.0170461959686968
699,0.0170155847109441
700,0.0172013061051472
701,0.0169956256167486
702,0.0171183012389106
703,0.0170371864548895
704,0.0172792846917491
705,0.0171098255374102
706,0.0172823676591885
707,0.0173631660622588
708,0.0172353797206747
709,0.017341704316842
710,0.0170227726322389
711,0.0169791507526872
712,0.0170484109782832
713,0.0164172787303172
714,0.0161710162347699
715,0.0154843511422336
716,0.0148770067777329
717,0.0144410402681309
718,0.0142270967695542
719,0.0142055458115185
720,0.0142682631532067
721,0.014006822421546
722,0.0143128770236151
723,0.014244080843413
724,0.0141898155641747
725,0.0141301707367324
726,0.0139901671647085
727,0.0141197571798644
728,0.0141740283441559
729,0.014296837599552
730,0.0144407684623057
731,0.0146808815614496
732,0.0148711295599319
733,0.0151774660523617
734,0.0152883233652675
735,0.0152632948071556
736,0.0153319053165527
737,0.0152995926736641
738,0.0152672800307755
739,0.0152349673878869
740,0.0153928548248582
741,0.0153043954611876
742,0.0153085597928385
743,0.0153127241244895
744,0.0153168884561404
745,0.0152825082039546
746,0.0151800069831666
747,0.0151783491315167
748,0.0148993473835616
749,0.014961469559907
750,0.01484147152775
751,0.0147367771211752
752,0.0148694542315806
753,0.0145490703588402
754,0.0144233608084718
755,0.0133805766372844
756,0.0123377924660971
757,0.0112950082949098
758,0.00968999530090319
759,0.00821211062754634
760,0.00715784858297439
761,0.00681242174974947
762,0.00696879290819025
763,0.00749574904345392
764,0.00843474933135072
765,0.00928008214292889
766,0.0103685724037728
767,0.0114632418041214
768,0.0120501752482274
769,0.0124514576462667
770,0.0127595195342065
771,0.0129052399650261
772,0.0130563705941133
773,0.0132091091164127
774,0.0130777427210791
775,0.0130637994467603
776,0.0130816465385267
777,0.0128774115325899
778,0.0129427543347501
779,0.0127884101764782
780,0.0129436276229137
