"wavelength","measurement"
380,0.0163914643148648
381,0.0168066789892272
382,0.0164782790818495
383,0.0162688528344162
384,0.0168921446943085
385,0.0176903683172397
386,0.0192535519592439
387,0.0207216375142478
388,0.0229163707449839
389,0.0231978642895512
390,0.0233781635659913
391,0.0243021626616446
392,0.0255157230755245
393,0.0256616870149223
394,0.0278477902547414
395,0.0311250156505101
396,0.0351677461567346
397,0.0403292899073598
398,0.0454908336579849
399,0.05065237740861
400,0.0544821435677104
401,0.0590776525218992
402,0.0626613109698395
403,0.0649436219736895
404,0.0668373073415989
405,0.0689044144039322
406,0.0715058004398827
407,0.074059105960342
408,0.075818235227105
409,0.078365855211415
410,0.0835856745860711
411,0.084513181580289
412,0.0882823872578591
413,0.0905338228903806
414,0.0911173579404534
415,0.0924748055119975
416,0.0926122714857818
417,0.0918521215425715
418,0.0938525972364677
419,0.0920868307368174
420,0.094399819656998
421,0.0943577236053483
422,0.0953624779095473
423,0.0962053056024014
424,0.0963522012705585
425,0.0947416739644726
426,0.0931603362280263
427,0.0912057069184661
428,0.088378105806928
429,0.0883805769599477
430,0.088814502445881
431,0.0931143441737687
432,0.0959759899924543
433,0.0992707785818601
434,0.103723529446289
435,0.105520753460488
436,0.107090716146512
437,0.108934987383953
438,0.110779258621394
439,0.112623529858836
440,0.113354591339126
441,0.114942445382962
442,0.117856484166712
443,0.119353651975719
444,0.121383887193851
445,0.123414122411983
446,0.125444357630115
447,0.126772484683816
448,0.127629485940894
449,0.131900757930814
450,0.13090487651579
451,0.130115070409307
452,0.129742835211551
453,0.129370600013795
454,0.128998364816039
455,0.129164755849898
456,0.129654075309531
457,0.130840293856627
458,0.132397308077305
459,0.13440820566889
460,0.134515245483683
461,0.133319479442051
462,0.137175004953813
463,0.133328333682958
464,0.132208416739185
465,0.131300387579201
466,0.130577812421769
467,0.130273468052923
468,0.129978369045397
469,0.129372561307142
470,0.132403919872489
471,0.13354110255506
472,0.134222802738803
473,0.137160089954222
474,0.137822744532821
475,0.139991976467486
476,0.137431202537639
477,0.137764763727116
478,0.138098324916592
479,0.138431886106069
480,0.138575099009938
481,0.135209842694691
482,0.133073322877699
483,0.133031436961817
484,0.130208318421215
485,0.127206353252369
486,0.12940915730009
487,0.130568208155722
488,0.13285883051377
489,0.135910489731302
490,0.136929381116938
491,0.137995207247378
492,0.141359221862254
493,0.139473817227889
494,0.141629405737476
495,0.139600058794811
496,0.139597467068339
497,0.136990828577753
498,0.137924765426409
499,0.134808773189031
500,0.135557511130178
501,0.134805177586102
502,0.137400133312098
503,0.138285645555132
504,0.136548463553674
505,0.141015900190552
506,0.139957532953889
507,0.140198030797883
508,0.140907193019964
509,0.140480046550816
510,0.137476429408122
511,0.139316810005471
512,0.137086163810489
513,0.132889032793534
514,0.132042137905937
515,0.129315694856516
516,0.128307974345292
517,0.12840331944924
518,0.127462165080726
519,0.129966489080923
520,0.131594698419445
521,0.132598911959283
522,0.133603125499121
523,0.134607339038958
524,0.133611102973062
525,0.133261868765589
526,0.132990365841874
527,0.132436994331317
528,0.132689294226579
529,0.133744935439525
530,0.133248621829413
531,0.133492999560889
532,0.133007424014125
533,0.133964888164273
534,0.133822373286918
535,0.132429325796379
536,0.13335145936154
537,0.132620972025326
538,0.131426850143921
539,0.130320608526038
540,0.131368079966184
541,0.13016053558927
542,0.12967747214175
543,0.130302490890247
544,0.130766023539702
545,0.129707859897944
546,0.13028347887728
547,0.130109769034178
548,0.129936059191075
549,0.129762349347973
550,0.129044706484143
551,0.130149460015659
552,0.130696837474306
553,0.129256757385595
554,0.128485697989855
555,0.129975216252474
556,0.12769263242941
557,0.127618998879087
558,0.126542372189594
559,0.125173027649276
560,0.126802698759173
561,0.124525239432944
562,0.126226520135859
563,0.124326321118882
564,0.124769193698573
565,0.123090394806147
566,0.122465025950377
567,0.121205648465972
568,0.122120034155043
569,0.120669345960202
570,0.121010718472351
571,0.121021080072771
572,0.121452712021825
573,0.121367024815294
574,0.122363923699768
575,0.120879522163847
576,0.121593671540007
577,0.122307820916167
578,0.123021970292327
579,0.123736119668487
580,0.124450269044647
581,0.126346501411262
582,0.125736419244807
583,0.126779142866885
584,0.125226673032503
585,0.124989090886143
586,0.122780703937921
587,0.121838915637453
588,0.121115441624527
589,0.120391967611601
590,0.119668493598675
591,0.120538311910322
592,0.121703441032272
593,0.121780994629292
594,0.123862947821096
595,0.123546640356025
596,0.124263221711309
597,0.124740812293314
598,0.124233434944149
599,0.124434600466077
600,0.125252176392451
601,0.126086741337667
602,0.126921643017619
603,0.126014597913578
604,0.127405787156317
605,0.12691829773272
606,0.127045155390535
607,0.126526535870387
608,0.125020167601622
609,0.125167800883274
610,0.124601735125524
611,0.12379661544893
612,0.123042249289188
613,0.12255123978823
614,0.121504535386466
615,0.123540315701235
616,0.121951414138932
617,0.12303696278052
618,0.12310451516118
619,0.123692003964683
620,0.123420351626448
621,0.124402095430452
622,0.121973358653005
623,0.122043707642537
624,0.121203319744712
625,0.120362931846887
626,0.119522543949062
627,0.119326090489427
628,0.119439256591816
629,0.119270182728405
630,0.120646168347982
631,0.118928171251406
632,0.120136421755234
633,0.121033670781781
634,0.121566872950325
635,0.121953336319792
636,0.120962605507268
637,0.122511118780401
638,0.121782983774932
639,0.122811119252121
640,0.122291469332676
641,0.122005650720442
642,0.121984216547825
643,0.121499412603161
644,0.121014608658497
645,0.120529804713833
646,0.12152318287085
647,0.121989290876416
648,0.120563527384329
649,0.122298774473505
650,0.120972907027549
651,0.121875090583013
652,0.120515493012163
653,0.118783804791143
654,0.116453937088251
655,0.117937494925018
656,0.117386657226669
657,0.11832847425768
658,0.119909408462806
659,0.122432514328881
660,0.123825364077532
661,0.124355915272461
662,0.124196421882582
663,0.124169624207958
664,0.123311151090619
665,0.123903114204732
666,0.1240773053785
667,0.124678334681771
668,0.125279865736144
669,0.122888227124528
670,0.123616101051811
671,0.123407496350378
672,0.123215510020749
673,0.12332975511046
674,0.123975270165427
675,0.12370008122103
676,0.123761154349358
677,0.124931248684972
678,0.123415853016713
679,0.123228613165388
680,0.126121410984195
681,0.124277861523941
682,0.12035097441786
683,0.117819202428773
684,0.113064629128418
685,0.109495186854833
686,0.106988948463565
687,0.104885066429742
688,0.104969534868817
689,0.106412240817144
690,0.108644104236634
691,0.112104609039562
692,0.113506925169329
693,0.115003513497693
694,0.116899274989455
695,0.116976780813672
696,0.119207324633876
697,0.119584793256237
698,0.118209539476645
699,0.118969314922309
700,0.120984808792444
701,0.12025315224134
702,0.122023805269087
703,0.122374326485819
704,0.125043333875868
705,0.12416370566144
706,0.125646424063346
707,0.127255054028654
708,0.12734884210286
709,0.12886476470079
710,0.127834264827369
711,0.127510889295837
712,0.127923325769002
713,0.124102051421545
714,0.122728805649711
715,0.1178676949666
716,0.114850171606265
717,0.112529005021261
718,0.111961696233725
719,0.113417027861405
720,0.114536699639169
721,0.112893437876958
722,0.11640681877682
723,0.116249661705285
724,0.116989385178918
725,0.117010220020159
726,0.117166298691573
727,0.11898476342054
728,0.120152932858252
729,0.122604720950777
730,0.124640546591852
731,0.127675282007593
732,0.13028917066936
733,0.133234701146355
734,0.134574405848753
735,0.134852603688883
736,0.136741100840059
737,0.137456897397829
738,0.138172693955599
739,0.13888849051337
740,0.14067406342074
741,0.141541974396325
742,0.14230777367458
743,0.143073572952834
744,0.143839372231088
745,0.144454928655949
746,0.144235605273023
747,0.145579595846572
748,0.14353096684975
749,0.144718987260595
750,0.144993274991126
751,0.144596159766944
752,0.146309820769385
753,0.145563140473941
754,0.141838200342844
755,0.131385965017882
756,0.120933729692919
757,0.110481494367957
758,0.0936267329211954
759,0.0807279777269184
760,0.0738782009601969
761,0.0733395675530762
762,0.076919040835783
763,0.0852207548389541
764,0.0955057855431917
765,0.105125893077183
766,0.115817076205868
767,0.126995551665435
768,0.132559808545242
769,0.137202425020661
770,0.14099973922705
771,0.142504101532342
772,0.144668438714551
773,0.146186295733321
774,0.145330149008135
775,0.145964515379624
776,0.146278572533537
777,0.144774464164777
778,0.146766996125075
779,0.144960220050009
780,0.147540672502582
