"wavelength","measurement"
380,0.00424937757525606
381,0.00415028934265571
382,0.00416037260338681
383,0.00413117574258265
384,0.00421311649807683
385,0.00448754994304305
386,0.00478782896255436
387,0.00506326830259003
388,0.00526572115654168
389,0.00553758615008561
390,0.00553434063558953
391,0.00552937019090726
392,0.00558890468995721
393,0.00565707052338611
394,0.00583511300251441
395,0.00613729279199981
396,0.00681007486577479
397,0.00756565136702171
398,0.00832122786826863
399,0.00907680436951556
400,0.00953852410260415
401,0.0101448243071903
402,0.0105139221793749
403,0.0106437239621557
404,0.0107101998959023
405,0.0105983101283568
406,0.0107830635103944
407,0.0109259144640974
408,0.0109386059541447
409,0.0110871040169219
410,0.0115647913832213
411,0.0115364933502139
412,0.0118486433794033
413,0.0120419828824944
414,0.0119969946571021
415,0.0120820667783765
416,0.0119162456099901
417,0.0117881618091881
418,0.0119073766711379
419,0.0115493971998625
420,0.0118724345404616
421,0.0117077064490094
422,0.0117201830051869
423,0.0117682003111686
424,0.0117675213993905
425,0.011543269414777
426,0.0113777763011485
427,0.0110466688589368
428,0.0106216155297978
429,0.010566985321503
430,0.0105342127571381
431,0.010901044898187
432,0.0113115310679847
433,0.0117251667148653
434,0.0121832329476497
435,0.0124776007181276
436,0.0124989775896274
437,0.0125743039705438
438,0.0126496303514603
439,0.0127249567323767
440,0.0127218938306893
441,0.0129213525649735
442,0.0131856241195433
443,0.0132177068204825
444,0.0133868012896514
445,0.0135558957588204
446,0.0137249902279893
447,0.0138918940559432
448,0.0139052001354521
449,0.0144266240261963
450,0.0143515522296444
451,0.0142040581876293
452,0.0141366303338781
453,0.0140692024801269
454,0.0140017746263757
455,0.0139739801721989
456,0.0138735891572138
457,0.0140722101014687
458,0.0140637013411806
459,0.0142875820425775
460,0.0142114155875397
461,0.014040271101072
462,0.0144568821273931
463,0.0139773808004418
464,0.0137909072553433
465,0.0136928134500447
466,0.0134536547607105
467,0.0134142087930703
468,0.0132553190516828
469,0.0130620036509811
470,0.013298296618818
471,0.0132356014940742
472,0.013272506572012
473,0.0133739453759561
474,0.0133855773416274
475,0.0135370330601811
476,0.0132114013467423
477,0.0131763158260912
478,0.0131412303054401
479,0.013106144784789
480,0.0131174314065817
481,0.0127572106168381
482,0.0125596744606911
483,0.0124614258669994
484,0.0121820299078558
485,0.0119027170814037
486,0.0119996760818671
487,0.0120628575726727
488,0.012114238295541
489,0.0123565632212777
490,0.0124146494949587
491,0.0124599471169957
492,0.0127246810111295
493,0.0125349135431071
494,0.0126927133082762
495,0.0124582744611181
496,0.0124290372651006
497,0.012192352932718
498,0.0122206893482198
499,0.0118679899603574
500,0.011860633491568
501,0.0116873666371346
502,0.0118062955318183
503,0.0118012853447503
504,0.0116524477020401
505,0.0119609055621273
506,0.0118962209510038
507,0.0119192247558903
508,0.0119369962116703
509,0.0119265091505035
510,0.0117096275053021
511,0.0118844382232419
512,0.0117851293049855
513,0.011408634718195
514,0.0113013830414261
515,0.0110969483346018
516,0.0109749405511227
517,0.0109231230215002
518,0.0108570671839443
519,0.0109907969708132
520,0.0111778551334037
521,0.0112721143260279
522,0.0113663735186522
523,0.0114606327112764
524,0.0113570591188056
525,0.011371890382502
526,0.011355077616969
527,0.0112485203883746
528,0.0112909565409812
529,0.0114205577561833
530,0.0113977990527772
531,0.0113982086592144
532,0.0113357500905951
533,0.0114271748609883
534,0.0114525877396038
535,0.0113216949689851
536,0.0114562297978454
537,0.0114467419018825
538,0.0114397529658689
539,0.0115621412917751
540,0.0117871131899701
541,0.0119390422169765
542,0.0120595845986734
543,0.0121856510788173
544,0.0122529533189562
545,0.0120450473133737
546,0.0119514212035795
547,0.0117104478853664
548,0.0114694745671532
549,0.01122850124894
550,0.0109881971092318
551,0.0109732963860954
552,0.0109565175846191
553,0.0107891780249047
554,0.0106278798612544
555,0.0106680498743889
556,0.010468398622202
557,0.0103968845849577
558,0.010258342078971
559,0.0101316163208696
560,0.0102087680144261
561,0.0100104169645934
562,0.0101280998086891
563,0.00994983452818068
564,0.00995070497454618
565,0.00976795830835028
566,0.00968953975844204
567,0.00952039079222471
568,0.00954175385648019
569,0.00938012090110494
570,0.00931868875276231
571,0.00930017225100574
572,0.00927001421545171
573,0.009243833457964
574,0.00927663703828548
575,0.00918466429809906
576,0.00922378778637558
577,0.0092629112746521
578,0.00930203476292862
579,0.00934115825120515
580,0.00938028173948167
581,0.00948272532852079
582,0.00942966469103748
583,0.0094573017306518
584,0.00929302762107189
585,0.00924924002836852
586,0.00891089076547753
587,0.00866929707206636
588,0.00847951283260255
589,0.00828972859313875
590,0.00809994435367495
591,0.00806857889780407
592,0.00811027451232004
593,0.00808673070022915
594,0.00817459103491206
595,0.00811355712226529
596,0.00817210568523792
597,0.00817539210892189
598,0.00821653348584763
599,0.00820243892157052
600,0.00828099620482236
601,0.00829837093229797
602,0.00833027059499261
603,0.00827429576176642
604,0.00832543722032583
605,0.00827132044810187
606,0.0083520820754774
607,0.00850915969426714
608,0.00861329211860871
609,0.00886322956778828
610,0.00898264664921483
611,0.00902044708069329
612,0.00889501580762203
613,0.00864882646275985
614,0.00830332268803038
615,0.00813021054030842
616,0.00792273919612868
617,0.00790402798350254
618,0.0078152128021166
619,0.00779070556487555
620,0.00772365887978566
621,0.00775206394493897
622,0.00754163260609123
623,0.00747789374155799
624,0.00737214633327795
625,0.00726639892499791
626,0.00716065151671787
627,0.00711870966018549
628,0.00707746997516349
629,0.00703903122322749
630,0.00708982071253837
631,0.00695331996653234
632,0.00692917442573911
633,0.00694444269212962
634,0.00689190314604945
635,0.00690115118537556
636,0.00682410000939077
637,0.00686640619966054
638,0.00676567245436029
639,0.00680060533931443
640,0.00673787383639613
641,0.0067030766138799
642,0.00662882236391295
643,0.00653437236603486
644,0.00643992236815676
645,0.00634547237027866
646,0.00634532925086697
647,0.00628100984373304
648,0.00611408728533694
649,0.00623683883390231
650,0.00615136546940185
651,0.00620628176576996
652,0.00612219674766796
653,0.00596502053020987
654,0.00586281903000637
655,0.00588606161504342
656,0.0058362025154034
657,0.00587949040458954
658,0.00595121629867796
659,0.0060917421719801
660,0.00613807652428212
661,0.00617283839820074
662,0.00618387605646425
663,0.00611449000327433
664,0.00606099918204799
665,0.00606791718941627
666,0.00606190246705274
667,0.00605538388224154
668,0.00604620753319016
669,0.00595140992958688
670,0.00594033454501239
671,0.0058835338883673
672,0.00586224882009062
673,0.00585124276315626
674,0.0058456251514177
675,0.00581465396535154
676,0.00578612135809647
677,0.00582527078576823
678,0.00572324064522407
679,0.00566802403598775
680,0.00580562707640468
681,0.00567289367204936
682,0.00554048276587799
683,0.0053960659650244
684,0.00518513883701098
685,0.00498891965079471
686,0.00481887548278571
687,0.00469992687862265
688,0.00457741893279412
689,0.00457860024354501
690,0.0046340494078219
691,0.00471586638628989
692,0.00471746902559265
693,0.00469149769876692
694,0.00481023710154687
695,0.00479255251464608
696,0.00488590512015775
697,0.0048869698979181
698,0.00482973367984596
699,0.00482400105699305
700,0.00488930997586845
701,0.00487627908571281
702,0.0049562320382492
703,0.00499316256490398
704,0.00515247055695194
705,0.00516936553178588
706,0.00526062030950855
707,0.00535310480390845
708,0.00536748859528662
709,0.00543617610190136
710,0.00534792631065848
711,0.00537012048993263
712,0.00534624968853023
713,0.00506419271142765
714,0.0048656997155779
715,0.00455483651690422
716,0.00424525229984987
717,0.00403693726594126
718,0.00398554468563845
719,0.00393040451546746
720,0.00399903708619383
721,0.00398788924310782
722,0.00410251019638041
723,0.00409688798231314
724,0.00404304709571248
725,0.0040627247025194
726,0.00405095153549688
727,0.00412371548757637
728,0.00420314087541349
729,0.00428946057934354
730,0.00447225127738412
731,0.00470411636215966
732,0.00486185382272093
733,0.00504968849438324
734,0.00520761603841079
735,0.00528011411184742
736,0.00539629358978032
737,0.00546716494390573
738,0.00553803629803114
739,0.00560890765215655
740,0.00574652108441406
741,0.0058104483249246
742,0.00583863624867205
743,0.0058668241724195
744,0.00589501209616696
745,0.0059674893713863
746,0.00592434519976109
747,0.00596959341892165
748,0.00590723289466326
749,0.00595987672707904
750,0.00592453726943871
751,0.00590967978089383
752,0.00596538334279098
753,0.0058102417939869
754,0.00585260173738314
755,0.00549686502064908
756,0.00514112830391502
757,0.00478539158718096
758,0.0041609767193556
759,0.00360483551510491
760,0.00316058624652477
761,0.00294255531633876
762,0.00299140896704366
763,0.00319134852165908
764,0.00352190117343663
765,0.00386865385673074
766,0.00433604069471352
767,0.00476061028502288
768,0.00500623912829727
769,0.00519075251509771
770,0.00530999276261348
771,0.00538832554061734
772,0.00546061686994843
773,0.00550578445329823
774,0.00542761067037682
775,0.00543377090340273
776,0.00546902349668152
777,0.0053975458370295
778,0.00542670083320432
779,0.00536825028983378
780,0.00543135203014165
