"wavelength","measurement"
380,0.00244716408076447
381,0.00239124682725112
382,0.00239882881675456
383,0.00242016571776997
384,0.00244710409312213
385,0.00263567879046145
386,0.00280501978849506
387,0.00296006671493772
388,0.00309404467317284
389,0.00324484381710879
390,0.00326267457372208
391,0.00325022883728517
392,0.00328682415968151
393,0.00335229602270456
394,0.00348636989728701
395,0.00361488948499984
396,0.00401532722000718
397,0.00446111124722502
398,0.00490689527444286
399,0.0053526793016607
400,0.00562016996761652
401,0.0059503386610049
402,0.00618504172788486
403,0.00617645746481008
404,0.00628561497526874
405,0.00625535521893353
406,0.00634152052607932
407,0.00641898473597227
408,0.00643409825092642
409,0.00652188212430554
410,0.00677956594495178
411,0.00678867681492278
412,0.00698186650291246
413,0.00713123697923808
414,0.007079211982662
415,0.00714931142047659
416,0.00708143363761784
417,0.007003062461411
418,0.00706505719283203
419,0.00691716888642674
420,0.00709027588698201
421,0.00704046339108803
422,0.00708262794984896
423,0.00712548068652084
424,0.00714007804796498
425,0.00700471505311829
426,0.00691618712313499
427,0.00674539044903584
428,0.00650254320190892
429,0.00650156168587503
430,0.00648631465214415
431,0.00670191506832818
432,0.00694954334882164
433,0.00716731928715574
434,0.00747181655280243
435,0.00762696692438907
436,0.00768129534195193
437,0.0077981406355545
438,0.00791498592915707
439,0.00803183122275964
440,0.00805860568812245
441,0.00821546405399106
442,0.00837299844177946
443,0.00848030829046508
444,0.0086172965594297
445,0.00875428482839432
446,0.00889127309735894
447,0.00906209677198543
448,0.00910144705177064
449,0.00945897511907878
450,0.00941172824270162
451,0.00934737401755563
452,0.00932071438373786
453,0.00929405474992009
454,0.00926739511610231
455,0.00923464646987756
456,0.00917720945499112
457,0.0092907793690897
458,0.00927637336802345
459,0.00945161079040649
460,0.00943158954349991
461,0.00931815014996547
462,0.00958525620117887
463,0.00931718709804941
464,0.00920722347407629
465,0.00914143978844422
466,0.00898406175166278
467,0.00895174146324959
468,0.00885264031565547
469,0.00875361239583099
470,0.00892855300654639
471,0.00888799932315474
472,0.00891728838841867
473,0.00900864007236763
474,0.00901667860939255
475,0.00912542991608939
476,0.00893848363227302
477,0.00893053026777559
478,0.00892257690327816
479,0.00891462353878073
480,0.00890594827568978
481,0.00867692851916047
482,0.00851474518852226
483,0.00849189516671621
484,0.00826275601049758
485,0.00805579677928323
486,0.00811266219844768
487,0.00816214791178508
488,0.00820384988789876
489,0.00840298166211932
490,0.00848629563559075
491,0.0085236942112624
492,0.00871812318353283
493,0.00862357956476922
494,0.00871908721944657
495,0.00861109145533175
496,0.00862084624840973
497,0.00850898181801649
498,0.008516169654059
499,0.0083152695223408
500,0.00832859965347926
501,0.00821827930224638
502,0.00833816758305406
503,0.0083475271990795
504,0.00826554277832848
505,0.00853548840428177
506,0.00850888638568028
507,0.00853608381909996
508,0.0086030462272717
509,0.00859876113652194
510,0.00847231435854897
511,0.00863493977394647
512,0.00861064482655065
513,0.00835360036382707
514,0.00831872592307861
515,0.00818128203883144
516,0.0081332007616649
517,0.00811029586443881
518,0.00809852587846678
519,0.00824033438925525
520,0.00838827904443079
521,0.00848883514492165
522,0.00858939124541251
523,0.00868994734590337
524,0.00865900438446091
525,0.00869440222301125
526,0.00872882923212888
527,0.00863819142121095
528,0.00873136800552712
529,0.00883062713537168
530,0.008839247890913
531,0.00883425133613549
532,0.00881364198613104
533,0.00890406179675242
534,0.00892262517289021
535,0.00879169255088047
536,0.00889437246072453
537,0.00883811561125395
538,0.00876596549843578
539,0.00870493359469786
540,0.00874692194497255
541,0.00870187189641287
542,0.00866628348405673
543,0.00870881515136453
544,0.00874140790215022
545,0.0086655856793269
546,0.00870911886708634
547,0.00866809532653569
548,0.00862707178598505
549,0.00858604824543441
550,0.00850450285048137
551,0.00853741708880488
552,0.0085758742047687
553,0.00849258518448397
554,0.0084206039445003
555,0.00848037059694252
556,0.00836089264076851
557,0.00832183110223641
558,0.00823251181479055
559,0.00814976019311068
560,0.00819803122921921
561,0.00803970224161892
562,0.00814981402687248
563,0.00800403964722337
564,0.00797929434040631
565,0.00783077181237057
566,0.00778374042621023
567,0.00765006838915174
568,0.007642629942493
569,0.00749247029096953
570,0.00746710807247729
571,0.00745623175371097
572,0.0074219174631343
573,0.00738384545291671
574,0.0074016989957664
575,0.00729382318559645
576,0.00730489157397374
577,0.00731595996235102
578,0.0073270283507283
579,0.00733809673910559
580,0.00734916512748287
581,0.00742280546366753
582,0.00736859713547808
583,0.00738842989131237
584,0.00722921888548483
585,0.00718223232139179
586,0.00690184597640432
587,0.00674905833874965
588,0.00661159239181658
589,0.0064741264448835
590,0.00633666049795042
591,0.00633669793110305
592,0.00638238537449811
593,0.00639327493257346
594,0.00648311888925795
595,0.00645726213402621
596,0.0065079017235218
597,0.00654786165572773
598,0.00658278535246719
599,0.00659170803379094
600,0.00666037866610166
601,0.00667686109171978
602,0.00672433080623798
603,0.0066818753235299
604,0.00672437421920275
605,0.00667271398018982
606,0.00666271719022028
607,0.00666136555449138
608,0.00655749326634319
609,0.00656476835722958
610,0.00652724578742764
611,0.00647258632849428
612,0.00640826155716282
613,0.00634374947175798
614,0.00620918513074301
615,0.00621618340807858
616,0.00613939017520026
617,0.00618692667948565
618,0.00614976578621363
619,0.00615308698774291
620,0.00609138864762057
621,0.00610218611182263
622,0.00597583455605238
623,0.00592559312192241
624,0.00584846764892656
625,0.00577134217593071
626,0.00569421670293486
627,0.00566720944073265
628,0.00559254190730839
629,0.00559993723737812
630,0.00562913847224891
631,0.00554319916275038
632,0.00555642514003634
633,0.0056034299989383
634,0.00558805733021487
635,0.00560600945451845
636,0.0055556297408018
637,0.00558018766943145
638,0.00550989580963106
639,0.0055172906780449
640,0.00548527393430877
641,0.00544823771693591
642,0.00536141405138372
643,0.00528489327386737
644,0.00520837249635103
645,0.00513185171883469
646,0.00511205781244986
647,0.00503750743796935
648,0.00490940451552805
649,0.00500158048009065
650,0.00491994781237507
651,0.00495397406888704
652,0.00488558429737268
653,0.0047822101573861
654,0.00468056218616282
655,0.00473518951711336
656,0.00465835016747839
657,0.00468698607730867
658,0.0047526955780471
659,0.00488562932285216
660,0.00489844305620809
661,0.00491532028995092
662,0.00491067611084473
663,0.00486421267925148
664,0.00483024514291022
665,0.00481235990773338
666,0.00481229842281118
667,0.00477072086995071
668,0.00479938745360201
669,0.00468174452822052
670,0.00468076399087382
671,0.00464228404715417
672,0.00462321624243518
673,0.00463876510867904
674,0.00460965727830214
675,0.00458751605194765
676,0.00458515096122057
677,0.00457561897249203
678,0.00453424530053058
679,0.00448112358059529
680,0.00457189040584239
681,0.0044866110225692
682,0.00440018788596673
683,0.00427572857439722
684,0.00409612096185714
685,0.00396475960384318
686,0.00384149492418641
687,0.00375232765148027
688,0.00367630181981707
689,0.00369568333406303
690,0.00377737223225781
691,0.00387270038848046
692,0.00389001594598472
693,0.00393455659322507
694,0.00406702699747445
695,0.00408493910046074
696,0.0042038662893951
697,0.00425076789763353
698,0.00424103344317
699,0.00428628614911889
700,0.00441369896749867
701,0.00442881563875053
702,0.00454439843884463
703,0.00463048480471013
704,0.00482303366957197
705,0.00486348385198544
706,0.00501379289750007
707,0.00512866592102273
708,0.00522386574092434
709,0.00535636469685843
710,0.00535036377833605
711,0.00543469259021723
712,0.00548499111289635
713,0.00529376248325196
714,0.00514500511307417
715,0.004839621816817
716,0.0045869804571628
717,0.0044168568389483
718,0.00442054904057819
719,0.00445935272608054
720,0.00461005061975644
721,0.00461417363654694
722,0.00482726084096958
723,0.00484148468534613
724,0.00486414578067249
725,0.00491482433594201
726,0.00493381386470015
727,0.00507829137266568
728,0.00523025953492724
729,0.00539961774810888
730,0.00567545273771428
731,0.00599587906678638
732,0.00624594652440292
733,0.00652988808808541
734,0.00677967331005893
735,0.00689458442175415
736,0.00708891878534614
737,0.00721236302371252
738,0.00733580726207891
739,0.0074592515004453
740,0.00767989075306575
741,0.00777360327718249
742,0.00786252365707991
743,0.00795144403697732
744,0.00804036441687474
745,0.00811726024516925
746,0.00809875836956263
747,0.00817622127672173
748,0.0080743076842953
749,0.00812104302603517
750,0.00809227784489404
751,0.00806041045234873
752,0.00812901157672678
753,0.00798930331799509
754,0.00798003880533869
755,0.00743141403298804
756,0.00688278926063739
757,0.00633416448828674
758,0.00545633894136621
759,0.00460890197304852
760,0.00398496601004424
761,0.00380224840604195
762,0.00394456970259751
763,0.0042354260791254
764,0.00476677134021067
765,0.00526618040382209
766,0.00587973050547029
767,0.00646186923115316
768,0.00682218182203572
769,0.0070832031159427
770,0.00722277984639083
771,0.00732711178180244
772,0.00740490813307797
773,0.00751922761724206
774,0.00742297897656244
775,0.00742083583864256
776,0.00745901718823113
777,0.00733971794576992
778,0.0073953925438128
779,0.00725894139335434
780,0.00735974547821852
