"wavelength","measurement"
380,0.0161038980318371
381,0.0156418716868961
382,0.0153385662338591
383,0.0150777554230178
384,0.0150919063225996
385,0.0158290148716908
386,0.0165287713887925
387,0.0171752871487301
388,0.0180233154449999
389,0.0184258102656753
390,0.0183320644518805
391,0.0182012734516982
392,0.0183773444172609
393,0.0186499111047489
394,0.0191556218387079
395,0.0199671628329582
396,0.0222507967084357
397,0.0247061664201415
398,0.0271615361318474
399,0.0296169058435533
400,0.0310606062485639
401,0.0332446948936669
402,0.034111802124181
403,0.0346801086207435
404,0.0348571162908707
405,0.034810182147761
406,0.0355089299596075
407,0.0355127715326968
408,0.0358692338879666
409,0.0364493866174281
410,0.037951008655599
411,0.0379648912159698
412,0.038921395964314
413,0.0395002173491018
414,0.0395895243268175
415,0.0398473073151307
416,0.0394666653172129
417,0.0390333713649175
418,0.0394938963440815
419,0.0387645311710509
420,0.0395169506400064
421,0.0394630764820715
422,0.0395402944228225
423,0.0399635968315553
424,0.0399097619925212
425,0.0391626264941096
426,0.0388039238121261
427,0.0377796105491262
428,0.0364936638959473
429,0.0365677702423146
430,0.0365747492424193
431,0.0379488340840604
432,0.0391550461517149
433,0.0403897008937479
434,0.0421927497083376
435,0.0431256994965776
436,0.0434021938014301
437,0.0441510785969625
438,0.0448999633924948
439,0.0456488481880271
440,0.0460251345282786
441,0.046798003883677
442,0.0478072981129069
443,0.0481768411147716
444,0.0489998629341895
445,0.0498228847536074
446,0.0506459065730254
447,0.051388696394446
448,0.0516054367755562
449,0.0536458679293266
450,0.0534213505815615
451,0.0530625472633192
452,0.0529677803687291
453,0.052873013474139
454,0.0527782465795488
455,0.0527553578912451
456,0.0528693463893857
457,0.0533475537552562
458,0.053677433437447
459,0.0545148064638807
460,0.0546093933589075
461,0.0540135500755473
462,0.0555627788957668
463,0.0539369724853569
464,0.053624765017937
465,0.0531336437591205
466,0.0525053335818903
467,0.0523901644459378
468,0.0519759975297257
469,0.0516901829074864
470,0.0527381211973761
471,0.0526929560441937
472,0.0528916300288103
473,0.0537253822847192
474,0.0537912171738805
475,0.0546285714902496
476,0.053349348168265
477,0.0534458121089489
478,0.0535422760496328
479,0.0536387399903167
480,0.0535854895332239
481,0.0523951140164705
482,0.0514254966989608
483,0.0512374582234991
484,0.0499182213257672
485,0.0489646587029584
486,0.0493701125273436
487,0.0498394610712856
488,0.0503205743593603
489,0.0517454871490696
490,0.0521714312168933
491,0.052673285196338
492,0.0538652436674666
493,0.0533734710413555
494,0.0542574208981781
495,0.0536041692490528
496,0.0539753797496198
497,0.0531085767473448
498,0.0534155010959183
499,0.0523267527952327
500,0.0525391423356655
501,0.0521864283942365
502,0.0530465137874964
503,0.0532948394609786
504,0.0528392060060371
505,0.0546612458056277
506,0.0546171644400203
507,0.0549258303963762
508,0.055397528642137
509,0.055565078403906
510,0.0547934798036404
511,0.0558618845929216
512,0.0555919720972219
513,0.0540042989737958
514,0.0539579374034291
515,0.0532063400030246
516,0.0530606449000632
517,0.0529905775734779
518,0.0530120200529495
519,0.054258977450496
520,0.0553128757327195
521,0.0561169961544524
522,0.0569211165761853
523,0.0577252369979181
524,0.0575205761758283
525,0.0578135586673484
526,0.0580570407451758
527,0.0580458752210029
528,0.0584423133861687
529,0.059406385774959
530,0.0595437261322944
531,0.059773856501539
532,0.0597675699441294
533,0.0605828974144065
534,0.0608298828901856
535,0.0603171149119921
536,0.0609358401436493
537,0.0606564059907041
538,0.0603015949427762
539,0.0599497153479176
540,0.0602997251397294
541,0.0598870866246404
542,0.0597362348292763
543,0.0600666048164595
544,0.0605170192298958
545,0.060084388165682
546,0.0606673483745171
547,0.0607165808380733
548,0.0607658133016295
549,0.0608150457651856
550,0.0604082449581049
551,0.0610882852641253
552,0.0617401164580227
553,0.0611816924668222
554,0.0609813875803172
555,0.061713297937396
556,0.0607486775512942
557,0.0607228463545574
558,0.0602857116177175
559,0.0598568252181937
560,0.0606082220368611
561,0.0595939544340355
562,0.0605604155168818
563,0.0596419478687411
564,0.0599425539843715
565,0.0590872093740285
566,0.0587249383937529
567,0.0580176787136409
568,0.0581797806042138
569,0.0574610459113323
570,0.0574307824064023
571,0.0574783241009539
572,0.057474834201116
573,0.0574356894047899
574,0.0579120264879801
575,0.0571224158158493
576,0.0573424728434643
577,0.0575625298710793
578,0.0577825868986944
579,0.0580026439263094
580,0.0582227009539244
581,0.0589724902708641
582,0.0587781017493942
583,0.0589989189971071
584,0.0579700178873402
585,0.0576000304632341
586,0.0556892780006621
587,0.0546620237376712
588,0.053842412315621
589,0.0530228008935708
590,0.0522031894715206
591,0.0523787934533299
592,0.0529088958911872
593,0.0530518398144562
594,0.0541034237731984
595,0.0540545385708416
596,0.0545853471518781
597,0.0551556859226883
598,0.0553333250701877
599,0.0555842067036862
600,0.0562068566580682
601,0.0565183098981495
602,0.0570147827967253
603,0.0568324492731261
604,0.0574430811399382
605,0.0571884859712005
606,0.0573397235997285
607,0.0570626083898004
608,0.0564508739451768
609,0.0564647027855065
610,0.0560792482862162
611,0.0558851131388738
612,0.0552140248827868
613,0.0550695142361251
614,0.0545282228751173
615,0.0551935452072593
616,0.0546115632736296
617,0.0551131833355319
618,0.0550395549317449
619,0.055224869921847
620,0.05508311249275
621,0.0554241841778945
622,0.054388816228456
623,0.0541942612754807
624,0.0537859178797983
625,0.053377574484116
626,0.0529692310884336
627,0.0527885292764135
628,0.0526375242704305
629,0.05250670149453
630,0.0531080137415204
631,0.0523809897230567
632,0.052920226603062
633,0.0533574523882292
634,0.0533220114549692
635,0.0538102322972246
636,0.0534731048694262
637,0.0540296349718841
638,0.0538201560402076
639,0.0539817091751085
640,0.0536408469597073
641,0.0534985737029006
642,0.0531489376140782
643,0.0526582572754033
644,0.0521675769367284
645,0.0516768965980534
646,0.0515514312531713
647,0.0514432529597368
648,0.0503770033258605
649,0.0513458393801689
650,0.0509089595242396
651,0.0513993006057489
652,0.0508460592211006
653,0.0501430265623395
654,0.0493230329630636
655,0.0500223628175962
656,0.0494339561803063
657,0.0502620452453403
658,0.0509147017870612
659,0.052319227894841
660,0.0528583541648678
661,0.0531570927211864
662,0.0534689673557177
663,0.0533223134730022
664,0.0530562410558593
665,0.0533103884732827
666,0.0533196921063956
667,0.0535085900953023
668,0.0537391247422384
669,0.0525395003729853
670,0.0529293476860335
671,0.0528081625693617
672,0.0526455626049792
673,0.0529031525635237
674,0.0529375949275634
675,0.0530695637916963
676,0.0530291849611687
677,0.0533972678655863
678,0.052811055003484
679,0.0529565790705622
680,0.0538667119176671
681,0.0530998180550672
682,0.0519344206429757
683,0.0508534456667782
684,0.0488899174405261
685,0.0473631337924634
686,0.0461250876029938
687,0.0449318411405064
688,0.0446538720764624
689,0.0447759918227748
690,0.0455071018446099
691,0.0464912984689932
692,0.0467840354124178
693,0.0472903973932372
694,0.0483215784710214
695,0.0485490517695816
696,0.0495656451216378
697,0.0502725950685348
698,0.049881662489186
699,0.0503414186632122
700,0.0514087324721091
701,0.0514289306461085
702,0.0528430901666419
703,0.0534210406515839
704,0.0548918900628941
705,0.0554575058780488
706,0.0568968315785541
707,0.0581181686175491
708,0.0586141026113704
709,0.0599684739705865
710,0.05976822830055
711,0.0602359407060577
712,0.0605034173796649
713,0.0580375689608462
714,0.0565359518912025
715,0.0530490560303677
716,0.0502120030729766
717,0.0483312524978279
718,0.0479451176809843
719,0.0487353184861036
720,0.049718247143904
721,0.0499877369125969
722,0.0518738988888738
723,0.0518054520521957
724,0.0519452443245503
725,0.0525798565202213
726,0.0528220607334265
727,0.0541828227370273
728,0.0557620990132638
729,0.0582495005451702
730,0.0605737551127626
731,0.0639254246602333
732,0.0670748135769168
733,0.0701109775954862
734,0.072614380845161
735,0.0740956253761804
736,0.0761730304953203
737,0.0776811502938965
738,0.0791892700924727
739,0.0806973898910489
740,0.0833190506320017
741,0.084565529275101
742,0.08582890641604
743,0.0870922835569791
744,0.0883556606979182
745,0.0892390303840102
746,0.0895906987697803
747,0.0905828529997045
748,0.0897976422738557
749,0.0907543365481545
750,0.0911829386531709
751,0.0908530370504686
752,0.0924206874565039
753,0.0917972835362716
754,0.0905576514746744
755,0.0842713857664442
756,0.0779851200582141
757,0.0716988543499839
758,0.0615892602873652
759,0.052300922313618
760,0.045864200274906
761,0.0444113321003936
762,0.0461813805316754
763,0.0504442014050931
764,0.056652347564305
765,0.0631390831585136
766,0.0708718443750466
767,0.0781356210178363
768,0.0825931757939485
769,0.0858270569073522
770,0.0884656076725719
771,0.0896050105127996
772,0.0910220009252014
773,0.092287085838151
774,0.0917808993514506
775,0.0922436696727631
776,0.0923722694788416
777,0.0914651057009151
778,0.0927541660448662
779,0.0915382357453923
780,0.0931296417296125
