"wavelength","measurement"
380,0.0198962289293098
381,0.0191930078543672
382,0.019224123928678
383,0.0185534071840091
384,0.0189525798958634
385,0.020148724426101
386,0.0206428673006235
387,0.0220131290163733
388,0.0226133818151965
389,0.0230894545391638
390,0.0235293768927232
391,0.0236204701522735
392,0.0241368026048944
393,0.0242690529698593
394,0.024939762221171
395,0.0264502864836836
396,0.0297077303612311
397,0.0331632493218055
398,0.0366187682823799
399,0.0400742872429544
400,0.0425761207574741
401,0.0459537424979498
402,0.0474538937556856
403,0.0488409780582565
404,0.0496950442747611
405,0.0501713933821116
406,0.0517193768633448
407,0.0528110215223718
408,0.0530846913717091
409,0.0546813574233477
410,0.0572358010934882
411,0.0578029345863487
412,0.0598623936573177
413,0.0612949893146991
414,0.0616860944301122
415,0.0626704621582639
416,0.062565576250132
417,0.0615165979244263
418,0.063109064423319
419,0.0614278292775966
420,0.0632655361759779
421,0.0625610713613439
422,0.0636050209719979
423,0.0640499499000775
424,0.0642303833690429
425,0.0629121951499171
426,0.0625476273163175
427,0.0605184726865934
428,0.058407366360874
429,0.0586899563079955
430,0.058536061964199
431,0.0607859241233
432,0.0623016990165516
433,0.0643090368073225
434,0.0669455204575313
435,0.0688587446455331
436,0.068900243670084
437,0.0699611074910066
438,0.0710219713119292
439,0.0720828351328518
440,0.0723565881195992
441,0.0737694509262841
442,0.0754417692547218
443,0.0759740451130682
444,0.0770360989706179
445,0.0780981528281675
446,0.0791602066857172
447,0.0801622370647011
448,0.0805924132625545
449,0.0833784217519532
450,0.0827701165646159
451,0.0823706456652446
452,0.082155382757842
453,0.0819401198504394
454,0.0817248569430369
455,0.0811153765717204
456,0.0807971092146933
457,0.0817989837213347
458,0.0822389662898005
459,0.0833912791909001
460,0.0830797032121336
461,0.0824446302910874
462,0.0846965939732954
463,0.0831957927503865
464,0.0817953991288536
465,0.081382264789049
466,0.080050677113611
467,0.0802101069958271
468,0.0794422327117112
469,0.0789228585657802
470,0.0808913929898523
471,0.0805036534369011
472,0.0812479875573544
473,0.0822773673812797
474,0.0826106537152758
475,0.0839716552687182
476,0.0825687554552969
477,0.0826601747196345
478,0.0827515939839721
479,0.0828430132483097
480,0.0827364615697221
481,0.0809380250831995
482,0.0796606858982962
483,0.0794899714027921
484,0.0775145856080508
485,0.0754907890974123
486,0.076255102588075
487,0.0764737252052361
488,0.0773242050338613
489,0.0792386793739852
490,0.0796564441339708
491,0.0804019805434258
492,0.0820333751487537
493,0.0810826963055344
494,0.0823095391019201
495,0.0810121024927819
496,0.0816697722785074
497,0.0800189157243916
498,0.0802704801564125
499,0.0784912825267588
500,0.0785750357430962
501,0.077782131609417
502,0.0786582505365418
503,0.0787248067706653
504,0.0778733738030868
505,0.0802923823400766
506,0.079906528735014
507,0.0801477646032216
508,0.0805158851351767
509,0.0806347850384118
510,0.0792636082495765
511,0.0802739342646734
512,0.0800279114812006
513,0.0774588825931375
514,0.076940109499011
515,0.075461341538353
516,0.0748436576209492
517,0.0744223930577665
518,0.0743666482156299
519,0.0756518162753465
520,0.0767750680169386
521,0.077486704741704
522,0.0781983414664695
523,0.0789099781912349
524,0.0786620428634379
525,0.078574972329503
526,0.0787928417219318
527,0.0781635566115583
528,0.0783643141683743
529,0.0791943159890899
530,0.079312908245374
531,0.0794323113173944
532,0.0790424174038205
533,0.0796123441855237
534,0.0799174797443932
535,0.0791329456683595
536,0.0795201678208355
537,0.079103487789131
538,0.0782361342626891
539,0.0775809750165184
540,0.0777811305946888
541,0.0772758331786645
542,0.0766150903327506
543,0.0768366110052067
544,0.0774234220796917
545,0.0766744103091008
546,0.0772697607041352
547,0.0771906283880903
548,0.0771114960720454
549,0.0770323637560004
550,0.0765332181532444
551,0.0774172136305728
552,0.0776660448618819
553,0.0769390878094137
554,0.0765105388787639
555,0.0770929388258923
556,0.0759568903649446
557,0.0757052160591737
558,0.0748932186525942
559,0.0742211254010901
560,0.0747590272225573
561,0.073518826516232
562,0.0746554326024413
563,0.0732708040402235
564,0.0735365392777011
565,0.0723543034556518
566,0.0718750847796472
567,0.0707163199386864
568,0.071041195205677
569,0.0699931896610135
570,0.0700549392392035
571,0.0698924489511345
572,0.0697306513566969
573,0.0696758842389622
574,0.0702208003209479
575,0.0692056696922152
576,0.069553753107077
577,0.0699018365219387
578,0.0702499199368005
579,0.0705980033516622
580,0.070946086766524
581,0.0720253058755213
582,0.0715916221018245
583,0.0722947813893783
584,0.0709277007583429
585,0.070553522859861
586,0.068451940844536
587,0.0671188842214166
588,0.0661103667255714
589,0.0651018492297263
590,0.0640933317338811
591,0.0641297141045527
592,0.0649132665279518
593,0.0652021238590775
594,0.0664385149226793
595,0.0665172317787495
596,0.0671757223037111
597,0.0678931126145514
598,0.0683534264729376
599,0.0684575499709848
600,0.0694704559416311
601,0.0698515041657117
602,0.0703201844873975
603,0.0704117301330212
604,0.0710766227488026
605,0.0707175830943207
606,0.0711187030478231
607,0.0706470462694924
608,0.0696863614435008
609,0.0698114219958458
610,0.0694285918228199
611,0.0691261041422877
612,0.0686176311144588
613,0.0684220743424342
614,0.0677159319804118
615,0.0684194479316898
616,0.0677961196183721
617,0.0682587348348961
618,0.0680799838765195
619,0.0683443443910832
620,0.0682869560740773
621,0.0686617779684859
622,0.0673956138568461
623,0.0668520017850489
624,0.0664839597304278
625,0.0661159176758068
626,0.0657478756211858
627,0.0653633380031371
628,0.0653289467903797
629,0.0648985773126181
630,0.065727821191563
631,0.0650363515535756
632,0.0655545247423098
633,0.0661846023291178
634,0.0661912491936378
635,0.0670202273645377
636,0.0665622760431882
637,0.0670866679083509
638,0.0668480301392187
639,0.0671965259794569
640,0.0669822144333065
641,0.0665922011681772
642,0.0663915825893757
643,0.0656809097192036
644,0.0649702368490315
645,0.0642595639788594
646,0.0643750416889917
647,0.0640437344901008
648,0.0628192598106141
649,0.0640277228326228
650,0.0635532015277216
651,0.0642439474682197
652,0.0638363271682034
653,0.0628548647022251
654,0.0618939103488243
655,0.0625369792849844
656,0.0623474433722378
657,0.0629682057668392
658,0.0639950863475787
659,0.0658409375693194
660,0.0664729786831602
661,0.0667787586278318
662,0.0673542653615164
663,0.0671987732364558
664,0.0670167457802428
665,0.0671193921469274
666,0.0672481425894259
667,0.0674749368290625
668,0.0678571279097891
669,0.066391137399967
670,0.0670074837633534
671,0.0667399194888389
672,0.0666018382256433
673,0.0668198398133199
674,0.0672164023177297
675,0.0668863384961708
676,0.0669535033749453
677,0.0676494687763584
678,0.0666023120122977
679,0.0668074247480374
680,0.0682120945990275
681,0.0670556089110952
682,0.0653430234424168
683,0.0639787975787944
684,0.0617773093244887
685,0.0598000945421808
686,0.0581701847016128
687,0.0566707193355564
688,0.0562313545353935
689,0.0564236596231633
690,0.0568779718546736
691,0.0584206485244639
692,0.058395253127468
693,0.0593852508740755
694,0.0606766694869981
695,0.0610884409367111
696,0.0623914565328071
697,0.0632161335141009
698,0.0625148027577549
699,0.0630949729934686
700,0.0644314390182766
701,0.06460422002081
702,0.066312817670041
703,0.067333728436988
704,0.0690953768253899
705,0.0696202729063948
706,0.0717768660552772
707,0.0736392475629045
708,0.0739405109648004
709,0.0756753186272279
710,0.0755388644686156
711,0.0763474409107252
712,0.0768110856960744
713,0.0734936955982135
714,0.0719194525743218
715,0.0674740218654193
716,0.0635411275817655
717,0.0609653527495897
718,0.0606522205751504
719,0.0614414911240089
720,0.0630853206414002
721,0.0632970737120267
722,0.0658421057906845
723,0.0658596751906329
724,0.0661560155791174
725,0.0665847750055523
726,0.0670653401162931
727,0.0689369295310452
728,0.071170771961259
729,0.0741865811746954
730,0.0772067661797981
731,0.0811635115584228
732,0.0854123506034761
733,0.0901478925347567
734,0.0928781460031145
735,0.0954437280689727
736,0.0980379432636965
737,0.100203841926915
738,0.102369740590133
739,0.104535639253351
740,0.107915158622467
741,0.109425513213427
742,0.111368837110066
743,0.113312161006706
744,0.115255484903345
745,0.116528908241231
746,0.117399026545392
747,0.118506837792801
748,0.118151156373839
749,0.119083654799072
750,0.120576861896289
751,0.119640185961587
752,0.121733645534285
753,0.121069579511042
754,0.120158365011473
755,0.112057981978401
756,0.103957598945329
757,0.0958572159122566
758,0.0821697641507753
759,0.0701304723132537
760,0.0609615838424692
761,0.058828742676624
762,0.0610512988924432
763,0.066776984116862
764,0.0749903291936569
765,0.0838141172658412
766,0.0946508134458525
767,0.104453297317569
768,0.11038104639816
769,0.115118784200126
770,0.118830469561991
771,0.120547339125349
772,0.122346636428926
773,0.125010466984269
774,0.124011704102317
775,0.124659142377973
776,0.125363070360512
777,0.1240447849775
778,0.126086383540585
779,0.124310471162795
780,0.126130320490495
