"wavelength","measurement"
380,0.0834904133657238
381,0.0810751705897894
382,0.0796475653858569
383,0.0778370908714536
384,0.0790164038438737
385,0.0825694009263408
386,0.0865022657360714
387,0.0911476211361465
388,0.0942493295273392
389,0.0967905722421738
390,0.096066295920614
391,0.0951579891342308
392,0.0949499793427848
393,0.0953355370698505
394,0.096870360654076
395,0.103106315071409
396,0.112921241282329
397,0.124895843438147
398,0.136870445593965
399,0.148845047749784
400,0.154601505134513
401,0.162412882616371
402,0.167691665351679
403,0.168057080294216
404,0.168569028685603
405,0.167381777528239
406,0.169548217357991
407,0.170165465321265
408,0.170487841640699
409,0.173825302251058
410,0.180523163780449
411,0.18082988046226
412,0.185358079082152
413,0.188436266149838
414,0.188343019021556
415,0.190247000818499
416,0.187881529482795
417,0.186372623347126
418,0.19018941414917
419,0.185690782273471
420,0.19053285384882
421,0.190498102811425
422,0.192224805906229
423,0.192927192420714
424,0.19392028110065
425,0.190531099176781
426,0.18887026998728
427,0.184408553364742
428,0.178866314060447
429,0.179266415369147
430,0.179564754688902
431,0.18778782461039
432,0.194999177685758
433,0.201781525514186
434,0.21085093678439
435,0.215306188550422
436,0.217663346730191
437,0.221647709803616
438,0.225632072877041
439,0.229616435950465
440,0.231333571825473
441,0.235786632269091
442,0.241685378183242
443,0.244127637357335
444,0.248698651111057
445,0.25326966486478
446,0.257840678618503
447,0.262753744082862
448,0.263928410203704
449,0.274568891353685
450,0.274300071017156
451,0.273289233790246
452,0.273407871222398
453,0.273526508654549
454,0.273645146086701
455,0.273552234152531
456,0.275690389017937
457,0.278973229755216
458,0.282183125111349
459,0.285888690770291
460,0.287268484250409
461,0.285772935247927
462,0.294100081407348
463,0.287104829747927
464,0.284103330402851
465,0.282891705001362
466,0.279761766879291
467,0.280013804834351
468,0.278509540209149
469,0.276476725257924
470,0.284047304504877
471,0.284216672296267
472,0.286796645479585
473,0.29075681021126
474,0.292834670457949
475,0.297320014949409
476,0.291465024960082
477,0.292433926021558
478,0.293402827083034
479,0.29437172814451
480,0.294504285577885
481,0.287910281513843
482,0.283839643312156
483,0.281908255999886
484,0.276114479665917
485,0.270880391665231
486,0.273843252078311
487,0.276544543924841
488,0.280269672074705
489,0.288258940337689
490,0.290356725165783
491,0.293544350226101
492,0.301052750230593
493,0.298275814453231
494,0.303920846951667
495,0.299615209215131
496,0.302068070226092
497,0.297276384969835
498,0.298976418215687
499,0.292742816883625
500,0.29408924307246
501,0.292224260475481
502,0.296971050698199
503,0.299307118582108
504,0.295822175013145
505,0.306092330632055
506,0.30521137957588
507,0.307371160433507
508,0.309695843965324
509,0.310390232140776
510,0.30579373543921
511,0.310610939430419
512,0.308877937507408
513,0.300679965610176
514,0.299776162402239
515,0.294988106564037
516,0.293622341151886
517,0.293386326567297
518,0.293052678628886
519,0.299234105024321
520,0.305617448440337
521,0.309356712540464
522,0.31309597664059
523,0.316835240740717
524,0.315797090898076
525,0.316645955030325
526,0.318220562662602
527,0.31703648855566
528,0.31847349822679
529,0.323630411817111
530,0.323995856139351
531,0.324747069325681
532,0.324428795182476
533,0.327333617302403
534,0.329321983426856
535,0.32562627332639
536,0.329393942881566
537,0.328040680193373
538,0.325707768431853
539,0.323775402886539
540,0.325599177044385
541,0.323443521021985
542,0.322080452321392
543,0.32373695574673
544,0.326643763568081
545,0.324550138464334
546,0.327788528893594
547,0.327864073225337
548,0.32793961755708
549,0.328015161888824
550,0.327395427549557
551,0.329853639431762
552,0.333546732627665
553,0.330328353218879
554,0.329380855614391
555,0.333529453461679
556,0.32919643718677
557,0.328659457978225
558,0.327157455735013
559,0.324753735583248
560,0.32862174521622
561,0.323818761661453
562,0.329506858111071
563,0.324212567425291
564,0.327326660588414
565,0.32230949430093
566,0.321064408729248
567,0.317043855589042
568,0.318906741522004
569,0.315434057674254
570,0.315623199443743
571,0.316410729555158
572,0.316658277976489
573,0.317279186384197
574,0.319359036145275
575,0.316312929315822
576,0.317808804178974
577,0.319304679042127
578,0.320800553905279
579,0.322296428768431
580,0.323792303631584
581,0.328505434410454
582,0.32714075493309
583,0.32928814027411
584,0.323715769449208
585,0.321233830658313
586,0.310987740778934
587,0.305421501216146
588,0.301398643690909
589,0.297375786165672
590,0.293352928640435
591,0.294979185875233
592,0.298543307115135
593,0.299141445596961
594,0.304855797178891
595,0.304834206959924
596,0.308630137421032
597,0.311165073184624
598,0.312680151420483
599,0.314301636274483
600,0.318053371795508
601,0.320449661798928
602,0.322942337318321
603,0.322998927142079
604,0.32665782066403
605,0.32511282992846
606,0.325837555785716
607,0.32513270474312
608,0.321358487380795
609,0.3221219441795
610,0.320092181848197
611,0.318563871222926
612,0.316593750592149
613,0.315061168502384
614,0.312721465735266
615,0.317676718535413
616,0.313443346957167
617,0.31675161953661
618,0.316703238680563
619,0.318461283661466
620,0.317740523417296
621,0.319878734058796
622,0.314062937296942
623,0.313728253802003
624,0.311653867580599
625,0.309579481359194
626,0.30750509513779
627,0.306709199490307
628,0.305804096995194
629,0.305343739029975
630,0.308581889978987
631,0.305335376516709
632,0.30816953115232
633,0.310684030471071
634,0.311813490231964
635,0.314435588002476
636,0.312234565419689
637,0.315483398068742
638,0.314386401918109
639,0.316127609476824
640,0.315002911271884
641,0.313889578824891
642,0.312333042820647
643,0.309427657995323
644,0.306522273169999
645,0.303616888344675
646,0.304534097161864
647,0.303121252149406
648,0.297543679584051
649,0.303387990343526
650,0.300903196302376
651,0.30384306112086
652,0.301070495062851
653,0.29704529501014
654,0.292002117399033
655,0.295801088972636
656,0.293267867776607
657,0.298462024976226
658,0.302795138407467
659,0.311920874476334
660,0.314462631988183
661,0.31659941286138
662,0.318832107898435
663,0.317706723757407
664,0.316126055820325
665,0.317317025496292
666,0.31900093468251
667,0.319769206035445
668,0.320723595599588
669,0.315128893185147
670,0.316923005408855
671,0.316869022531529
672,0.315630893804456
673,0.31676568799529
674,0.317919528046339
675,0.317854060843502
676,0.317900145143088
677,0.3204182228451
678,0.316360914650129
679,0.316615749084311
680,0.323627610601599
681,0.318831495115907
682,0.311177701494436
683,0.303831908917728
684,0.292396590844926
685,0.283151982121898
686,0.275297608101326
687,0.268627490012966
688,0.26672753337331
689,0.267468530118401
690,0.270879768592606
691,0.276483917829398
692,0.27778234144598
693,0.280359664973106
694,0.284745914305449
695,0.285739125670241
696,0.291376354314918
697,0.293760462304744
698,0.290529795792638
699,0.291556311266105
700,0.297308281931903
701,0.296606844987012
702,0.303205341223545
703,0.305438595157507
704,0.312104997074262
705,0.31437878748412
706,0.319668232557878
707,0.325094748499691
708,0.327695892564667
709,0.332230567460854
710,0.330904800597794
711,0.331251605581977
712,0.330912422869033
713,0.314763646287296
714,0.30513233516544
715,0.285815307620699
716,0.268065919673941
717,0.256460527573255
718,0.253756177905851
719,0.256170645795885
720,0.260571284911022
721,0.25989408720034
722,0.267939884561933
723,0.2654882852821
724,0.265296262359197
725,0.266420132905502
726,0.266111226404298
727,0.272012654280757
728,0.278050179309287
729,0.28821587546454
730,0.298196452619579
731,0.312229430322362
732,0.325973314208275
733,0.340078780350364
734,0.349727723607889
735,0.354734651366271
736,0.362911084323842
737,0.368648828830247
738,0.374386573336652
739,0.380124317843057
740,0.389742459611831
741,0.394311316603466
742,0.398900318475864
743,0.403489320348262
744,0.408078322220659
745,0.410274266374467
746,0.41164565933681
747,0.413959859489364
748,0.410603773446661
749,0.412699759399889
750,0.415176533977815
751,0.413416655389051
752,0.419362910577894
753,0.416314474611817
754,0.410114715558709
755,0.381097298000631
756,0.352079880442552
757,0.323062462884474
758,0.276694656858573
759,0.235059657838683
760,0.206627556846467
761,0.201214153995409
762,0.210306098460469
763,0.229494384567025
764,0.259653243631175
765,0.28755008516751
766,0.322178689689667
767,0.353759106646609
768,0.372859417986254
769,0.386720198334831
770,0.398237765429235
771,0.403212726354003
772,0.408531442649566
773,0.415061736245039
774,0.412828364336474
775,0.414127906137732
776,0.415792429914558
777,0.410584573894747
778,0.417331494367873
779,0.412317716849247
780,0.418428194642663
