"wavelength","measurement"
380,0.00155432722229153
381,0.00156615915249134
382,0.0015631733307716
383,0.00152279661825743
384,0.00154664142498191
385,0.00159263464024314
386,0.00171792143601237
387,0.00183372742218475
388,0.00186093766522202
389,0.0019999664698137
390,0.00190602261740569
391,0.00198914939683191
392,0.0020431405537467
393,0.00207256791989486
394,0.0021650968756411
395,0.00238878280966037
396,0.00264736955592234
397,0.00306285449779207
398,0.00347833943966181
399,0.00389382438153154
400,0.00419603630762465
401,0.00461822814479929
402,0.00495701163013397
403,0.00518751426073506
404,0.00530947842290564
405,0.00544427610033972
406,0.00572293523445127
407,0.00588950100078316
408,0.00605193619917611
409,0.00631740183034141
410,0.0066035423380602
411,0.00670828234638658
412,0.00697460960221301
413,0.00710170864026879
414,0.00715476319458595
415,0.00732129004849514
416,0.00732073978986689
417,0.00724476966539226
418,0.0073267842895471
419,0.00729602859998609
420,0.00743820580705869
421,0.00741521628553234
422,0.00752748381142546
423,0.00760340986763007
424,0.00766134419691582
425,0.00744634906549545
426,0.00742787794070097
427,0.00723518458212634
428,0.00705766005161514
429,0.00704936189351552
430,0.00701679191014576
431,0.00734742177485055
432,0.00759160426487222
433,0.00784626793218404
434,0.00819304096693316
435,0.00843969496917001
436,0.00849134785119779
437,0.00866479203251456
438,0.00883823621383134
439,0.00901168039514812
440,0.00920308988335798
441,0.00936385624446489
442,0.0096672278054106
443,0.00979757698827169
444,0.0100405492001911
445,0.0102835214121105
446,0.0105264936240299
447,0.0107576413551993
448,0.010859523737714
449,0.0113239826299733
450,0.0112472893634158
451,0.0112027399240831
452,0.011138544916725
453,0.011074349909367
454,0.0110101549020089
455,0.0109142824658493
456,0.0107949571986297
457,0.0108730348991437
458,0.0107884520620347
459,0.0109288025263813
460,0.0108644206027827
461,0.0107172797549536
462,0.0109039143393533
463,0.0105852401991723
464,0.0104880665032623
465,0.0103370858870924
466,0.0101583537944286
467,0.0101146909016566
468,0.00994786507167357
469,0.00984268664935444
470,0.0100048136394629
471,0.0099474350370776
472,0.00996267086775912
473,0.0100259298455009
474,0.010046833928812
475,0.010161405968402
476,0.00991107074013055
477,0.00989594574889952
478,0.00988082075766849
479,0.00986569576643746
480,0.00985268732179512
481,0.00964643497272144
482,0.00945497594798743
483,0.00943011277779947
484,0.00923595736518134
485,0.00901333190504255
486,0.00912517472838878
487,0.0091544803655808
488,0.00928581826446139
489,0.0094950749746472
490,0.00957759715743422
491,0.0096620104585189
492,0.00990355575934987
493,0.00980424827721809
494,0.00999629954817111
495,0.00982904580182999
496,0.0099021461305647
497,0.00976539142541649
498,0.00983297762390065
499,0.00962642483487031
500,0.00964950266929467
501,0.0095673158430998
502,0.00973042267540892
503,0.00978549852510548
504,0.00970195167072103
505,0.0100144754401405
506,0.00998337717749444
507,0.0100107369387456
508,0.0101136540215195
509,0.01010830478425
510,0.00997384025542917
511,0.0101270737207491
512,0.0100781460505586
513,0.00976324786519064
514,0.00975423728839894
515,0.00959372553814949
516,0.00954063382810966
517,0.00953962673112867
518,0.0095138686031152
519,0.00964650399346213
520,0.0098360025594436
521,0.00993634426980855
522,0.0100366859801735
523,0.0101370276905384
524,0.0100763395760899
525,0.0100695191647423
526,0.0101011530559903
527,0.0100484546759456
528,0.0101261364121796
529,0.0102452902679027
530,0.010201756423892
531,0.010287540797747
532,0.0102289080973735
533,0.0103623392866955
534,0.0103677602699057
535,0.0103159855111518
536,0.010360614122317
537,0.010322817726074
538,0.010230416339119
539,0.0101615196101822
540,0.0102042573984347
541,0.0101083253714025
542,0.010109070264346
543,0.0101164525627695
544,0.0101599962916904
545,0.0101047870927076
546,0.0101978105107926
547,0.0102034686349309
548,0.0102091267590692
549,0.0102147848832075
550,0.010084404639178
551,0.010206338323508
552,0.0102755021981635
553,0.0102044868562692
554,0.0101655372004112
555,0.0102712436627823
556,0.0101329192222828
557,0.0101197146823272
558,0.0100372125175529
559,0.00997102148518307
560,0.0101180340114664
561,0.00990356100370958
562,0.0100871562610033
563,0.00993226804980436
564,0.00999419546291391
565,0.00985870101043163
566,0.00981811223678634
567,0.00972509503963563
568,0.0097425693536418
569,0.00963328989276795
570,0.00963652783320062
571,0.00968916131234844
572,0.00967303514141349
573,0.00970194753355082
574,0.00976419219060075
575,0.00968235782784798
576,0.00975341524215611
577,0.00982447265646424
578,0.00989553007077237
579,0.00996658748508049
580,0.0100376448993886
581,0.0102207222446412
582,0.0102233730029505
583,0.010335199114484
584,0.010208628652058
585,0.0101911777345806
586,0.00996160410563512
587,0.00988592862782155
588,0.00981190091339317
589,0.0097378731989648
590,0.00966384548453642
591,0.00973743154199705
592,0.00995311412600424
593,0.0100310358352825
594,0.010311284251122
595,0.0103758544735979
596,0.0105200617978477
597,0.0106523341579327
598,0.0108035039419428
599,0.0109432273504316
600,0.0111211399018967
601,0.0112695823781347
602,0.0113918923462674
603,0.0114248009053473
604,0.0115806259358621
605,0.0115825036154454
606,0.0116916699380916
607,0.0116997481036923
608,0.0115956011867424
609,0.0116801524681077
610,0.011649382405692
611,0.0116013868848492
612,0.0115763647400126
613,0.0115360413012785
614,0.0114645358690016
615,0.0116044445377744
616,0.0115310581999011
617,0.0116104537803663
618,0.0116148884951259
619,0.0116838908122287
620,0.0116002038611426
621,0.0117198377037062
622,0.0114482449933437
623,0.0114888530861617
624,0.011393629328117
625,0.0112984055700722
626,0.0112031818120274
627,0.0111536882209536
628,0.0110649137144338
629,0.0110785663326444
630,0.0111745361622995
631,0.0110354405159806
632,0.0111063355746423
633,0.011180270013076
634,0.011206740634749
635,0.0112177082005102
636,0.0111933228016121
637,0.0112619915879814
638,0.0111869626570438
639,0.0112541191091932
640,0.0111266790315031
641,0.0111344384208541
642,0.0110081747906333
643,0.0109116520484741
644,0.0108151293063148
645,0.0107186065641556
646,0.0107117385214105
647,0.0106302621706927
648,0.0104132316195237
649,0.0106328404905093
650,0.0104902078589037
651,0.0105940947302925
652,0.0104967694088484
653,0.0103391245284535
654,0.0101842123863474
655,0.0102759003997589
656,0.0101656306023587
657,0.0102992019556974
658,0.0104008301728262
659,0.0106833223680655
660,0.0107812864329127
661,0.0107755496586478
662,0.0108300041401505
663,0.0108021140914966
664,0.0107040612975728
665,0.0107624534486508
666,0.0107698251217393
667,0.0107526244350635
668,0.0107540519482637
669,0.0106107780927957
670,0.0106423863871285
671,0.0106069827167019
672,0.0105602496070106
673,0.0105775849916787
674,0.0105694871262085
675,0.0105667641295339
676,0.0105508578850675
677,0.0106068795990695
678,0.0104615737400861
679,0.0104254136141364
680,0.010673540659708
681,0.0104795171035365
682,0.0102297134805713
683,0.00999363341028221
684,0.00964895485709925
685,0.00931365953799244
686,0.00903906235278993
687,0.00883867233576665
688,0.0086940828166356
689,0.00866013289992513
690,0.00879471795867784
691,0.00892541733383495
692,0.00895944161682373
693,0.00905779540761754
694,0.00917981332309101
695,0.00919646917961051
696,0.00938522131619647
697,0.00942040456947471
698,0.00930270320512931
699,0.0093496807087532
700,0.00946598218341885
701,0.00947081508780571
702,0.00961918992126511
703,0.00969865441112977
704,0.00997920314616666
705,0.00999167156003403
706,0.0101922730989462
707,0.0104217945497778
708,0.0104776206749443
709,0.0106341497488808
710,0.0105505711524161
711,0.0105830334048727
712,0.0105990447820753
713,0.0100967953207853
714,0.00978603719757661
715,0.00910199085317329
716,0.00857831354017722
717,0.0082104062366984
718,0.00816638274333957
719,0.00824331007640696
720,0.00827777455120007
721,0.00833321072751224
722,0.00860917769000012
723,0.00855515264544507
724,0.00851841238693427
725,0.00855175352649605
726,0.0085811649638976
727,0.00876454510557889
728,0.00899979402297909
729,0.00930873079811744
730,0.00973902266076341
731,0.0102694177265758
732,0.0107519648984387
733,0.0112774367573627
734,0.0116366539812279
735,0.0119136470650812
736,0.0122040700057279
737,0.0124494810362648
738,0.0126948920668018
739,0.0129403030973387
740,0.0133753232898082
741,0.0135599001994572
742,0.0137704810581079
743,0.0139810619167586
744,0.0141916427754094
745,0.0143314185322463
746,0.0143882344400793
747,0.0145336680231734
748,0.0144429965471313
749,0.0145762413282657
750,0.0146254832236529
751,0.014578732629386
752,0.0148481416606896
753,0.0145676651000403
754,0.0145165691905494
755,0.013509247582695
756,0.0125019259748406
757,0.0114946043669862
758,0.00983097787124976
759,0.0082442888039101
760,0.00724930376085475
761,0.00689148445940455
762,0.00718904036524174
763,0.00786105538428214
764,0.00884450744760519
765,0.0099167099309579
766,0.0112462972245714
767,0.0124407335762169
768,0.0131924808706521
769,0.0137534418912592
770,0.0142087654744137
771,0.0144420176560411
772,0.014692588514704
773,0.0148251427608717
774,0.0148814242171216
775,0.0148642196506156
776,0.0149317357943443
777,0.014772323195918
778,0.0149780597390208
779,0.0148192449953728
780,0.015044344794276
