"wavelength","measurement"
380,0.00157871133441928
381,0.00165924395315248
382,0.00162023574831536
383,0.00158972097504243
384,0.00161494423933938
385,0.00169509263684532
386,0.00178853131751453
387,0.0019011677954793
388,0.00199204905491713
389,0.00197683113972458
390,0.00207662080066535
391,0.00212362071152013
392,0.00214824838827889
393,0.00218301128365258
394,0.00225409259644824
395,0.00242885012887244
396,0.00279143270550506
397,0.00315288283828856
398,0.00351433297107205
399,0.00387578310385555
400,0.00417830734987295
401,0.00453775253554319
402,0.00486994214003071
403,0.00500234387658515
404,0.00517888775988827
405,0.00521855000635242
406,0.00549411958332949
407,0.00564856161934374
408,0.00576105411542002
409,0.00593322224866657
410,0.00625491831756435
411,0.00639721644474193
412,0.00660510151126759
413,0.00676642497999606
414,0.00675379325733198
415,0.00687007011681908
416,0.00686485779168933
417,0.00682654723052621
418,0.00680826237226986
419,0.00677301916841513
420,0.00699198314350381
421,0.00698941226654448
422,0.00700886998164247
423,0.00705368605255906
424,0.00710789599990318
425,0.00698557453837417
426,0.0069526041010313
427,0.00678791613069413
428,0.00658406433956685
429,0.00654193296183893
430,0.00659581305534282
431,0.00684719351075869
432,0.00713412410144743
433,0.00733891452503771
434,0.00768188040582508
435,0.00788075912531952
436,0.00800212917954318
437,0.00813983923764888
438,0.00827754929575459
439,0.00841525935386029
440,0.008513163083895
441,0.00876104007086539
442,0.00898732612402389
443,0.00904292684799082
444,0.00925003079939863
445,0.00945713475080645
446,0.00966423870221426
447,0.00993315729677509
448,0.00995001506362919
449,0.0103383993446249
450,0.0102701207856064
451,0.0102512597929039
452,0.0102114141621034
453,0.0101715685313029
454,0.0101317229005024
455,0.0100951561148806
456,0.0100234921646473
457,0.0101332433848403
458,0.010130065819681
459,0.0102167602600926
460,0.010182250114687
461,0.0100135321483762
462,0.0103139437835154
463,0.010056836804749
464,0.00989060623714651
465,0.00975376788389425
466,0.00969364281241494
467,0.00963868719130812
468,0.00951558626879468
469,0.00944225301110223
470,0.00962914045531647
471,0.00956327368891418
472,0.00962619434316916
473,0.00972827098258359
474,0.00977504835322048
475,0.0098914757210754
476,0.00965726374703027
477,0.00966838379013364
478,0.009679503833237
479,0.00969062387634037
480,0.00966833572029301
481,0.00946821827591609
482,0.00928874815899204
483,0.00926491409435245
484,0.00906911456768974
485,0.00891322863220845
486,0.00896707725703761
487,0.00905933281600278
488,0.00914193222773592
489,0.00941896344157839
490,0.00946380563362459
491,0.00954902884586375
492,0.00980329992704728
493,0.00970100766803598
494,0.00986585215607162
495,0.00976050701948075
496,0.00985460752422774
497,0.00971190474774496
498,0.00974254882101288
499,0.00953164781201679
500,0.00959984845019543
501,0.00953322838101487
502,0.00968419318258704
503,0.00967982521176166
504,0.00964446991880899
505,0.00994036671404695
506,0.00995438254555405
507,0.00996352557644688
508,0.0100250502065524
509,0.0100628014167537
510,0.00991190753963457
511,0.0100528227165804
512,0.0100297248587252
513,0.00977549363036234
514,0.00969657849729797
515,0.00956179251872087
516,0.00948918792472044
517,0.00949960532294244
518,0.00947466172482072
519,0.00959755836489121
520,0.00979193885106003
521,0.00990516533265177
522,0.0100183918142435
523,0.0101316182958352
524,0.010080794254565
525,0.010110677165068
526,0.0101512780565575
527,0.0100670555183396
528,0.0101537692664127
529,0.0103177760277311
530,0.0102965116887263
531,0.010330397723537
532,0.0102956973556275
533,0.0104184008671313
534,0.0104378270376764
535,0.0103666312513951
536,0.010475722644312
537,0.0104535328509075
538,0.0103617603664316
539,0.010294963234721
540,0.0103357103663349
541,0.0103082826734958
542,0.0102646422296641
543,0.0102846406755587
544,0.010302414905494
545,0.0102946027927528
546,0.0103732049220586
547,0.0103754309079346
548,0.0103776568938106
549,0.0103798828796866
550,0.0103138423913713
551,0.0103900433213186
552,0.0105031868842514
553,0.010419905007989
554,0.0103837918273588
555,0.0104750690293113
556,0.0103701960927521
557,0.0103343998700629
558,0.0102878655467218
559,0.010195652536908
560,0.010332557999863
561,0.0101330401033076
562,0.0103589943049458
563,0.0101850758616269
564,0.0102311999404738
565,0.0100710451775593
566,0.0100769067092688
567,0.00991786487354477
568,0.0100213581648534
569,0.00992034044700097
570,0.0099680334829655
571,0.00998951913479548
572,0.0100225446444085
573,0.00999009393483604
574,0.010118130133709
575,0.0100086298678931
576,0.0100850760498287
577,0.0101615222317643
578,0.0102379684136998
579,0.0103144145956354
580,0.010390860777571
581,0.0105579834398118
582,0.0105364648063013
583,0.0106434821169613
584,0.0105327011520999
585,0.0105778357731308
586,0.0102698000426458
587,0.0101356623493445
588,0.0100606000581762
589,0.0099855377670079
590,0.0099104754758396
591,0.00999474356782494
592,0.0101965006867653
593,0.010298127236589
594,0.0105068219760905
595,0.0105510416418328
596,0.0107120215623788
597,0.0108969390221707
598,0.0110039455441221
599,0.0111011759217748
600,0.0112759005559565
601,0.0113781073036173
602,0.0115464500724053
603,0.0115662074097696
604,0.0116987964962875
605,0.0117258610408543
606,0.0117752000510585
607,0.0118173583983825
608,0.011660580315516
609,0.0117366875506414
610,0.011708571734085
611,0.0116829392926635
612,0.0116141235757728
613,0.011635687827016
614,0.0115078551034459
615,0.0116793071427059
616,0.0115584947840004
617,0.0116562455780966
618,0.0116635706747002
619,0.0117244736416066
620,0.0116610509363744
621,0.0117799725318085
622,0.011552582425044
623,0.011548451630302
624,0.0114512930462489
625,0.0113541344621957
626,0.0112569758781425
627,0.0112091298606728
628,0.0112048091558924
629,0.0111573704311286
630,0.0112708497012205
631,0.0111542165855371
632,0.0111970633201625
633,0.0113038874140407
634,0.0112898745707
635,0.0113960616744243
636,0.0112833667081169
637,0.0113873821980186
638,0.011321828492161
639,0.0114133937667487
640,0.0113189831864531
641,0.0112623663348028
642,0.0112169402212534
643,0.0111119332029185
644,0.0110069261845836
645,0.0109019191662487
646,0.0109068027323768
647,0.0108771430845978
648,0.0106046956945964
649,0.0108354336710747
650,0.0107455221188205
651,0.0108352976760933
652,0.0106990218091309
653,0.0105172258074549
654,0.0103948369237692
655,0.0104964074313102
656,0.0104268564652234
657,0.0105217025033386
658,0.0106906605071636
659,0.0110004774206989
660,0.0110482296520308
661,0.0111066862449821
662,0.0111723254182183
663,0.0111183903776032
664,0.0110660124152226
665,0.0110840288289749
666,0.0110902535458471
667,0.0110675332503805
668,0.0111749555106474
669,0.0109193891846651
670,0.0110331001857042
671,0.0109608412423084
672,0.0109189691751234
673,0.0109542151738536
674,0.0109801728663739
675,0.0109414816980021
676,0.0109473317637543
677,0.0110080552177092
678,0.0108542332682918
679,0.0108870340427383
680,0.0110575378389082
681,0.0109042690935502
682,0.0106413323584058
683,0.010436515561951
684,0.0100056420741463
685,0.00966831144163085
686,0.00939854191809398
687,0.00916227563850736
688,0.00907685680170874
689,0.00909797287482926
690,0.00917165617195367
691,0.00936636699107249
692,0.00938992686438231
693,0.00946952200057497
694,0.00961668709426977
695,0.00962397339670484
696,0.00981324033143566
697,0.00989639020867684
698,0.00978086224116406
699,0.00980579876050297
700,0.00996764456449463
701,0.00994274631596013
702,0.0101548548895134
703,0.0101852874999111
704,0.0104632526777714
705,0.010540186358616
706,0.0107629124236662
707,0.0108942087314836
708,0.0110254521332604
709,0.0111856180087036
710,0.0111232857519126
711,0.0111545688366976
712,0.0111812579397133
713,0.0106676808068074
714,0.0103121775806448
715,0.00965047163404699
716,0.00906924430704814
717,0.00871558063728743
718,0.00864100212391746
719,0.00875188249925321
720,0.00877826679631272
721,0.00884017073542999
722,0.00914185196595343
723,0.00906807339980758
724,0.00913723005087114
725,0.0091248633096005
726,0.00912926758319717
727,0.00935269473515967
728,0.00960216774718832
729,0.0100026942354605
730,0.010392246624203
731,0.0109293981884682
732,0.0114445054807237
733,0.0119286600555765
734,0.0124117973223135
735,0.0126405894416119
736,0.0129996374763455
737,0.0132743713791192
738,0.013549105281893
739,0.0138238391846667
740,0.0142178920828546
741,0.0144108024528053
742,0.0146389705821868
743,0.0148671387115682
744,0.0150953068409497
745,0.0152263142338596
746,0.015276936443128
747,0.0154541364974742
748,0.0152634898100244
749,0.0154647128253869
750,0.0155436047379999
751,0.0155777663066235
752,0.015695081573797
753,0.0155723652701922
754,0.0154135389714701
755,0.0143535037117029
756,0.0132934684519358
757,0.0122334331921687
758,0.0104766825614414
759,0.00882122008222374
760,0.00777920915273611
761,0.00743178168112347
762,0.00782267525260666
763,0.00849551436549559
764,0.00962488553619303
765,0.0107687399660925
766,0.0120944619677572
767,0.013393593868239
768,0.0141698228840465
769,0.0146968576561336
770,0.015211989090314
771,0.0154289770870445
772,0.0156599915912627
773,0.0158759716623264
774,0.0158416411832653
775,0.0158262228441864
776,0.0159556243535868
777,0.0157626493429661
778,0.0160023220617
779,0.015792421498295
780,0.0160109685039531
