"wavelength","measurement"
380,0.00148197383737804
381,0.0014918109158482
382,0.00145661257628264
383,0.00145905237923412
384,0.00152177569159126
385,0.0016314168721886
386,0.00172722987501205
387,0.00184093890364921
388,0.00195012635131477
389,0.00204834719204024
390,0.00206001365762112
391,0.00205665319343658
392,0.002081116182286
393,0.00212198520187573
394,0.00224710419746505
395,0.00236817893554806
396,0.00262398046837097
397,0.00293524511401578
398,0.00324650975966058
399,0.00355777440530538
400,0.00374264523546464
401,0.0040444133985905
402,0.00421119099477976
403,0.00428786010912761
404,0.00435216251843938
405,0.00435982597939922
406,0.00448637912438911
407,0.00456758130468376
408,0.00460304516903977
409,0.00472728019531923
410,0.00494693648386889
411,0.0049923177207423
412,0.00516042134371347
413,0.00533198694134444
414,0.00532607366408315
415,0.00540777663145123
416,0.00538396723528416
417,0.00536743321496955
418,0.00543778542351539
419,0.00534346844937184
420,0.00549843570985388
421,0.0054964969384792
422,0.00554035526526469
423,0.00561164666287193
424,0.00565263426659389
425,0.00556889195134085
426,0.0055244602612684
427,0.00538208071647496
428,0.00519917311668472
429,0.00521671563897622
430,0.00522806790436222
431,0.00543151671417434
432,0.00564331776487128
433,0.00586439937842977
434,0.00612178599040885
435,0.006294475173276
436,0.00633487614094083
437,0.00645163679944741
438,0.00656839745795399
439,0.00668515811646057
440,0.0067375212370167
441,0.00687559171791838
442,0.00706299390358345
443,0.0071573331663332
444,0.00730632413928448
445,0.00745531511223575
446,0.00760430608518703
447,0.00778194688334276
448,0.00782806971598572
449,0.0081640689215768
450,0.00812128602316409
451,0.00809999940729636
452,0.00807221370601869
453,0.00804442800474103
454,0.00801664230346336
455,0.00804952502932691
456,0.00796515445149044
457,0.00811184055033632
458,0.008111434227708
459,0.00826014918565176
460,0.00824429352776664
461,0.00816621361275591
462,0.00844234055410181
463,0.00815794039320649
464,0.00809292250205976
465,0.00804858429438978
466,0.00794958975659704
467,0.00792607321599486
468,0.00785596455406207
469,0.00778149094105862
470,0.00794433233841348
471,0.00793070565585806
472,0.00796612141025012
473,0.00808239939708566
474,0.00812208209278822
475,0.00824545919748656
476,0.00806394986174746
477,0.00807004108648449
478,0.00807613231122152
479,0.00808222353595855
480,0.00808936030711762
481,0.00790612975871964
482,0.00777212512964364
483,0.00775440188681386
484,0.0075780603044381
485,0.00740746000347323
486,0.00748591781418788
487,0.00754629099459644
488,0.00763397417166676
489,0.00783914055294509
490,0.00790338346047668
491,0.00794674873061331
492,0.00813732378150992
493,0.00805638935145245
494,0.00819691447151932
495,0.00807795360362574
496,0.00811730300268238
497,0.00798149047850202
498,0.00802864119892802
499,0.00783878354538966
500,0.00787392477099163
501,0.00777304492873692
502,0.00793350715212258
503,0.00794262272059658
504,0.00787242038996717
505,0.00812653290709668
506,0.00811949422344195
507,0.00816523941880982
508,0.0082287300959938
509,0.00826090706807586
510,0.00815028629784993
511,0.00831138470358295
512,0.00826405234975753
513,0.00806936713277488
514,0.00801310770227837
515,0.00790525667121069
516,0.0078592988195301
517,0.00785828508532092
518,0.00785829189076852
519,0.00796958020017257
520,0.008186539239485
521,0.00828211132887712
522,0.00837768341826925
523,0.00847325550766137
524,0.00845663516628773
525,0.00849334886175015
526,0.00851364482710173
527,0.00846425415994832
528,0.00852574361553759
529,0.00866920033139161
530,0.00865908624405891
531,0.00868075591398222
532,0.00865943849086992
533,0.00875233484935205
534,0.00879767499463444
535,0.00870283889682222
536,0.00880113667870085
537,0.00876022609705739
538,0.00873411845988963
539,0.0086914642635408
540,0.00879233717227047
541,0.0088076464991374
542,0.00884252505901588
543,0.00890564070509295
544,0.00894928301242195
545,0.00886334246931116
546,0.0088710549084546
547,0.00881068692438733
548,0.00875031894032007
549,0.00868995095625281
550,0.00857745585043429
551,0.00862556192191461
552,0.00864477705392957
553,0.00855339404985998
554,0.00848811467349804
555,0.00853874420808078
556,0.0084340306990433
557,0.00838926468529333
558,0.00831807928337724
559,0.00823922534286295
560,0.00831630299248175
561,0.00813304092227042
562,0.0082666833966344
563,0.00810691643885891
564,0.00812246672492446
565,0.00797889363499868
566,0.00792740393053728
567,0.00781095749901045
568,0.00779450475566244
569,0.00769472937431203
570,0.0076476383608792
571,0.00765757461825419
572,0.00763071657831464
573,0.00761712636527756
574,0.00764337629728121
575,0.00754944219816895
576,0.00757532928269654
577,0.00760121636722412
578,0.00762710345175171
579,0.0076529905362793
580,0.00767887762080689
581,0.00778404520497674
582,0.00772842746784308
583,0.00775958494600328
584,0.00760408612904385
585,0.0075704158112206
586,0.00729200016855998
587,0.00713640917789184
588,0.00700205514871587
589,0.0068677011195399
590,0.00673334709036393
591,0.00675529383314838
592,0.00679317168285087
593,0.00680157749455861
594,0.00689835530891655
595,0.00686445270409676
596,0.00693183490904239
597,0.0069653491623255
598,0.00701723361322512
599,0.00704135204718292
600,0.00708852289326333
601,0.0071292704687043
602,0.00715268032957718
603,0.00712549505918247
604,0.0071764730869249
605,0.00713685429745055
606,0.00716255313432512
607,0.00718566031084051
608,0.00712718582243406
609,0.00718978041868125
610,0.00717688397029585
611,0.00713245717514622
612,0.00705788514508898
613,0.00697789177527419
614,0.00680829991326386
615,0.00681708868225057
616,0.0067183247596688
617,0.00675226039894754
618,0.00671738210881804
619,0.00672717066512023
620,0.00665477481537946
621,0.00670430057620415
622,0.00652367062427871
623,0.00650214266534421
624,0.00641462354977307
625,0.00632710443420193
626,0.00623958531863079
627,0.00622372143381363
628,0.00617189111239905
629,0.00614847262367322
630,0.00619898587047599
631,0.00610146928390053
632,0.0061334671348178
633,0.00615092625641855
634,0.00614198386212858
635,0.00616883725407775
636,0.00613152696290787
637,0.00614471664615469
638,0.00608159422068005
639,0.00609347369801654
640,0.00605782607825078
641,0.00602646106824626
642,0.00594667386426218
643,0.00586797617148976
644,0.00578927847871734
645,0.00571058078594492
646,0.00568336944352841
647,0.00563250593101887
648,0.00549843283501316
649,0.00559670885748211
650,0.00552156763893352
651,0.00554768577649428
652,0.00549541673339801
653,0.00537044712113754
654,0.00525036624614503
655,0.00531020409596799
656,0.00524771450062364
657,0.00529597678226919
658,0.00535284027009028
659,0.00550786260755888
660,0.0055352680189065
661,0.00554727844803984
662,0.00555068329492753
663,0.00551471936936987
664,0.0054630162601276
665,0.00545366157259173
666,0.00545185886326806
667,0.00543124976874142
668,0.00543456919303737
669,0.00531941434370537
670,0.0053380891774963
671,0.00528565990373792
672,0.00526270447056126
673,0.00527727861088106
674,0.00526525104286161
675,0.00524026776129389
676,0.00521358593737515
677,0.0052516823164147
678,0.00515882309039065
679,0.005144836326227
680,0.00522720410124848
681,0.00512468644602849
682,0.00503112528431288
683,0.00490486494866074
684,0.0046829410181112
685,0.00451874341255318
686,0.00439208066654624
687,0.004276469512364
688,0.00420679229258399
689,0.00423698953391754
690,0.00428780771875813
691,0.0043914554462632
692,0.00443436325792415
693,0.00447258277027593
694,0.00456018462797647
695,0.00461106414358
696,0.00471821606106148
697,0.00474471680772895
698,0.00472127882788202
699,0.00477744079329769
700,0.00487002907877865
701,0.00489856791454069
702,0.00502241866439849
703,0.00507466625184472
704,0.00525302519538104
705,0.00531476392243989
706,0.0054615983037262
707,0.00556831091669839
708,0.00563328101410681
709,0.00571866581696599
710,0.00570936699685196
711,0.00577327565157286
712,0.0058098283387833
713,0.00554087809836547
714,0.00537323319566076
715,0.00505433207315341
716,0.00475805296032917
717,0.00455395548283099
718,0.00452866626605766
719,0.00453921271859832
720,0.00468021239316379
721,0.0046434830311101
722,0.00486559096996168
723,0.00483193944622727
724,0.00483719974993791
725,0.00485864532235086
726,0.00488332499848696
727,0.00498525602275144
728,0.00513943983517117
729,0.00528956484651144
730,0.0055331547734411
731,0.00582452764692753
732,0.00608477101871166
733,0.00633573366869489
734,0.0065574153289183
735,0.00668533893432203
736,0.00685005194947083
737,0.00696258805556269
738,0.00707512416165455
739,0.00718766026774641
740,0.00737764895075799
741,0.00745604988739726
742,0.00752800623811793
743,0.0075999625888386
744,0.00767191893955926
745,0.00775114831026194
746,0.00773692198675791
747,0.0077777912885775
748,0.00769668849795285
749,0.00772497638972599
750,0.0077163644808486
751,0.00767787500757508
752,0.00775132227242895
753,0.0075516948024149
754,0.00755380845644692
755,0.00701326466181501
756,0.00647272086718311
757,0.00593217707255121
758,0.00504710161840018
759,0.00424831408338287
760,0.00369846070944337
761,0.0034982769363457
762,0.00363178905995441
763,0.00397197913330687
764,0.00444224064914543
765,0.00492735721215486
766,0.00549892704518466
767,0.00610169638672032
768,0.00643920279207125
769,0.00667916051155044
770,0.00685224833025209
771,0.00692044341768621
772,0.00703940008414423
773,0.00708629995880121
774,0.0070332990594383
775,0.00702013699359721
776,0.00704657573840409
777,0.00693203935314764
778,0.00699324057270603
779,0.00689159689263659
780,0.00694510849738804
