"wavelength","measurement"
380,0.204196924875517
381,0.196830793142757
382,0.194330949941854
383,0.19164742695534
384,0.1923945630182
385,0.201365825879977
386,0.210584951705192
387,0.220866769562926
388,0.231685678493972
389,0.23600097346846
390,0.234108238514814
391,0.232725664330676
392,0.232571715937534
393,0.234363214745804
394,0.238039326301209
395,0.251388933112934
396,0.275826700962156
397,0.305114126926252
398,0.334401552890347
399,0.363688978854443
400,0.378632405164683
401,0.400067531005661
402,0.413151373975306
403,0.4148274029015
404,0.415801515080604
405,0.413503801738857
406,0.420005377663851
407,0.42083103182053
408,0.421352639132052
409,0.429522188220669
410,0.446767050294382
411,0.446163932205597
412,0.458263228851888
413,0.464887391143615
414,0.465839402706496
415,0.471245119237763
416,0.465912505740724
417,0.463702020506751
418,0.469634391490987
419,0.461319483859609
420,0.471420137895573
421,0.470712111164437
422,0.473531936537085
423,0.476883159405596
424,0.480202977297447
425,0.470865258664975
426,0.468452195394846
427,0.455827806058248
428,0.443494917061708
429,0.442770168443573
430,0.444735633220063
431,0.462189295608145
432,0.480529842294111
433,0.496972648528586
434,0.518843505660585
435,0.531290747225786
436,0.537385960728153
437,0.547347882807613
438,0.557309804887073
439,0.567271726966533
440,0.57148235235897
441,0.584083632165328
442,0.597802514471483
443,0.605000593065714
444,0.616401569738203
445,0.627802546410692
446,0.639203523083181
447,0.650448797121045
448,0.65348755607241
449,0.681333275925986
450,0.679159410951652
451,0.677436953337462
452,0.678218634453662
453,0.679000315569861
454,0.67978199668606
455,0.682995018824234
456,0.684852880237381
457,0.692134926856989
458,0.699483932068945
459,0.712071456978181
460,0.715056476576933
461,0.708378951413708
462,0.730758017980099
463,0.712970451226075
464,0.707260627243542
465,0.703934303901692
466,0.697403823764225
467,0.697719965800517
468,0.693599624482786
469,0.690490909233406
470,0.70582256016021
471,0.707537686432617
472,0.712647846579986
473,0.723500704071139
474,0.726800032529708
475,0.737841246013124
476,0.724297176784617
477,0.726627775827874
478,0.728958374871132
479,0.731288973914389
480,0.731295413667233
481,0.716191660912247
482,0.705835033004857
483,0.70332705227328
484,0.687778573700557
485,0.673911005858759
486,0.6801720831565
487,0.688807187286611
488,0.694968609516713
489,0.713953846445656
490,0.718525282599907
491,0.726095822167219
492,0.742995901258368
493,0.736266587362363
494,0.747822586357606
495,0.739341602568899
496,0.744691123766908
497,0.731432061025302
498,0.736418776652996
499,0.721444942851523
500,0.725726017819147
501,0.719922309004229
502,0.73076737589031
503,0.734546645995171
504,0.726636911582775
505,0.749008921293061
506,0.747086197598157
507,0.751255921396175
508,0.755713048730222
509,0.756327173459948
510,0.745274973520303
511,0.755241095537814
512,0.752161083101015
513,0.730922061748191
514,0.729048101571525
515,0.716771268494951
516,0.712642045085642
517,0.711762802234724
518,0.708486043649608
519,0.722366517490041
520,0.734105763232054
521,0.741614978761901
522,0.749124194291747
523,0.756633409821594
524,0.753231156371722
525,0.754763427910016
526,0.756746485853123
527,0.753161982148955
528,0.757607051411504
529,0.766915394444104
530,0.766724827346459
531,0.768612197683083
532,0.767744033329017
533,0.773987850574563
534,0.776647012860598
535,0.768871535643906
536,0.776890283120716
537,0.773457165572483
538,0.769099125883663
539,0.764917083269296
540,0.768778308314443
541,0.764554167336662
542,0.761220822723874
543,0.764290401834578
544,0.769254278320299
545,0.76622996844124
546,0.772219587130724
547,0.772870479671718
548,0.773521372212711
549,0.774172264753704
550,0.770189652620411
551,0.776582103943838
552,0.784505299197765
553,0.777588222113793
554,0.776502082252945
555,0.785094017348815
556,0.775188725871221
557,0.774658032111256
558,0.770266946234477
559,0.765489792442318
560,0.774786592193057
561,0.763596783281932
562,0.77633756646685
563,0.766002354517311
564,0.772014764400068
565,0.762122552614443
566,0.759393906243534
567,0.751566762131493
568,0.757457362014722
569,0.751087748518267
570,0.750337524855661
571,0.753802337940291
572,0.754555706475286
573,0.754884762551727
574,0.760991662405383
575,0.752577659724223
576,0.75634930680838
577,0.760120953892536
578,0.763892600976693
579,0.767664248060849
580,0.771435895145006
581,0.78186500011646
582,0.778297830494858
583,0.784695660070887
584,0.772080524868863
585,0.768054850554453
586,0.747104567936836
587,0.735408788302851
588,0.726801997189317
589,0.718195206075783
590,0.709588414962249
591,0.712742319980925
592,0.721173268577265
593,0.723399614981581
594,0.736497433496619
595,0.736464029251689
596,0.744432240391138
597,0.750388775846439
598,0.753806012559915
599,0.757583259237073
600,0.765583284735824
601,0.771742529306116
602,0.776416726491497
603,0.775763159881804
604,0.784865298064806
605,0.781151270861004
606,0.78351302756986
607,0.782499731819186
608,0.775082886788478
609,0.776193599475449
610,0.771971994019405
611,0.770497988648593
612,0.765162352951039
613,0.764697462909419
614,0.758621359375772
615,0.770555294320666
616,0.760805413338602
617,0.768196613585122
618,0.768841300644946
619,0.772786242371192
620,0.771620200411187
621,0.775955310590443
622,0.764609434995112
623,0.762903104514667
624,0.758616480138947
625,0.754329855763226
626,0.750043231387505
627,0.750072092429112
628,0.747854259113738
629,0.746716765862079
630,0.755484002118096
631,0.747312253646133
632,0.753332973464562
633,0.760227415192025
634,0.763290604127317
635,0.769803379809956
636,0.763575808011691
637,0.774547549548791
638,0.771311091061059
639,0.775490172455054
640,0.772887031226968
641,0.772023920201312
642,0.769002319980452
643,0.763187456836475
644,0.757372593692498
645,0.751557730548522
646,0.752405844008226
647,0.751425247882507
648,0.737706748692386
649,0.751743765773669
650,0.745367933631911
651,0.753107029481408
652,0.746145805680169
653,0.737365655601107
654,0.725059788502537
655,0.735935259673553
656,0.730266753097386
657,0.74207986459058
658,0.75103236458716
659,0.772509416460803
660,0.780113568789433
661,0.785934984873675
662,0.791038363510646
663,0.790087652910869
664,0.786979632753716
665,0.790865672778422
666,0.793868288043124
667,0.796311680489925
668,0.797994660887465
669,0.786392010001988
670,0.790992636950783
671,0.791543298256045
672,0.788542665425539
673,0.792042880878556
674,0.794118670633213
675,0.794629534248397
676,0.795543958265691
677,0.800935728484502
678,0.792034548420058
679,0.793171996470654
680,0.810159038758713
681,0.796980793018925
682,0.7797274296542
683,0.762463790388685
684,0.734634698660529
685,0.710952593759658
686,0.692402451169334
687,0.673831498562409
688,0.668191826206157
689,0.668130658994762
690,0.676172946651873
691,0.687754765836098
692,0.688050543949893
693,0.694222962942694
694,0.701817174560964
695,0.703534314326532
696,0.714422687900812
697,0.719301126566833
698,0.708681900575475
699,0.708333169918749
700,0.719709581098044
701,0.714407005677001
702,0.727189822083455
703,0.729255762756344
704,0.741801043148459
705,0.743422943859486
706,0.755419584925643
707,0.765187531396866
708,0.766074903792787
709,0.775287229814058
710,0.767501500908708
711,0.764501355004831
712,0.76315777428973
713,0.724695152677493
714,0.700183003126162
715,0.653662134901341
716,0.611329259744254
717,0.582848552067472
718,0.573215908288764
719,0.574228564849214
720,0.58191696005823
721,0.577211764495896
722,0.590911224402679
723,0.585398371954053
724,0.580593773370327
725,0.580625582810422
726,0.57719130406047
727,0.586784944825399
728,0.596444996030846
729,0.615696630163115
730,0.634665294373753
731,0.662239711751265
732,0.686129143420104
733,0.713305671074329
734,0.729668329206436
735,0.738920454983846
736,0.753334506208842
737,0.762149691538314
738,0.770964876867787
739,0.779780062197259
740,0.797001580841653
741,0.802525340533065
742,0.809862045921846
743,0.817198751310627
744,0.824535456699408
745,0.827371806257282
746,0.826332079269228
747,0.831612590480318
748,0.823321071403832
749,0.828630754910486
750,0.829410531162772
751,0.825661823771666
752,0.835877114865043
753,0.830238757893977
754,0.818361748883692
755,0.761269919016037
756,0.704178089148381
757,0.647086259280725
758,0.555775111702095
759,0.471970730044463
760,0.416086488180384
761,0.403301105777708
762,0.418340082782602
763,0.456579741509199
764,0.511975298137483
765,0.56843677796241
766,0.635734694642455
767,0.697909878190863
768,0.735901274455291
769,0.764118885608359
770,0.787150431681163
771,0.797019070413316
772,0.808413617713049
773,0.819835451001781
774,0.8161265622671
775,0.818921498401781
776,0.821659265071298
777,0.813857202743946
778,0.824927766511517
779,0.815838232285674
780,0.825845413886702
