"wavelength","measurement"
380,0.00597159148082694
381,0.00582979269256937
382,0.00573475264667699
383,0.00582378844835964
384,0.00591090032674812
385,0.00615287832004911
386,0.0065804648709357
387,0.00694564948153445
388,0.00737096507928736
389,0.00755668463245793
390,0.00750232452997558
391,0.00767771909492559
392,0.00793245558353826
393,0.00814343195650516
394,0.00833767597254029
395,0.00929580767006766
396,0.010420372671534
397,0.0117968100933971
398,0.0131732475152603
399,0.0145496849371235
400,0.0152585944420843
401,0.0163704539315647
402,0.0170851856254066
403,0.0175832608279277
404,0.0178174645846167
405,0.0182610109776105
406,0.0187133494072129
407,0.019083746693324
408,0.0194779263786062
409,0.020017394095682
410,0.0209962285652636
411,0.0212809714479557
412,0.0218989605603502
413,0.0222519864899595
414,0.0222963969705561
415,0.022446629289381
416,0.0223629100851982
417,0.0219884145218954
418,0.0224381953838904
419,0.0218793738764301
420,0.0224936029675113
421,0.0223838958316884
422,0.0224879554895495
423,0.0226595728557056
424,0.0226811166426018
425,0.0219899380918126
426,0.0215883251036018
427,0.020948179626875
428,0.0204434847263532
429,0.0204165924424774
430,0.0204686868530354
431,0.0212991579614526
432,0.0220126951294033
433,0.0227164391203666
434,0.023650847937351
435,0.0240033202633411
436,0.024266626531825
437,0.0245629025553005
438,0.0248591785787759
439,0.0251554546022514
440,0.0251056285644462
441,0.0257496699440642
442,0.026078229149922
443,0.0262690713885566
444,0.0266782705493002
445,0.0270874697100438
446,0.0274966688707874
447,0.0278820842326496
448,0.0279236928349551
449,0.0287575718204334
450,0.0284879141626952
451,0.0282066083370781
452,0.0280580889736234
453,0.0279095696101686
454,0.0277610502467139
455,0.0276819290917651
456,0.0278245662976441
457,0.0280438404840339
458,0.0282323107391005
459,0.0286166734372397
460,0.0286250660647818
461,0.0282369267089739
462,0.0289155940968557
463,0.0280407030717514
464,0.0278086386747489
465,0.0275082220226611
466,0.0272541599715348
467,0.0272265033696511
468,0.0269768379622556
469,0.0268445433191959
470,0.0274068424671708
471,0.0274385200334376
472,0.0275992862454895
473,0.0279694221773287
474,0.0280571446568083
475,0.0283413688667865
476,0.0277460905427514
477,0.0277579994405221
478,0.0277699083382928
479,0.0277818172360635
480,0.0276623727419263
481,0.0270044759795187
482,0.0265989051109494
483,0.0265356289538237
484,0.025955106841885
485,0.025589715228657
486,0.0258367093263705
487,0.0260861740678587
488,0.0262986278208488
489,0.0270046136013067
490,0.0270657664427836
491,0.0273415233054202
492,0.0278117175249118
493,0.0273955150781804
494,0.0278069137367839
495,0.0272370132442808
496,0.0272954570144651
497,0.0267020185106998
498,0.0267390573106441
499,0.0260783917992943
500,0.0262037807564585
501,0.0259284668896279
502,0.0263701749626598
503,0.0263793169325938
504,0.025976215479319
505,0.026798848290802
506,0.0265619353890823
507,0.0265582237735918
508,0.0266593240519792
509,0.0265315789780073
510,0.0260244665809994
511,0.0262970407990908
512,0.0258781696903889
513,0.0249635575322413
514,0.0247927584135744
515,0.0242912302211221
516,0.0241529126104539
517,0.024022361640559
518,0.0239672152225575
519,0.0243261667247132
520,0.0245621531615356
521,0.0246819077938394
522,0.0248016624261433
523,0.0249214170584471
524,0.024557956393224
525,0.0244834444855826
526,0.0243802158346772
527,0.0242632301408924
528,0.0241815306385936
529,0.0244019580033119
530,0.0242145858563858
531,0.0241600247535732
532,0.0240295813496284
533,0.0241832527341973
534,0.0242482591266191
535,0.023881283666658
536,0.0240235071732571
537,0.023825222937094
538,0.0235933233392084
539,0.0234337939457852
540,0.0234624655973296
541,0.0233553783758728
542,0.0230794569109857
543,0.0232075159962604
544,0.0231639681236314
545,0.0229894758738478
546,0.0231448560769148
547,0.0230569815712864
548,0.0229691070656581
549,0.0228812325600297
550,0.0227486580153141
551,0.0228228460006144
552,0.0229728429017612
553,0.0227659253959827
554,0.0225908174189997
555,0.022739358100052
556,0.0222995130654942
557,0.022181547966791
558,0.0220178666000151
559,0.0218664958355684
560,0.0219655282502455
561,0.0214724159165181
562,0.0217421798166098
563,0.0212946952986842
564,0.0213018746618017
565,0.0209266114184545
566,0.0207422234993483
567,0.0204432468248986
568,0.0204696834889065
569,0.0202290671902802
570,0.0201276296789805
571,0.0200805319163412
572,0.02003803466064
573,0.0199858015717688
574,0.0201124669214589
575,0.0198451496733407
576,0.0200046139590792
577,0.0201640782448176
578,0.020323542530556
579,0.0204830068162945
580,0.0206424711020329
581,0.0210070864390717
582,0.0209514096366807
583,0.0212127201372144
584,0.0207768523338043
585,0.0207928600290913
586,0.0202555263429892
587,0.0200193181482783
588,0.0198732832058753
589,0.0197272482634723
590,0.0195812133210693
591,0.0196247806496449
592,0.0197576462995086
593,0.0197683903349342
594,0.0200333234835878
595,0.0200492788150604
596,0.0201698881437326
597,0.0203221974125315
598,0.0203201954510198
599,0.0203249125600047
600,0.0204324810242634
601,0.0206555163399133
602,0.0206884773100102
603,0.0205872062093793
604,0.0208494734788503
605,0.020710774037844
606,0.0208060927615303
607,0.0206942909800047
608,0.0205132299463329
609,0.0205249971497655
610,0.0204270216746249
611,0.0204175155450829
612,0.0202589778567392
613,0.0201551113743814
614,0.020008791800088
615,0.0203910696724204
616,0.0201351900411177
617,0.0204229751079862
618,0.0203027256969065
619,0.0204238996765836
620,0.0202942749758368
621,0.0204268260666472
622,0.0199781886502133
623,0.0199650062118683
624,0.019743017707671
625,0.0195210292034737
626,0.0192990406992765
627,0.0193325123287415
628,0.0192419321069056
629,0.019230914229968
630,0.0195358863871502
631,0.0193001857692062
632,0.0196049047275168
633,0.0198348943603766
634,0.0199707115892961
635,0.0200862981359469
636,0.0200303904299387
637,0.0203212464067426
638,0.02022953215617
639,0.0204190333879831
640,0.0203964642522742
641,0.0204329382941598
642,0.0203844968845374
643,0.0202416004975587
644,0.0200987041105801
645,0.0199558077236014
646,0.0201922853638186
647,0.0202213663720783
648,0.0198845674631433
649,0.0202565867753312
650,0.0200096450875043
651,0.0201665245809413
652,0.0199793510251354
653,0.019610849179059
654,0.0194271436366816
655,0.0197441750762694
656,0.0197318119211609
657,0.0199955745990549
658,0.0202360689050613
659,0.020673763282412
660,0.0207988298924301
661,0.020918732539596
662,0.0210322288774293
663,0.0210089389137407
664,0.0208910672955085
665,0.0210054105443402
666,0.0210124741112708
667,0.0210025995316431
668,0.0211998975878794
669,0.0208278004709998
670,0.0209999475782809
671,0.0210557825194916
672,0.020936823993659
673,0.021064919201933
674,0.0211520480316182
675,0.0210314230966943
676,0.0210943419252412
677,0.021264067593206
678,0.0210713777204735
679,0.0211037318620904
680,0.0215678152748361
681,0.021026246735964
682,0.0203663855334688
683,0.0197090004905987
684,0.0187314482116182
685,0.0178621942048782
686,0.017261550963761
687,0.0169750552388774
688,0.0169125472718915
689,0.0173016580157418
690,0.0177232579342168
691,0.0184612547433302
692,0.0187213146419163
693,0.0192467485276563
694,0.0196126190834913
695,0.0197078197852016
696,0.0201191089928654
697,0.0201755670657764
698,0.0200370277050929
699,0.02009140032926
700,0.0205583295755928
701,0.0204982466735639
702,0.0209030632072768
703,0.0208885320001222
704,0.0213612690303146
705,0.0213201036175385
706,0.0217598309059199
707,0.0219555069775984
708,0.0221274624286876
709,0.0223310837922134
710,0.0221892651014309
711,0.0221056507791055
712,0.0220243911987195
713,0.0210210896865824
714,0.020615935289983
715,0.0194766093451576
716,0.0188460218005455
717,0.0182822893415427
718,0.0182881212054817
719,0.0184770975773112
720,0.0187135724126359
721,0.0185777670958133
722,0.0188778881429013
723,0.0188973822410349
724,0.0188004618823494
725,0.0190622829116292
726,0.0190590793978678
727,0.0193463319884979
728,0.0198012407255801
729,0.0202755363013729
730,0.0207950022379964
731,0.0214100945240719
732,0.0220788446222765
733,0.0226945223900832
734,0.023157884386457
735,0.0233768823802769
736,0.0236732857640569
737,0.0238690442756291
738,0.0240648027872014
739,0.0242605612987736
740,0.0246404335737181
741,0.0247662262118134
742,0.024947738438957
743,0.0251292506661005
744,0.0253107628932441
745,0.0253330149934584
746,0.0253880482101258
747,0.0255433980849393
748,0.0252573880314439
749,0.0255061966128733
750,0.025603655933997
751,0.0254080743527713
752,0.0258094504513788
753,0.0255648458917394
754,0.0246363550243955
755,0.0224168696955655
756,0.0201973843667355
757,0.0179778990379055
758,0.0146862329854101
759,0.0121446087620421
760,0.0109398982665959
761,0.0106757080212035
762,0.01128218732512
763,0.0130153436012012
764,0.0151255647277834
765,0.0171809425256729
766,0.0194176207539583
767,0.0216162382709029
768,0.0229414105828508
769,0.0236037123953656
770,0.0244976654145123
771,0.0250772185779474
772,0.0252698508932366
773,0.0258710502431501
774,0.0256574555443416
775,0.0257613151833553
776,0.0258110626662905
777,0.0255646780788192
778,0.0258815710076019
779,0.0256170961756492
780,0.0258899595416698
