"wavelength","measurement"
380,0.00363471659274694
381,0.00353260567454352
382,0.00349746881862436
383,0.00344473545403864
384,0.00346065472412284
385,0.00361593787007928
386,0.00375628529933224
387,0.00390395538858992
388,0.00410444996443412
389,0.00415867576348509
390,0.0041009677431
391,0.00409921696897887
392,0.00411543429921118
393,0.00415643814734892
394,0.00426372814919941
395,0.00452373830260907
396,0.00499856605300786
397,0.00552228826089246
398,0.00604601046877706
399,0.00656973267666166
400,0.00680012160105403
401,0.00715744549806093
402,0.00743332328330589
403,0.00746505929606876
404,0.00750450807496841
405,0.00748141197798424
406,0.00756331967979438
407,0.00760752993500903
408,0.00766495016426828
409,0.00778102740079256
410,0.00812880298576754
411,0.00806583401391042
412,0.00831130988693055
413,0.0084178638899864
414,0.00836467503365231
415,0.00843394745920624
416,0.00830353757461167
417,0.00821305110368794
418,0.00833195736175881
419,0.00817006109088872
420,0.00834911681128684
421,0.00833115305516621
422,0.00835174681748017
423,0.00842308889906546
424,0.00840457666138824
425,0.00825400542379059
426,0.00813178433604382
427,0.00790530022423731
428,0.00769466031483216
429,0.00768607900595822
430,0.00770145181722831
431,0.008039251141107
432,0.00835842407097927
433,0.00862766420044753
434,0.00899915430483198
435,0.00917676332261076
436,0.00929645186113849
437,0.00944381748004907
438,0.00959118309895965
439,0.00973854871787023
440,0.00979983512595054
441,0.0100218402883682
442,0.010206662290655
443,0.0103470779377006
444,0.010561270106821
445,0.0107754622759414
446,0.0109896544450618
447,0.0112047749155427
448,0.0112550751335725
449,0.0116553831445866
450,0.0115906305175751
451,0.011480930067361
452,0.0114311068054965
453,0.0113812835436321
454,0.0113314602817676
455,0.0113097179288691
456,0.011287281334026
457,0.0113806292399814
458,0.0113783682278569
459,0.0115410986318248
460,0.0114956272702332
461,0.0113188535519181
462,0.0116044429194308
463,0.0111930255777271
464,0.0110855167613062
465,0.0109450864072974
466,0.0107700908146073
467,0.0107452500500715
468,0.0105897898852913
469,0.0105110040307018
470,0.0107247787103455
471,0.0106674388386835
472,0.0107016832779692
473,0.0107917454751554
474,0.0107649802656478
475,0.0108795395859508
476,0.0106043623758797
477,0.010588025755288
478,0.0105716891346962
479,0.0105553525141044
480,0.0105287881283075
481,0.0102532905331442
482,0.0100611443500478
483,0.0100450845442594
484,0.00986175755115028
485,0.00966432176479325
486,0.00978630997371422
487,0.00989460266592198
488,0.0100060243103402
489,0.0102584473076295
490,0.0103584040720902
491,0.0104288610778678
492,0.0106841025345041
493,0.0105345263487368
494,0.0106909171201445
495,0.0105535538720447
496,0.0105683174905703
497,0.010373395714213
498,0.0104428875392612
499,0.010206237397124
500,0.010275534176667
501,0.0101938812840442
502,0.0103915118899064
503,0.010450561696612
504,0.0103406771626161
505,0.0106855148925866
506,0.0106221137434714
507,0.0106613201556218
508,0.0107343677034391
509,0.0107234549600425
510,0.0105187916262728
511,0.0106894057359005
512,0.0105581358281798
513,0.0102547295992335
514,0.0101696259553611
515,0.0100018571577474
516,0.00995916612715336
517,0.00993366212548168
518,0.0099126325814692
519,0.0101167322879106
520,0.0102426700225968
521,0.0103210439033256
522,0.0103994177840545
523,0.0104777916647833
524,0.0103740612035847
525,0.010398233092896
526,0.0103725024073173
527,0.0102972707385019
528,0.0103303052848985
529,0.0104149641112367
530,0.0104117569554824
531,0.0103935786828564
532,0.0103511980796214
533,0.0104506586894468
534,0.010479542098534
535,0.0103431170800235
536,0.010461513247224
537,0.0103904951077303
538,0.0102817618677845
539,0.0102459267320274
540,0.0103075564997358
541,0.010211524770374
542,0.0101309709336201
543,0.0101959099373567
544,0.0102231043497454
545,0.0101317019170256
546,0.0101950213976355
547,0.0101782929281393
548,0.0101615644586431
549,0.0101448359891469
550,0.0100959780910569
551,0.0101313777392183
552,0.0102354554941883
553,0.010111198391912
554,0.0100912179012005
555,0.0101671774302083
556,0.0100478952449216
557,0.0100083465024773
558,0.00993889777312784
559,0.0098489265506374
560,0.00995972628016731
561,0.00976867172986694
562,0.00991839513400977
563,0.00974950376136916
564,0.00976901059732423
565,0.0096269929881816
566,0.00956532542540451
567,0.00944981400044746
568,0.00951157942716914
569,0.00940622037384786
570,0.00935936110004767
571,0.00937063642479159
572,0.00937374572851161
573,0.00934793016959311
574,0.00941424614864002
575,0.00931060005649812
576,0.00937969975733222
577,0.00944879945816633
578,0.00951789915900043
579,0.00958699885983453
580,0.00965609856066864
581,0.00981013225235318
582,0.00980012239095512
583,0.00990328923409194
584,0.0097493359586442
585,0.00976068632032804
586,0.009524290484172
587,0.00942634771640148
588,0.0093505544106427
589,0.00927476110488392
590,0.00919896779912514
591,0.00924765275685266
592,0.00932037518621183
593,0.00934049764941175
594,0.00947193700495749
595,0.00946866256770833
596,0.00953945036604192
597,0.00959546814570645
598,0.009584802111595
599,0.00960246178253898
600,0.0096840000835814
601,0.00976704832486506
602,0.00982977136740842
603,0.00977853608222233
604,0.00986039709990527
605,0.00982401004196952
606,0.00986364572715959
607,0.00983363035321632
608,0.00973848706467607
609,0.00976310649179053
610,0.00971162343613587
611,0.0096687568096612
612,0.00961760852455738
613,0.009582399833717
614,0.00948111396962268
615,0.00961562824543762
616,0.00952879495433832
617,0.00963061885412619
618,0.00961561706956932
619,0.00962325898052622
620,0.00958897698479274
621,0.00966882268040711
622,0.00944642993161938
623,0.00942435884516426
624,0.00932415400820436
625,0.00922394917124445
626,0.00912374433428454
627,0.00908381958845966
628,0.00904821017828184
629,0.00903694718800289
630,0.00915984331345357
631,0.00907687733775805
632,0.00918859334053649
633,0.00926596347272303
634,0.00933724328773841
635,0.00939104217548715
636,0.00933495449467998
637,0.00946213225593135
638,0.00939656836988619
639,0.00948898256619212
640,0.0094691484177373
641,0.00946801909662529
642,0.00945002706814276
643,0.00939251259381488
644,0.00933499811948701
645,0.00927748364515914
646,0.00931396746091942
647,0.0093107309737762
648,0.00916831190629625
649,0.00935099231088359
650,0.0092569982366524
651,0.00929379238920346
652,0.00920690706281988
653,0.00908064586989986
654,0.00895048104215373
655,0.00904642833151815
656,0.00900620990330618
657,0.0091120023361166
658,0.00923669412081473
659,0.00946326670507184
660,0.00953773550077021
661,0.00958473264629485
662,0.00961383498021444
663,0.00957390787991447
664,0.00952165001693927
665,0.00957798307268666
666,0.0095848835324176
667,0.00963126164164738
668,0.00965996838016565
669,0.00949576081447879
670,0.00955929086595416
671,0.00951277217882539
672,0.00952205493318478
673,0.0095694546166616
674,0.00960727582231533
675,0.00958670400015189
676,0.00958866542405078
677,0.00967426727392557
678,0.00958130183213508
679,0.00956172161207509
680,0.00979498516211352
681,0.00961954848450369
682,0.00932249544393821
683,0.0090597599525681
684,0.00859132447195285
685,0.00822446474822994
686,0.00791787688937543
687,0.00771839539804642
688,0.00771437234434765
689,0.00785673926673153
690,0.00810646731956197
691,0.00837722865661462
692,0.00854421835716354
693,0.00868197014724819
694,0.00891182478443965
695,0.00894862333605219
696,0.00911110286331185
697,0.00915038618412723
698,0.00905789381462467
699,0.00910749558157988
700,0.00927513670409245
701,0.00923839969454339
702,0.00938313204176171
703,0.00942726450295791
704,0.00959606147548983
705,0.00959604043702411
706,0.00974997975551968
707,0.0098693841610486
708,0.00988296382257801
709,0.00996693340280123
710,0.00986046621080164
711,0.0098827082506175
712,0.00985586285302398
713,0.00943538531440736
714,0.00921516625866002
715,0.00872907337032585
716,0.00835759832180241
717,0.00811166538172708
718,0.00804417642097037
719,0.00811338252447293
720,0.00821554331137345
721,0.00814918134550462
722,0.00833011198103944
723,0.00827763637853085
724,0.00826820426482434
725,0.00829818705679527
726,0.00826659631452454
727,0.00842839065554844
728,0.00854994067307516
729,0.00877972050874067
730,0.00899270845542881
731,0.00927582197220853
732,0.00950350926554058
733,0.00978015372501231
734,0.00993872734582264
735,0.0100246787752648
736,0.0101506700201026
737,0.0102337190040366
738,0.0103167679879705
739,0.0103998169719045
740,0.01055801761738
741,0.0106253886939382
742,0.010691884942728
743,0.0107583811915178
744,0.0108248774403077
745,0.0108601219598116
746,0.0108593297322953
747,0.0109176218613934
748,0.0107986105717288
749,0.0109167367132635
750,0.0109108437819911
751,0.0108420269710056
752,0.0110410338573521
753,0.0109071035972701
754,0.0106581821160617
755,0.00973308080471151
756,0.0088079794933613
757,0.00788287818201109
758,0.0064931488234705
759,0.00532799190135476
760,0.00468184447731251
761,0.00452114582436797
762,0.00477699088195695
763,0.00545914499903216
764,0.00636879930286178
765,0.0072482039265612
766,0.0082663750740454
767,0.00924030516086275
768,0.00982494016804075
769,0.0102700303494896
770,0.0106034403882489
771,0.0107799601071213
772,0.0109594351587043
773,0.0111093988733665
774,0.0110650188488864
775,0.0111450791037179
776,0.0111796883094497
777,0.0110508216144382
778,0.0112253029533589
779,0.0110898640656054
780,0.0112579931409091
