"wavelength","measurement"
380,0.00231226638922451
381,0.00229058542968123
382,0.00232833553369745
383,0.00227796351420448
384,0.00231549040828573
385,0.002444310152217
386,0.00259529059215517
387,0.00268776556987623
388,0.00293740957578656
389,0.00299429354649492
390,0.00292374332337077
391,0.00300338389504196
392,0.00309901594241082
393,0.00316061161880921
394,0.00329756486331375
395,0.00352709603639777
396,0.00397187866275066
397,0.00446951958171539
398,0.00496716050068012
399,0.00546480141964485
400,0.00578976860758155
401,0.00616421152413525
402,0.0064842759373959
403,0.00659603933587599
404,0.00669023136163609
405,0.00681470112672596
406,0.00694299155973335
407,0.00710761643955728
408,0.00723230517954217
409,0.00738455961335018
410,0.00779579639931718
411,0.00780990083836842
412,0.00799734551215639
413,0.00820864774422157
414,0.008205290028093
415,0.00827500945218722
416,0.00819981894536144
417,0.00818526437756161
418,0.00822249064468423
419,0.00807985266559819
420,0.00828852208035054
421,0.00827939439490616
422,0.00833914949530783
423,0.00840300862175043
424,0.00847778591471383
425,0.00828391549832333
426,0.00820749564390514
427,0.00794796399620452
428,0.00774708230893964
429,0.00776927064421865
430,0.00780900224710379
431,0.00812474097572278
432,0.00846609081558281
433,0.00875318444948329
434,0.00916498413589467
435,0.00933906436487517
436,0.00943317725697928
437,0.00960615825765265
438,0.00977913925832603
439,0.0099521202589994
440,0.0100097133575715
441,0.0102490176996281
442,0.0104810732144095
443,0.0106601825099686
444,0.0108843647058776
445,0.0111085469017866
446,0.0113327290976956
447,0.0115072583546647
448,0.0116400392630926
449,0.0119990439892676
450,0.0119419639563897
451,0.0118747768059081
452,0.0118362733648907
453,0.0117977699238733
454,0.011759266482856
455,0.0117350018903205
456,0.0117862881273943
457,0.0118687880614035
458,0.0118742058312814
459,0.0120408309972221
460,0.0120259868980349
461,0.0119091471930361
462,0.0121762670207726
463,0.0118110721127821
464,0.0116634019882365
465,0.0115469673357076
466,0.0113475761894605
467,0.0113469737394096
468,0.0112678683013173
469,0.011174849248745
470,0.0114048049019112
471,0.0113313923815565
472,0.0113891922230419
473,0.0115333737884084
474,0.0114975079365877
475,0.0116410794811461
476,0.0113728280785889
477,0.0113541404324027
478,0.0113354527862165
479,0.0113167651400303
480,0.0112727713108305
481,0.0110272605661365
482,0.0108447966080435
483,0.0108170508255583
484,0.0106105824894751
485,0.010447301412959
486,0.0105988938777828
487,0.0107191215274598
488,0.0108738360020066
489,0.011164330024288
490,0.0112389188841061
491,0.0113439038008441
492,0.0116380692063657
493,0.0114666967262871
494,0.0117105172398546
495,0.0114942488180866
496,0.0115555838531964
497,0.011367653934004
498,0.0114233420007105
499,0.0112208651408971
500,0.0113050829634727
501,0.0111980812669972
502,0.0114446021745214
503,0.0115236004580455
504,0.0114091583819991
505,0.0118095775113114
506,0.0117294704820065
507,0.0117907865773553
508,0.0118600933699506
509,0.0118679223586071
510,0.011672366177639
511,0.0118431503549914
512,0.0116875805722016
513,0.011392197998981
514,0.0113206421456461
515,0.0111242500465775
516,0.0110387310865729
517,0.011048723547175
518,0.0110290646026016
519,0.0112401499152804
520,0.0114516079017259
521,0.0115304498754401
522,0.0116092918491543
523,0.0116881338228685
524,0.0115846079113729
525,0.0115919809867017
526,0.0115955711399825
527,0.0114930907060706
528,0.0115611167036573
529,0.0116479068409443
530,0.0116483028783208
531,0.0116544112641854
532,0.0115962473518008
533,0.0116892652540275
534,0.0117498582321201
535,0.0116012294041185
536,0.0117213179504006
537,0.0116504271711368
538,0.0115540540990077
539,0.0114895276843188
540,0.0115471919732669
541,0.0114880958377105
542,0.0114080588248124
543,0.0114549879073261
544,0.0114753875146261
545,0.0113904961271309
546,0.0114559175963785
547,0.011428632977871
548,0.0114013483593635
549,0.011374063740856
550,0.0112942385875753
551,0.011442840677604
552,0.0114894901281398
553,0.0113949269223464
554,0.011326823374713
555,0.0114080115969716
556,0.0112569907280026
557,0.0112348805830742
558,0.0111512087532466
559,0.0110533097730227
560,0.0111741071919221
561,0.0109426953606312
562,0.0111073786499924
563,0.010950792081118
564,0.0109735004330455
565,0.0107691764728618
566,0.0107480245127458
567,0.0105907243817129
568,0.0106526410598056
569,0.0105518296954311
570,0.0104859892839002
571,0.0105318070240669
572,0.0105117798525218
573,0.0104958114293344
574,0.0105520964782691
575,0.0104580557942589
576,0.0105391621277247
577,0.0106202684611906
578,0.0107013747946564
579,0.0107824811281223
580,0.0108635874615881
581,0.0110265296135296
582,0.0110486733186949
583,0.0111619288522274
584,0.0109839656874025
585,0.010984465617653
586,0.0107060779609998
587,0.010622442585669
588,0.0105527317368759
589,0.0104830208880828
590,0.0104133100392898
591,0.0104960659209926
592,0.0106015262390473
593,0.0106313604814023
594,0.0108061064921861
595,0.0107705809451226
596,0.0108678587896662
597,0.0109269308026889
598,0.0109435188369686
599,0.0109758526468372
600,0.0110840956740011
601,0.0111679164637128
602,0.0112400824166465
603,0.011193575236961
604,0.0113261116162562
605,0.0112646551017819
606,0.0113036447674905
607,0.011274534086518
608,0.0111656236185911
609,0.0112063981843637
610,0.0111631145033409
611,0.011090988713108
612,0.0110712218022641
613,0.0110155115006861
614,0.0109620185649896
615,0.011092114787522
616,0.0109925536770019
617,0.0111194378851941
618,0.0110890708382481
619,0.0111160628288729
620,0.0110709710178339
621,0.0111366908738786
622,0.0109298956800738
623,0.0108836829381748
624,0.0107677274625413
625,0.0106517719869077
626,0.0105358165112742
627,0.0105067917413344
628,0.0104784240680925
629,0.0104830799486955
630,0.0106130074135032
631,0.0105008165924277
632,0.0106296881345925
633,0.0107138809028345
634,0.0108345583402466
635,0.010899177652503
636,0.0108137157416517
637,0.0109430091679369
638,0.010908379670851
639,0.0110233961001184
640,0.0109684168717727
641,0.0109703274423446
642,0.0109382325164422
643,0.0108831587959163
644,0.0108280850753904
645,0.0107730113548645
646,0.0108299997304008
647,0.0108428877757965
648,0.0106484874740451
649,0.0108491824939168
650,0.010736799796776
651,0.0108202903369249
652,0.0107073156587551
653,0.0105125169267821
654,0.0103565993918269
655,0.0104784161755067
656,0.010439330286363
657,0.010558718260543
658,0.0107302540098024
659,0.0109785196015727
660,0.0110589256599726
661,0.0111065679210288
662,0.0111262529507338
663,0.0110901629494398
664,0.0109845259686451
665,0.0110345618691466
666,0.0110918531070237
667,0.0111102192460877
668,0.0111666417731553
669,0.0109188756645168
670,0.0110078752106809
671,0.0109907415720564
672,0.0109933532452109
673,0.0110289475741211
674,0.0110436564439046
675,0.0110427058359731
676,0.0110262911654748
677,0.0110777805959395
678,0.0109886482750471
679,0.0109476147855201
680,0.0111996206343149
681,0.0109633772429696
682,0.0105984088322806
683,0.0103402492878275
684,0.00973303871873412
685,0.00931228975154404
686,0.00895914978962848
687,0.00874518632713905
688,0.00873371555371391
689,0.00885958058222993
690,0.0090947247759224
691,0.00942895373272191
692,0.0095718540604915
693,0.00972300466075487
694,0.00995067905202572
695,0.00995186309760313
696,0.0101158067312878
697,0.0101756528710675
698,0.0100120537094006
699,0.0100420828637588
700,0.0102144329877319
701,0.0101516690904362
702,0.0102636602775248
703,0.0102923754637465
704,0.0104549431030878
705,0.010406045314741
706,0.0105522875430141
707,0.0106158396641833
708,0.0106039154521018
709,0.0106938497675471
710,0.0105811550525099
711,0.0105225699117545
712,0.0105111309898274
713,0.0100366551016079
714,0.00976721217474557
715,0.00925036406755445
716,0.00886430929091621
717,0.00855039976421134
718,0.00847381988577317
719,0.00850947645315259
720,0.00864880901898214
721,0.00852897815283951
722,0.008695967013149
723,0.00863556535425149
724,0.00858554294694442
725,0.0086201065387812
726,0.00855699740063908
727,0.00872249612210561
728,0.00879722420465758
729,0.008980177787989
730,0.0092173397066643
731,0.00945570354444471
732,0.00966236660145602
733,0.00995976231189923
734,0.0101118333868008
735,0.0101329512687658
736,0.010212086767543
737,0.0102819686384884
738,0.0103518505094339
739,0.0104217323803793
740,0.0106071061650648
741,0.0106189654597433
742,0.0106905731539007
743,0.0107621808480581
744,0.0108337885422155
745,0.0108413770807145
746,0.0108191133053466
747,0.0108778521249582
748,0.0107206831063279
749,0.0108180841977626
750,0.010824111968641
751,0.0107324586920325
752,0.0109389216446062
753,0.01080032613444
754,0.0105405297375872
755,0.0096173262291327
756,0.00869412272067819
757,0.00777091921222368
758,0.00642739388094745
759,0.0052326448998051
760,0.00457210972508985
761,0.00449082511653069
762,0.00471335522565778
763,0.00547930248234735
764,0.00633974701968202
765,0.00726213010483443
766,0.0081982387626571
767,0.00917005237212431
768,0.00972015011733266
769,0.0101296728480508
770,0.0104732788877594
771,0.0105959114094624
772,0.0107558133254048
773,0.0109451153843961
774,0.0108911569827058
775,0.0109364806944116
776,0.0109358151278644
777,0.0108427410379547
778,0.0110255256923197
779,0.0108649148969285
780,0.0110406160316083
