"wavelength","measurement"
380,0.00454440465410172
381,0.00451853508872801
382,0.00442856338455359
383,0.00444709103530332
384,0.00467812926821865
385,0.00480388703336969
386,0.00527894381828936
387,0.00542483171044055
388,0.00586246653112516
389,0.00600523855710666
390,0.00596166989990897
391,0.00611074667610579
392,0.00628569922092851
393,0.00641991689235099
394,0.00672259674566781
395,0.00744537793423426
396,0.00845531111129477
397,0.00956191794190359
398,0.0106685247725124
399,0.0117751316031212
400,0.0122030391480012
401,0.0133112004455583
402,0.0139705077614269
403,0.0143387218639495
404,0.0146636950132238
405,0.0149389433606546
406,0.0153725483262516
407,0.0157608303110087
408,0.0161790906820609
409,0.0165198381780465
410,0.0176150141279723
411,0.0177043348492567
412,0.0181650598657613
413,0.0184850597289727
414,0.0185850976849678
415,0.0188246322448282
416,0.0187655272360699
417,0.0183971670337941
418,0.0188585881064333
419,0.0184036797294106
420,0.0190149502669531
421,0.0189664027378896
422,0.0191183721689877
423,0.0190511075560266
424,0.0189448515302258
425,0.0187263140324658
426,0.0183870731729565
427,0.0178437839489643
428,0.017292003790126
429,0.0173151795685443
430,0.0173260118574127
431,0.0181601326568756
432,0.0187932432444071
433,0.0192341064157142
434,0.0200746205648075
435,0.0204357533287689
436,0.0207034489266833
437,0.0209253165203121
438,0.0211471841139408
439,0.0213690517075696
440,0.0214627276416116
441,0.0219211197866752
442,0.0222179230428695
443,0.0224860029292157
444,0.0228475095602368
445,0.0232090161912579
446,0.023570522822279
447,0.0237799557807703
448,0.0238494008555614
449,0.0246751316935889
450,0.0242305071196061
451,0.0241019305578155
452,0.0240154357334388
453,0.0239289409090621
454,0.0238424460846854
455,0.0237757896553014
456,0.023780563116364
457,0.0240577473507083
458,0.0240789380786433
459,0.0243427033444216
460,0.0244249506834567
461,0.024140736583306
462,0.0246564895230477
463,0.0239983974211903
464,0.0236761668612686
465,0.023562408868252
466,0.0233519976070412
467,0.023284624848944
468,0.0229983352162875
469,0.0230463183355787
470,0.0235372484420418
471,0.0234644066168999
472,0.0237090611595158
473,0.0238944026847697
474,0.0240349062443888
475,0.0243600530699128
476,0.0239079735872393
477,0.0238998051425187
478,0.0238916366977982
479,0.0238834682530777
480,0.0238807229332576
481,0.0232684048706534
482,0.0228944080734563
483,0.022775840915771
484,0.0223828231969581
485,0.0219778063666624
486,0.0222608911799824
487,0.02249989791972
488,0.0226905384029718
489,0.0232428855281466
490,0.0233008858125741
491,0.0235205150345111
492,0.0239947954529475
493,0.0236867742138899
494,0.0238804524325707
495,0.0235424103858353
496,0.0235371240027429
497,0.0230033415785288
498,0.0230073512807704
499,0.022494934764671
500,0.0225975222467141
501,0.0223838651206391
502,0.0227901433025229
503,0.0228053842578256
504,0.0224851223036349
505,0.0230891131585191
506,0.0229762200323418
507,0.0229947430379645
508,0.0230538294310583
509,0.0230190847900452
510,0.0225023934696947
511,0.0227620543291028
512,0.0224133882408483
513,0.0216193250141839
514,0.0214858594461141
515,0.0210637635660886
516,0.0208931443708829
517,0.0208871436548802
518,0.0207838479905581
519,0.0210584200907633
520,0.0213836117668656
521,0.0214490171239849
522,0.0215144224811042
523,0.0215798278382235
524,0.0213129566709077
525,0.0213065399955345
526,0.0212635494347124
527,0.0210176120323857
528,0.0210819001719153
529,0.0211838035167937
530,0.0211214908829754
531,0.0210852631119273
532,0.0209286292340333
533,0.0210430149076782
534,0.0211577832006036
535,0.0207777125036679
536,0.0209371416966253
537,0.0207697737386809
538,0.0206122047671506
539,0.0204447818558844
540,0.0204884402786331
541,0.0203926052607989
542,0.0201720111721298
543,0.0202734554007753
544,0.020177041571471
545,0.0200551424609258
546,0.0201731466751277
547,0.0201059941694898
548,0.0200388416638518
549,0.0199716891582139
550,0.0198948057462988
551,0.0199689937315991
552,0.0201046949990486
553,0.0198886259839121
554,0.0197316058030003
555,0.019785321205571
556,0.0194879171861609
557,0.0194812009756451
558,0.0192767667463953
559,0.0190774528643582
560,0.0191906111596606
561,0.0188245590002455
562,0.0190090098564913
563,0.0186416002876218
564,0.0186744366150341
565,0.0183625640188197
566,0.0181465050265859
567,0.0178896756148434
568,0.0180114165035001
569,0.0177126476525309
570,0.0176107251324544
571,0.0176018945623077
572,0.0175460292521948
573,0.0175469591878749
574,0.0175881174902083
575,0.0173701498851335
576,0.0175238013406815
577,0.0176774527962295
578,0.0178311042517775
579,0.0179847557073255
580,0.0181384071628736
581,0.0184273247550673
582,0.0184178207882313
583,0.0186067679792607
584,0.0182289072255604
585,0.0182130983450868
586,0.0178329075026805
587,0.0175197041646465
588,0.0173966060956481
589,0.0172735080266498
590,0.0171504099576515
591,0.0172376644518008
592,0.0174235415609729
593,0.0173964064109274
594,0.017702007545519
595,0.0176132009811944
596,0.0178172560699216
597,0.0178422020339228
598,0.0178168226493675
599,0.0178996019209846
600,0.017977900105561
601,0.0181473419513703
602,0.0182312167178158
603,0.0181120730437584
604,0.0182788057094116
605,0.0182699673684039
606,0.0182292411301869
607,0.0181801267330677
608,0.0179817266356239
609,0.0180127123118387
610,0.0179367319847278
611,0.0178952728707067
612,0.0177986738344701
613,0.0177055745469581
614,0.0176158191212635
615,0.0178847989433265
616,0.0176615482774855
617,0.017891896179957
618,0.0178256888718365
619,0.017895821740361
620,0.0178170926481338
621,0.0179231804475579
622,0.0175201399187565
623,0.0175153481322508
624,0.0173517546847849
625,0.017188161237319
626,0.0170245677898531
627,0.0169217155773682
628,0.0169174305421513
629,0.0169061459103865
630,0.0171406947931717
631,0.01702975055785
632,0.017254406692324
633,0.0174671300127283
634,0.0175240848145339
635,0.0176273036373753
636,0.0175840425352232
637,0.0178368131978258
638,0.0177795224451893
639,0.0179434515892436
640,0.0179017124816301
641,0.0179104318962612
642,0.0178226956818003
643,0.0177437143576944
644,0.0176647330335885
645,0.0175857517094826
646,0.0176714522462001
647,0.0177157382796136
648,0.0175079517053177
649,0.0177527047144632
650,0.0176118344461309
651,0.0177541636762628
652,0.0175398175037344
653,0.0173355972242878
654,0.017071092250994
655,0.0173540639492283
656,0.0172604496987799
657,0.0176402507265325
658,0.0177037895803094
659,0.018205311112692
660,0.0183304504740267
661,0.0183930978350868
662,0.0184873878253572
663,0.018454458312229
664,0.0183704766822784
665,0.0184533549867127
666,0.0185107624646791
667,0.0185545783566474
668,0.0187098625275901
669,0.018361712719067
670,0.0185295917491119
671,0.0184798039039465
672,0.0184365552481784
673,0.0185322639953791
674,0.0186701065552924
675,0.0186379047829959
676,0.0185561697438507
677,0.0187868731402835
678,0.0186128924811175
679,0.0186330971528747
680,0.0190970593134262
681,0.0187362777961206
682,0.0180909668569306
683,0.0175450853318557
684,0.0165813194273568
685,0.0160159112940868
686,0.015320545838853
687,0.0150821508594124
688,0.0151908146149922
689,0.0154520285443902
690,0.0157602940369375
691,0.0165258757202335
692,0.0167652742449263
693,0.0172232919106858
694,0.0175680888351671
695,0.0176330249892026
696,0.0181001993331777
697,0.0182102145002711
698,0.0180363058745366
699,0.018196107281569
700,0.0186125228637941
701,0.0185686998810087
702,0.0189388534437019
703,0.0189880008576414
704,0.0194030218433899
705,0.019479434683339
706,0.0198180982678467
707,0.0200661552874237
708,0.020084217453622
709,0.020349628935317
710,0.0202894554095056
711,0.0202405010268951
712,0.0201874689573211
713,0.019311882381345
714,0.018956829391393
715,0.0179942285196281
716,0.0173014385993865
717,0.0169574757423887
718,0.0168656389638919
719,0.0170757253427332
720,0.0172876466087304
721,0.0170590833633375
722,0.0175855337561372
723,0.0176231186816469
724,0.0175893191839621
725,0.017725913978367
726,0.0176580830450919
727,0.0181209876268638
728,0.0184678909719537
729,0.0189865769760467
730,0.0194854179144351
731,0.0201246030115
732,0.0205993617241887
733,0.0212548465873544
734,0.0216655123801247
735,0.0217217899293152
736,0.022164423459312
737,0.0223426165696831
738,0.0225208096800542
739,0.0226990027904253
740,0.0230923583093658
741,0.0233050523950512
742,0.0234552492221702
743,0.0236054460492892
744,0.0237556428764082
745,0.023857836548265
746,0.0238747298872438
747,0.0240059081371416
748,0.0237694296049808
749,0.0240302906545147
750,0.0239991862741179
751,0.023887935593965
752,0.0244029249985469
753,0.0240123812979568
754,0.0232213904188466
755,0.0211172240101896
756,0.0190130576015326
757,0.0169088911928756
758,0.0140097912443533
759,0.0113649268402255
760,0.0102940848297965
761,0.0100416802976812
762,0.0106669294412615
763,0.0123286014862463
764,0.0142910101254773
765,0.0162232441949275
766,0.0183366089417017
767,0.0203858316301605
768,0.0215227599105979
769,0.0223678494058838
770,0.0231802360739857
771,0.0236449876599431
772,0.0239099590342977
773,0.0243709180963884
774,0.0243246393003697
775,0.0242955944093103
776,0.0242758037588662
777,0.0240970415201056
778,0.0244714686150408
779,0.02413198717575
780,0.0244455791538057
