"wavelength","measurement"
380,0.00299900124452443
381,0.00290861897508087
382,0.00284195684511498
383,0.00283410815066617
384,0.00284039369620749
385,0.00294314279572036
386,0.00306616741226125
387,0.00319309461448923
388,0.00330275098612732
389,0.0033879045876251
390,0.00334700135536441
391,0.00332574652866653
392,0.00330802032910507
393,0.00331208036657547
394,0.00341668133760424
395,0.00360529144212685
396,0.00398411881926223
397,0.0043796970062041
398,0.00477527519314597
399,0.00517085338008784
400,0.00536470542337082
401,0.00559813261747022
402,0.00577366695388622
403,0.00575767170451536
404,0.00574991765296086
405,0.00573813675503584
406,0.00580222382878149
407,0.00576890596531416
408,0.00577069125440549
409,0.00584055571970078
410,0.0060675511349567
411,0.00603467295773519
412,0.00614977087810735
413,0.00622470348841541
414,0.00614716904800099
415,0.00617667602977784
416,0.00606453713985809
417,0.0059770001356133
418,0.00605334824752641
419,0.0058955443672515
420,0.00600487471123938
421,0.0059812102605774
422,0.0060242877052985
423,0.00604044856490339
424,0.00601270272480014
425,0.00589159226868832
426,0.00577448838247959
427,0.00560508301467766
428,0.00543113515746257
429,0.00541301683992827
430,0.00543405362818132
431,0.00562472104609753
432,0.00583636539834966
433,0.00600787616093201
434,0.00626265182492627
435,0.00634883830264213
436,0.00640575364228195
437,0.00649170089655756
438,0.00657764815083317
439,0.00666359540510878
440,0.00667513415403576
441,0.00680925118488091
442,0.00689374929142202
443,0.00698586306812243
444,0.00708789764704287
445,0.00718993222596331
446,0.00729196680488375
447,0.00740035938493214
448,0.00744889988079051
449,0.00767614806230519
450,0.00764465877541334
451,0.0075631643211698
452,0.00753249171335868
453,0.00750181910554756
454,0.00747114649773644
455,0.00744442613775142
456,0.00747546066673639
457,0.00757921096359436
458,0.00760944543606722
459,0.00771113680576305
460,0.00770970575249842
461,0.00762273327785713
462,0.00783355901877315
463,0.00758700035382708
464,0.00746249795424961
465,0.00741059390616415
466,0.0072931199827291
467,0.00725596190763403
468,0.00721201657489748
469,0.00713696708096503
470,0.00728685443685648
471,0.00727534327374225
472,0.00727459092142824
473,0.00735018443026048
474,0.00735468059998242
475,0.00743418447492001
476,0.00724922832271575
477,0.0072445798042985
478,0.00723993128588124
479,0.00723528276746399
480,0.00720273304624443
481,0.0070066269839726
482,0.00687383452779326
483,0.00688421115733864
484,0.00671701755369025
485,0.00659851106881531
486,0.00668430658762909
487,0.00673178583576509
488,0.00681670393433215
489,0.00698818893829223
490,0.0070420919820686
491,0.0071058702782534
492,0.00724227262801487
493,0.00716596866997745
494,0.00725517777981744
495,0.0071533850858135
496,0.00717574382298409
497,0.00703894108662093
498,0.00709505485062193
499,0.00691918244291221
500,0.00694259661055674
501,0.00685941328418456
502,0.00698575908003168
503,0.00704428456310528
504,0.00697296436941573
505,0.00719137998203992
506,0.00714461266248226
507,0.00717591281914079
508,0.00722488516070759
509,0.00722188296821669
510,0.00712444926706757
511,0.00723433521452877
512,0.00716307687279463
513,0.00695302305317208
514,0.00691011203721545
515,0.00680628701257351
516,0.0067767685344584
517,0.00677957135540882
518,0.00678039398619852
519,0.00692446983971082
520,0.00703288723054706
521,0.00710445080318326
522,0.00717601437581945
523,0.00724757794845565
524,0.00720090170909604
525,0.00722127044455759
526,0.00719820572522319
527,0.00715048343711535
528,0.00723316528720365
529,0.00729251644980131
530,0.00730939758314482
531,0.00730602843189935
532,0.00728267263678869
533,0.0073532805217413
534,0.00740327718511279
535,0.00731150580247929
536,0.00738609554416377
537,0.00733056671307119
538,0.00726694348711915
539,0.0072173648405997
540,0.00726192953624301
541,0.00720971701612005
542,0.00715807482811867
543,0.00717777886487441
544,0.0072211389281887
545,0.0071707446526657
546,0.0072301531702142
547,0.00721399995144369
548,0.00719784673267319
549,0.00718169351390268
550,0.00717050627208658
551,0.00722664467401229
552,0.00727240174420098
553,0.00720587658458254
554,0.00718049751917791
555,0.00723534427431306
556,0.00715125716663989
557,0.00712708445522909
558,0.00706382845992976
559,0.00700855272256133
560,0.00708630083789233
561,0.00694376590082296
562,0.00705042912189939
563,0.00694589412546501
564,0.00694227102209512
565,0.00680293623285816
566,0.0067420110060947
567,0.00664109241753215
568,0.00666098297743324
569,0.00658949183099887
570,0.00654838363192194
571,0.00654900532005796
572,0.00653099483071357
573,0.00652043606873149
574,0.0065481513612205
575,0.00645576207809078
576,0.00649986847292268
577,0.00654397486775459
578,0.0065880812625865
579,0.00663218765741841
580,0.00667629405225032
581,0.00677563761726415
582,0.00675538409459427
583,0.00679153222307031
584,0.00665999711835296
585,0.00659161539261227
586,0.00637855011991213
587,0.00626693021584515
588,0.00617353824940023
589,0.00608014628295531
590,0.00598675431651039
591,0.00602533872238548
592,0.0060815970171729
593,0.00610437087264751
594,0.00620203123623132
595,0.00621367097775412
596,0.00628316120959653
597,0.00634352746842788
598,0.00637810495564151
599,0.00638576097521159
600,0.00645925997462146
601,0.00653963438607876
602,0.0065825713920372
603,0.00655833331189123
604,0.00661785414138919
605,0.00659544290840407
606,0.00660262711923947
607,0.00657229449869509
608,0.00650041456821075
609,0.00650660499657565
610,0.00646759430307775
611,0.00643244452510217
612,0.00638101975358593
613,0.00635321143430974
614,0.00627674570025599
615,0.00635000850361845
616,0.00628829482274975
617,0.00636893480694352
618,0.00634290716228685
619,0.00635850040481404
620,0.00632242220349688
621,0.0063645443566922
622,0.00622819260141983
623,0.0062050674820472
624,0.00613245011623456
625,0.00605983275042192
626,0.00598721538460928
627,0.00595704603658438
628,0.00592856065638778
629,0.00593763526419896
630,0.00600950816120255
631,0.00595043758399648
632,0.00601301731236403
633,0.00606937661335442
634,0.00610134463666445
635,0.00615452889679187
636,0.00613449002132448
637,0.00620918061469845
638,0.00617820675550214
639,0.0062277031027209
640,0.00619230742006707
641,0.00618012518811486
642,0.00615250937223845
643,0.00608793035923285
644,0.00602335134622725
645,0.00595877233322165
646,0.00595897273880877
647,0.00593173806180348
648,0.00583960046188321
649,0.00595866620100554
650,0.00589122832704495
651,0.00595253016727393
652,0.00588372163309877
653,0.00580282684505722
654,0.00572617455533987
655,0.00579041219416271
656,0.00577819509342877
657,0.00585414376183041
658,0.00594275498608817
659,0.00608231404142641
660,0.00616419083836445
661,0.00619918386895356
662,0.00621638400931718
663,0.00618670128694515
664,0.0061500188605248
665,0.00616657846633522
666,0.00619583296931299
667,0.00621370543897519
668,0.00622560606277592
669,0.00612244106727631
670,0.00616803494579209
671,0.00613708749811666
672,0.00612870806267382
673,0.00615525410305839
674,0.00616383917126963
675,0.00616040154918018
676,0.00616577129568324
677,0.00623986455949938
678,0.00616517158982214
679,0.00614756638046591
680,0.00632179556334485
681,0.00617537402156844
682,0.0059970180969613
683,0.00584487474758667
684,0.00554054398854991
685,0.00531293050090006
686,0.00512567824095113
687,0.0050143389004528
688,0.00499848246409104
689,0.00505955764850294
690,0.00518903430492124
691,0.00536411700647956
692,0.0054504721180657
693,0.00553514715409385
694,0.005673746947015
695,0.00571370004385164
696,0.00586852349290117
697,0.00589437287073476
698,0.00583691568855726
699,0.00590511603456972
700,0.00604158941831767
701,0.00606951244053432
702,0.00621267381541589
703,0.00628027170348125
704,0.00643675814650983
705,0.00646866222501948
706,0.00662315105929762
707,0.00675734311681877
708,0.00680532828003467
709,0.00690203289921633
710,0.00684527094158267
711,0.00686575080234324
712,0.00681398175925291
713,0.00652696331745576
714,0.00627671077042779
715,0.00588172800352788
716,0.00553144364317514
717,0.00534517977648249
718,0.00529241251639854
719,0.00536902684717862
720,0.0054393708731421
721,0.00540875458455396
722,0.00554409673545538
723,0.0055168679120164
724,0.00550466705341183
725,0.00553599287198229
726,0.00553584117982327
727,0.00567749053409607
728,0.00584269537711883
729,0.00602972580734827
730,0.00628190237518868
731,0.00656061477008214
732,0.00680920924450286
733,0.00706714092064184
734,0.0073053056168314
735,0.00740069169630319
736,0.00756988754929887
737,0.00767644739102229
738,0.00778300723274571
739,0.00788956707446913
740,0.00809708442033093
741,0.00817161642704782
742,0.00824469361185702
743,0.00831777079666622
744,0.00839084798147542
745,0.00844231780031232
746,0.00841642963209793
747,0.00846528613479852
748,0.00836978991984084
749,0.00843474577131136
750,0.00843099110958222
751,0.00841668746403053
752,0.00851060259122257
753,0.00839771263530557
754,0.00822606953719919
755,0.00752415867331958
756,0.00682224780943997
757,0.00612033694556036
758,0.00508406557016375
759,0.00418397942843691
760,0.00366034223864726
761,0.00352943892416971
762,0.00369838902735966
763,0.00419267906411269
764,0.0048810115296275
765,0.00554073234366757
766,0.00627472694134687
767,0.00700304583789952
768,0.00739662237909967
769,0.00777543892452212
770,0.00798780775683759
771,0.00811823607267415
772,0.00822589435072956
773,0.00836417610136128
774,0.00833499830315169
775,0.00835401279403298
776,0.00839374715700416
777,0.00830282924614018
778,0.00841493783274271
779,0.00829716826796923
780,0.00842197923247733
