"wavelength","measurement"
380,0.0063948614986045
381,0.00615783925712772
382,0.00604003165775295
383,0.00592436326264853
384,0.00597814033677468
385,0.00624921822264285
386,0.00650482037180865
387,0.00675779632595318
388,0.0070199450732911
389,0.00715350889590919
390,0.00705113594242712
391,0.0069779265250073
392,0.0070200817837029
393,0.00699013917000001
394,0.00712825981500612
395,0.00754708036460353
396,0.00831225795833919
397,0.00913409617840188
398,0.00995593439846457
399,0.0107777726185273
400,0.0112041308390156
401,0.0116884797308092
402,0.0120338505175603
403,0.0120514330635451
404,0.0119858561563966
405,0.0119147958951055
406,0.0120266310256603
407,0.0119805736240012
408,0.0120037550012989
409,0.0120970463367349
410,0.0125839190066556
411,0.0124861047306385
412,0.0127401327228138
413,0.0129327593614373
414,0.0127879002910192
415,0.012827761734454
416,0.012581809265197
417,0.0124053585932458
418,0.0125041245388403
419,0.012182532222186
420,0.0124518908247049
421,0.0123602965669894
422,0.0124160990426146
423,0.0124596477633037
424,0.0124219673978211
425,0.012166615639163
426,0.0119555258839907
427,0.0115689161409056
428,0.0112175940537206
429,0.0111635944914756
430,0.0111943506960299
431,0.0115930736685044
432,0.011985923187795
433,0.0124146612035114
434,0.0128804601611766
435,0.0131165232993456
436,0.0132003380805396
437,0.0133718379107851
438,0.0135433377410307
439,0.0137148375712762
440,0.0138011950021521
441,0.0140051398016756
442,0.0142342585579039
443,0.0144104092793586
444,0.0146127224372898
445,0.014815035595221
446,0.0150173487531522
447,0.015262036096877
448,0.0153358268646208
449,0.0158205678225857
450,0.0156981718077955
451,0.0155808529771843
452,0.015520637668467
453,0.0154604223597496
454,0.0154002070510322
455,0.0153751183590134
456,0.0153790668347601
457,0.0155571414478934
458,0.0156541926247759
459,0.0158535159351811
460,0.0158787690254605
461,0.0156813369187369
462,0.0160788292699961
463,0.0155903535076566
464,0.0153639707953993
465,0.0152028584375733
466,0.0150011330670896
467,0.0149274097079071
468,0.0147610424482574
469,0.0146405782380336
470,0.0149555455954046
471,0.0149140178324987
472,0.0149648901972944
473,0.0151202380338093
474,0.0151274946664075
475,0.0152783280566184
476,0.0149304937998239
477,0.0149152516275206
478,0.0149000094552172
479,0.0148847672829138
480,0.0147958448748254
481,0.0144020597609667
482,0.014131919794918
483,0.0140719145776468
484,0.0137665000958551
485,0.0135045330401129
486,0.0136518615644769
487,0.0137586269156175
488,0.0139656907591646
489,0.0142703075094603
490,0.0144458559226931
491,0.0145055233964406
492,0.0148391525781655
493,0.0146433741358685
494,0.0148609183716036
495,0.0146297790818281
496,0.014651666863663
497,0.0143872343504384
498,0.0144144565248181
499,0.0141176923269621
500,0.0141571786739711
501,0.0139956453527861
502,0.014201569610847
503,0.0142959947183314
504,0.0141115015555576
505,0.0145674657839369
506,0.0144961687290292
507,0.0145254568610187
508,0.0146603502184532
509,0.0146203797642807
510,0.0143940875849787
511,0.0145807829440204
512,0.0144612892590589
513,0.0140359614897377
514,0.0139127720510439
515,0.0137046390308775
516,0.0136065448909631
517,0.013595870544787
518,0.0135521367489521
519,0.0138362350244679
520,0.0140791396499602
521,0.0142012459218798
522,0.0143233521937994
523,0.0144454584657191
524,0.0143197694894439
525,0.0143498172274099
526,0.0143437602019363
527,0.0142561649596905
528,0.0143550466225568
529,0.0144834239322149
530,0.0144773189325828
531,0.0144864109724399
532,0.014412296108162
533,0.0145680090693009
534,0.0146037366298702
535,0.0144376665195398
536,0.0145887056936346
537,0.014486736054302
538,0.0143537928467639
539,0.0142244438874593
540,0.0143171589941762
541,0.0141841399242339
542,0.0140793456147086
543,0.0141214342110382
544,0.0141941851172993
545,0.0140824768692287
546,0.0142071737647666
547,0.0141860805531524
548,0.0141649873415382
549,0.0141438941299239
550,0.0140966723126983
551,0.0141911158755035
552,0.0142789105052282
553,0.0141473762007034
554,0.0140917637120014
555,0.0142249316662447
556,0.0140254546796853
557,0.0139952908501164
558,0.0138872442673263
559,0.0137822724709904
560,0.01390750098615
561,0.0136400619261412
562,0.0138559791748949
563,0.0136052276225915
564,0.0136204875373945
565,0.0133811108427903
566,0.0132709988501284
567,0.0130436535603111
568,0.0131342311603763
569,0.012927361150417
570,0.0128553533849398
571,0.0128630010175363
572,0.0128450085048074
573,0.0127888134826604
574,0.0128633335095771
575,0.0126994874727857
576,0.0127833323546774
577,0.0128671772365691
578,0.0129510221184608
579,0.0130348670003525
580,0.0131187118822442
581,0.0133086468334582
582,0.0132612652052321
583,0.013355879389399
584,0.0130949344252913
585,0.0130087059049766
586,0.0125578385900412
587,0.012299775600625
588,0.0121124801464823
589,0.0119251846923396
590,0.0117378892381969
591,0.0118106572452511
592,0.0119177526193625
593,0.0119439803779258
594,0.0121320270094022
595,0.012158129502145
596,0.0123110565783017
597,0.0124209953576461
598,0.0124670034674045
599,0.012524562207103
600,0.0126878641781717
601,0.0128015244405493
602,0.0128923825937798
603,0.0128428287609283
604,0.0129815314027876
605,0.012907976562871
606,0.012924117267015
607,0.0128581585170567
608,0.0127166014289234
609,0.0127231101714332
610,0.0126438575500207
611,0.0125578699546457
612,0.0124714314386506
613,0.0124246545597261
614,0.0122885038781277
615,0.0124202093815432
616,0.0123210202128443
617,0.0124420303081398
618,0.0124221029582339
619,0.0124378472442518
620,0.0123882703348267
621,0.0124644750859829
622,0.0121746800819545
623,0.0121553198374804
624,0.0120047551242915
625,0.0118541904111025
626,0.0117036256979135
627,0.0116429317231318
628,0.0115801541699169
629,0.0115801343339883
630,0.0117085955646272
631,0.0116093284311413
632,0.011745667978277
633,0.011863767420099
634,0.0119511167214579
635,0.012046141821509
636,0.0119647947868652
637,0.0121157525936825
638,0.0120411420692169
639,0.0121654821500217
640,0.0120999695431134
641,0.0121156400921335
642,0.0120081530126873
643,0.0118863454686133
644,0.0117645379245393
645,0.0116427303804653
646,0.0116586312215268
647,0.0115950151532537
648,0.0113977633550904
649,0.0116287787002208
650,0.0115441407018805
651,0.0116278001670386
652,0.0115189946562712
653,0.0113519394351196
654,0.0111896149719014
655,0.0113237508474306
656,0.0112720076153288
657,0.0114408848098057
658,0.0116182828714839
659,0.0119435616992977
660,0.0120478217369973
661,0.0121222530946009
662,0.0121655337188794
663,0.0121411265811972
664,0.0120649949195715
665,0.0121044326189535
666,0.0121450103846595
667,0.0121704653841878
668,0.0121919623139667
669,0.0119593169747335
670,0.0120767153766469
671,0.0120256540219261
672,0.0119971464932558
673,0.0120301586756259
674,0.0120817052000999
675,0.0120717217337646
676,0.0120460734338843
677,0.0121529524714943
678,0.0120253837005866
679,0.0120067901252769
680,0.0122737432576795
681,0.0120780947640201
682,0.0116660704541565
683,0.0113347110368404
684,0.0107699997779246
685,0.0102770357586778
686,0.00988697236723667
687,0.00959753380418272
688,0.00954610642823
689,0.00963185273453801
690,0.00983533777264974
691,0.0101293618275132
692,0.0102680463097594
693,0.0104182218980903
694,0.0106732146659349
695,0.0107292316163273
696,0.0109842242985298
697,0.0110113694966176
698,0.0108988777138997
699,0.0109626071128646
700,0.0111915923944564
701,0.0111901661640646
702,0.0114051503113174
703,0.0115232559922136
704,0.0117877269962907
705,0.0118312032284059
706,0.0121277707809425
707,0.0123123613035849
708,0.0123746937101323
709,0.012553809683527
710,0.0124158510972565
711,0.0124309398871038
712,0.0123763256764055
713,0.0117584276301088
714,0.0113549101319712
715,0.0105755942984164
716,0.00993328945007289
717,0.00956362732270091
718,0.0094294318992753
719,0.00948612591424248
720,0.00967536873354867
721,0.00961352358037569
722,0.00986873555137718
723,0.0098114515818234
724,0.00976802636457669
725,0.00981681284328983
726,0.00981533197829064
727,0.0100256665666515
728,0.0102893974210615
729,0.010676778946345
730,0.0110806703511005
731,0.0115972187896831
732,0.0120581019937502
733,0.0125638516560712
734,0.0128955673117399
735,0.0130941706892661
736,0.0133947207739915
737,0.0135900703919256
738,0.0137854200098597
739,0.0139807696277938
740,0.0142946888384384
741,0.0144470843117212
742,0.0145807032006671
743,0.0147143220896131
744,0.0148479409785591
745,0.0149430459652483
746,0.0149063945028788
747,0.0149694886268818
748,0.0147794307603543
749,0.0149183039678353
750,0.0148998988400771
751,0.0148570390105205
752,0.0150880640757021
753,0.0148671079453737
754,0.0145710159141914
755,0.013354547855907
756,0.0121380797976226
757,0.0109216117393382
758,0.00905609918878728
759,0.00740924455021937
760,0.00640157937610744
761,0.00610536496084295
762,0.00639426016148755
763,0.00721660517468857
764,0.00838009657112789
765,0.00955800494267213
766,0.0108833534475496
767,0.0121416588508655
768,0.0129716275143344
769,0.0135740719289152
770,0.0140419486579888
771,0.0142127079057383
772,0.014435546550024
773,0.0146670151958842
774,0.0145706687072887
775,0.0146443510979665
776,0.0146820415116906
777,0.0145630023025539
778,0.0147044606163674
779,0.0145786862661748
780,0.0147522655800452
