"wavelength","measurement"
380,0.00454144125390518
381,0.00438739095020459
382,0.00428636687415893
383,0.00421348890178137
384,0.00420925704943969
385,0.00438177070765983
386,0.00457276698990498
387,0.00476838328400855
388,0.00490981670132839
389,0.0050074402368188
390,0.00493053946159043
391,0.00486777244960526
392,0.00484122847213737
393,0.00483803818103616
394,0.00492471470996692
395,0.00518795935545334
396,0.00567001706655846
397,0.00622736665869591
398,0.00678471625083336
399,0.00734206584297081
400,0.00759030339992257
401,0.00787342190439281
402,0.00810299001965436
403,0.00808029940785689
404,0.00803708846706365
405,0.00795623926650834
406,0.00800263785066832
407,0.00797007784487867
408,0.0079585544898105
409,0.00806322338818513
410,0.0083153302740546
411,0.00828488091511477
412,0.00844248938799485
413,0.00857564223352236
414,0.00846000863154154
415,0.00846637370507911
416,0.00831496328295622
417,0.00822170671893727
418,0.00827332118468078
419,0.00809223046732406
420,0.00822563696253994
421,0.00814552644879088
422,0.00820966264450441
423,0.00823962583045285
424,0.00823765647399777
425,0.0080293358896912
426,0.00789950088182375
427,0.0076533774399627
428,0.00740917110540131
429,0.0073743083851037
430,0.00737607128542106
431,0.00761857497235619
432,0.00793431160965711
433,0.00817289092308899
434,0.00849399397682775
435,0.00866437042054562
436,0.00869701625701685
437,0.00881179374920766
438,0.00892657124139846
439,0.00904134873358927
440,0.00904099950213853
441,0.00921461896117874
442,0.00937564385646105
443,0.00947120604921385
444,0.00960090767747042
445,0.00973060930572698
446,0.00986031093398355
447,0.010036791563419
448,0.0100801643359356
449,0.0104122191658274
450,0.0103042731893911
451,0.0102396806325429
452,0.0101956225825735
453,0.0101515645326041
454,0.0101075064826347
455,0.0100768695237214
456,0.010084578570533
457,0.0102113751059872
458,0.0102524173230561
459,0.0104141077380769
460,0.0104257792381578
461,0.0103103730515952
462,0.0105454339610662
463,0.0102296390235592
464,0.010087552859908
465,0.00996601667699869
466,0.00984096908188852
467,0.00979612425417622
468,0.00970362247252128
469,0.00962492472176028
470,0.00983801047604996
471,0.00977795693744211
472,0.00983254718514081
473,0.00990618111617068
474,0.00993677343897427
475,0.0100256400690307
476,0.00977777576715148
477,0.00976922474635888
478,0.00976067372556627
479,0.00975212270477366
480,0.00969193312371702
481,0.00944749742664626
482,0.00928268413110546
483,0.00927263051559454
484,0.00904568905101139
485,0.00885839608655553
486,0.00896520993912338
487,0.00904411040703816
488,0.00916430197457744
489,0.00938261826924859
490,0.00947327931141093
491,0.00952772149034634
492,0.00974879123661389
493,0.00960868179181885
494,0.00976012119816898
495,0.00960448207023369
496,0.0096193565395627
497,0.0094660802557239
498,0.00947201609929059
499,0.00924986288384131
500,0.00927729444232677
501,0.00916925624268427
502,0.00932262926635973
503,0.00939286330199366
504,0.00925454882327145
505,0.00957344502694166
506,0.00949493662422583
507,0.00954645616901278
508,0.00960165052277827
509,0.00960192172137805
510,0.00944240549202973
511,0.00956118389292398
512,0.00947151834110766
513,0.00920376644197236
514,0.00914412546540516
515,0.00897941704607419
516,0.00893492068649806
517,0.00892701731034838
518,0.0089042043265692
519,0.00906980428127086
520,0.00924726865598801
521,0.00932726820395553
522,0.00940726775192305
523,0.00948726729989057
524,0.00941397435333292
525,0.00942021295363062
526,0.00941174044803376
527,0.00935500397617584
528,0.00941205465657964
529,0.00950198226990061
530,0.00951079253693838
531,0.00951177989103125
532,0.00945913769019753
533,0.00956898254697163
534,0.00959708794754262
535,0.00949236256674909
536,0.00957957771283557
537,0.00951239855748908
538,0.00942534755408715
539,0.00935491355457501
540,0.00938992355505887
541,0.00931484723713107
542,0.00926684174777087
543,0.00928869282051918
544,0.00935551887098015
545,0.00926182769373302
546,0.00933944506582893
547,0.00931912279104444
548,0.00929880051625995
549,0.00927847824147546
550,0.00926141615521017
551,0.00931367842849095
552,0.00936631844416071
553,0.00929110282668652
554,0.00925168172459477
555,0.00934247671387766
556,0.00921617998144655
557,0.00919651509165517
558,0.00912685838055283
559,0.00904286901338108
560,0.0091416183577558
561,0.00895896259206572
562,0.00908456671705639
563,0.00894206143007908
564,0.0089522176411486
565,0.00880600997218716
566,0.00872610726800614
567,0.00857405378789863
568,0.00861932062361341
569,0.0085044788632478
570,0.00844822450100332
571,0.00846304907969696
572,0.00844062349525177
573,0.00841867536042095
574,0.00846120915266851
575,0.00832248223775385
576,0.00838262753203167
577,0.00844277282630949
578,0.0085029181205873
579,0.00856306341486512
580,0.00862320870914294
581,0.00875635675701671
582,0.00872908750713008
583,0.00881286474899025
584,0.00863607245022618
585,0.00856899556519478
586,0.00828578635370598
587,0.00811563607652029
588,0.00798813185913475
589,0.00786062764174921
590,0.00773312342436366
591,0.00777437504368049
592,0.00785433607389614
593,0.00787794406631464
594,0.00801939756149255
595,0.00801022680436687
596,0.00813854309504592
597,0.00818700187206826
598,0.00825424753017889
599,0.00827271299268114
600,0.00837207077916534
601,0.00844663679044565
602,0.00853331345089372
603,0.00849802380777544
604,0.00856404579867471
605,0.00854414199031806
606,0.0085416867926594
607,0.00851348704307713
608,0.00843374378617835
609,0.00842900533317277
610,0.00839579803035653
611,0.00832325537929483
612,0.00828963068558391
613,0.00825656111024233
614,0.00813827798867464
615,0.00823239165906367
616,0.00817217881451971
617,0.00824658760301833
618,0.00822741650655708
619,0.00824816088084382
620,0.00820430269928976
621,0.00825832476606739
622,0.00807729511375489
623,0.00804304959529195
624,0.00794847573111071
625,0.00785390186692947
626,0.00775932800274824
627,0.0077159233760484
628,0.00768371893521373
629,0.0076808553556389
630,0.00777445443051424
631,0.00770475135383857
632,0.00779315437163228
633,0.00787900733538249
634,0.00793147966333672
635,0.00799683198614847
636,0.00795555198590734
637,0.00805525230733969
638,0.00801258719105284
639,0.00809678583216765
640,0.00804323866350954
641,0.00804002204650596
642,0.00800234880897948
643,0.00791386789852602
644,0.00782538698807255
645,0.00773690607761909
646,0.00774275098082787
647,0.0077083365172242
648,0.00756796259692127
649,0.00774371772218471
650,0.00768020348614437
651,0.00774714226383656
652,0.00767284316282098
653,0.0075604207443643
654,0.0074389505587062
655,0.00753288416306996
656,0.00754591117166523
657,0.00762044333290407
658,0.00776646231187716
659,0.00797524094336102
660,0.00804517025665922
661,0.00809886769237344
662,0.00812410706338016
663,0.00807615252532989
664,0.00803886085345876
665,0.0080767508451085
666,0.00809236676804588
667,0.00813484176339426
668,0.00814307880903497
669,0.00800819062970886
670,0.00804806178470754
671,0.0080291141385951
672,0.00803623751188669
673,0.00804456371360762
674,0.00806265245538181
675,0.00806887079206639
676,0.00806418645872503
677,0.00811521472724631
678,0.00805298818474013
679,0.00802736757720975
680,0.00824024633760454
681,0.00807937876119876
682,0.00782747141000428
683,0.00762523142489183
684,0.00722395327161165
685,0.00692114452859152
686,0.00664936875786988
687,0.00648349299241151
688,0.0064400317996619
689,0.0065078963172609
690,0.00666275953002395
691,0.00686667841204522
692,0.0069689354833573
693,0.00704103077562491
694,0.00723702353395162
695,0.00728630995877057
696,0.0074561597588918
697,0.00749654114778675
698,0.00742243205020466
699,0.00749049123517135
700,0.00764559144520916
701,0.00764842593990192
702,0.00781442301561946
703,0.00789507814821811
704,0.00810925170957735
705,0.00813383593858392
706,0.00831572370194628
707,0.00850622394176188
708,0.00853136472440412
709,0.0086662791224946
710,0.00856813191530041
711,0.00861138985774334
712,0.00855052829521928
713,0.00815244817210503
714,0.0078646144526432
715,0.00736085825331826
716,0.00692806679998569
717,0.00668386363909902
718,0.00658172438360492
719,0.0066522955600485
720,0.00675809779252156
721,0.00672561019614616
722,0.00692262503961827
723,0.00688625289690056
724,0.00685545172696719
725,0.00690785430453376
726,0.00690590256568008
727,0.00707506445344367
728,0.00724594815014913
729,0.00751620134746956
730,0.00780638576578407
731,0.00817787809836398
732,0.00852876858632011
733,0.00883890889100388
734,0.00910722228658113
735,0.00923326947948183
736,0.00945412342452324
737,0.00960007580595348
738,0.00974602818738372
739,0.00989198056881395
740,0.0100959601839145
741,0.0101942836660649
742,0.0102909748999397
743,0.0103876661338144
744,0.0104843573676891
745,0.0105306777560972
746,0.0105122021816377
747,0.0106042456173409
748,0.010467287592114
749,0.0105196006103353
750,0.0105591044772828
751,0.0105261625903456
752,0.0106424909703566
753,0.0105180334133585
754,0.0103255590103999
755,0.0094657693580828
756,0.00860597970576566
757,0.00774619005344852
758,0.00643080879992406
759,0.00526364934878815
760,0.00456424454207527
761,0.00437802805087409
762,0.00458850898672734
763,0.00516642268928471
764,0.00598645361068533
765,0.00684748500151373
766,0.00775849458684501
767,0.00874274709787683
768,0.00922134795832953
769,0.00965959353334542
770,0.00998945514290407
771,0.0101779103720244
772,0.0103051228652904
773,0.0104634465357754
774,0.0103999220425132
775,0.0104325580050421
776,0.01049743970727
777,0.010374873457658
778,0.0105096855029623
779,0.0103821342779749
780,0.010532423754606
