"wavelength","measurement"
380,0.00628393797319288
381,0.00622030267590958
382,0.0060265070863757
383,0.0059750562464385
384,0.00602354814022233
385,0.00628598134303603
386,0.00657109101247975
387,0.00689722830032679
388,0.00722325679947545
389,0.00729699169767292
390,0.00726769864232882
391,0.00730974092396135
392,0.00729890084813257
393,0.00727896480492613
394,0.00755479517832901
395,0.0081000212956197
396,0.00896759788983551
397,0.00990204963181656
398,0.0108365013737976
399,0.0117709531157787
400,0.0122234464036895
401,0.0128367603726957
402,0.0132726824748668
403,0.0133665144954051
404,0.0133486714485774
405,0.0132966736935334
406,0.0134783591755333
407,0.0134474250477368
408,0.0135023373315038
409,0.013753981350399
410,0.0142663252791903
411,0.0142498027380515
412,0.0146182606837289
413,0.0147807097456436
414,0.0146652947457399
415,0.014763699940223
416,0.0144329029918649
417,0.0143741927622774
418,0.0144634280716735
419,0.0141985112043624
420,0.0144852031965572
421,0.0143701247568357
422,0.014512805379235
423,0.0144278652155587
424,0.0144911431348373
425,0.0142006201938045
426,0.0141046471387691
427,0.0136312872976319
428,0.0132805974050483
429,0.0132816194615045
430,0.0132881586091111
431,0.0138014867035392
432,0.0142841814299228
433,0.0148069989403414
434,0.015376964732743
435,0.0156696866388582
436,0.0158088020384579
437,0.0160506104106482
438,0.0162924187828385
439,0.0165342271550287
440,0.0166296261796506
441,0.0170138105144872
442,0.0173721945231032
443,0.0175723967245545
444,0.0178285693203989
445,0.0180847419162434
446,0.0183409145120878
447,0.0186429130869454
448,0.0188098024844974
449,0.0192998997770631
450,0.0192863381664389
451,0.0191678260713241
452,0.0191104719267
453,0.019053117782076
454,0.0189957636374519
455,0.0189453033117344
456,0.0191002389839215
457,0.019296697731825
458,0.0193539416416121
459,0.0196891418908376
460,0.0196296030930506
461,0.0194833498416887
462,0.0198735406714098
463,0.0193964072955084
464,0.0191709313569313
465,0.0189732583611565
466,0.0187704429702952
467,0.0187437649793157
468,0.0185316431675042
469,0.0184742173810065
470,0.0188920792809932
471,0.0188517696847717
472,0.0189415222648055
473,0.0191236812885516
474,0.0191321535941161
475,0.019365310873596
476,0.0189672762306237
477,0.0189372086774227
478,0.0189071411242217
479,0.0188770735710207
480,0.018852872411361
481,0.0183295710936862
482,0.0180310813980317
483,0.0180039334431124
484,0.0176032009001587
485,0.0172812238568271
486,0.0174824345929335
487,0.0176768128223066
488,0.0179827299116035
489,0.0184040920526217
490,0.0185365502961745
491,0.0187259498172183
492,0.0191391860309655
493,0.0189323822913573
494,0.0192645539727216
495,0.0189157328130431
496,0.0190554369273069
497,0.0186916116154736
498,0.0187415048114295
499,0.0183741194296069
500,0.018503903482345
501,0.0183816637958345
502,0.0187219807482246
503,0.0188565021751462
504,0.0186770502307401
505,0.0193306122667641
506,0.0192323636388332
507,0.0192981626682643
508,0.0194326915385936
509,0.019435556926505
510,0.0191301582359186
511,0.0193775297592237
512,0.0191795387066276
513,0.0186628156356972
514,0.0185606636421385
515,0.0183010845539102
516,0.0182507822560336
517,0.0182753901541821
518,0.0181997004599621
519,0.0186491372165059
520,0.0189791419066138
521,0.0191841610483023
522,0.0193891801899907
523,0.0195941993316792
524,0.0194673263622815
525,0.0194942004302131
526,0.0195731554889623
527,0.0194055132591527
528,0.0195975420134072
529,0.019757476905503
530,0.0197578885703284
531,0.0198387404443944
532,0.0197100356198336
533,0.0200219018169902
534,0.0200409426543649
535,0.0198505793500876
536,0.0201012436316752
537,0.0199456276543975
538,0.019835623145398
539,0.0196888795911077
540,0.0198386337912386
541,0.0197258136155858
542,0.0196406957841176
543,0.0197664597179724
544,0.0198093411477779
545,0.0196149595363704
546,0.0198405858075621
547,0.0198171796131317
548,0.0197937734187012
549,0.0197703672242707
550,0.0197053768286013
551,0.0199132692264378
552,0.0200335616713294
553,0.0198551143445134
554,0.0198104786542159
555,0.0199839028344523
556,0.019735932603773
557,0.0196789845035764
558,0.0195375912462523
559,0.0193967711032507
560,0.0196437819152525
561,0.0192741864258687
562,0.019601725051945
563,0.0192483451265311
564,0.0192992534790543
565,0.0190573092314285
566,0.0189329024870098
567,0.0187160769381717
568,0.0187606587539222
569,0.0185624737750478
570,0.0185286515541655
571,0.0185515639513001
572,0.0185142210124521
573,0.0185124647286771
574,0.0186447843318332
575,0.0183530791997833
576,0.0184690144604734
577,0.0185849497211634
578,0.0187008849818534
579,0.0188168202425435
580,0.0189327555032335
581,0.0192079440599986
582,0.0191614550452305
583,0.0192889115564913
584,0.0189653237952446
585,0.0189407919957788
586,0.0184227028850381
587,0.0182473478559826
588,0.018095106541323
589,0.0179428652266633
590,0.0177906239120036
591,0.0178291434671784
592,0.0180487171017524
593,0.0180101875526455
594,0.0181959079831457
595,0.0182234521915861
596,0.0182920009046857
597,0.0183716646037406
598,0.0183479030553617
599,0.0183867788316881
600,0.0185224438848747
601,0.0186405106731553
602,0.0186959344931952
603,0.018666679643821
604,0.0188410094723898
605,0.0186959839946844
606,0.0187743340513243
607,0.0187130660081713
608,0.0185015471670091
609,0.0185498465813612
610,0.0184249233089715
611,0.0183581220456449
612,0.0182228117830657
613,0.0181780392715509
614,0.018027062777127
615,0.0182894648369208
616,0.0181228819294526
617,0.0182711526502844
618,0.0182966172131579
619,0.0183282027755407
620,0.0182854144428356
621,0.0184129406561924
622,0.0180165327494217
623,0.0180591498812229
624,0.0178930819091179
625,0.0177270139370128
626,0.0175609459649077
627,0.017545197329405
628,0.0174798869043213
629,0.0174828770809162
630,0.0176540381866494
631,0.0175341042685655
632,0.0176947741125624
633,0.0178790318297308
634,0.0180436576550116
635,0.018089112564242
636,0.0180395667924998
637,0.0182369289087834
638,0.0181476526640595
639,0.0182963917748015
640,0.0182826839628312
641,0.0182466891086402
642,0.0181709852853503
643,0.018090458687743
644,0.0180099320901357
645,0.0179294054925285
646,0.0180429657283283
647,0.0180303232295448
648,0.0177677388687387
649,0.0180974816005426
650,0.017869625331676
651,0.018032859377707
652,0.0178198149337521
653,0.017590662274007
654,0.0173007773509411
655,0.0174849262122189
656,0.0173908514084765
657,0.017559740095118
658,0.0177971121822466
659,0.0182466474155725
660,0.0184296419036057
661,0.0184817130535232
662,0.0185087009524649
663,0.0184455607231424
664,0.0183738212813795
665,0.0183678053560373
666,0.0184794665326532
667,0.0184976579307384
668,0.0185499096484002
669,0.0182718318233928
670,0.0183290268840636
671,0.0183181683622264
672,0.0183176980920408
673,0.0182967431898034
674,0.0184146356145547
675,0.0183766701537966
676,0.0183658726275977
677,0.0185161925720877
678,0.0184417632280423
679,0.0183668948414129
680,0.0188408629728063
681,0.0185404251748715
682,0.017987749556065
683,0.0175027719652385
684,0.0167421692722082
685,0.0161048647380451
686,0.0156182054466761
687,0.0153287632582243
688,0.0154131541517397
689,0.0156877810643742
690,0.0161382759895908
691,0.0167842084191157
692,0.0171204707922629
693,0.0174068401507416
694,0.0178526555586314
695,0.017973907622501
696,0.0183718160964053
697,0.0185318120459822
698,0.0184397481089508
699,0.0186011941707316
700,0.0189328390397259
701,0.0189945268474745
702,0.0193826009055972
703,0.0195233894095485
704,0.0199215028866634
705,0.0200208753144162
706,0.0203164205361048
707,0.0206326369106288
708,0.0206728451983088
709,0.0209769136416012
710,0.0207980280560458
711,0.0208496995346427
712,0.0208228541139832
713,0.020088161164211
714,0.0197525969455357
715,0.0188767099842001
716,0.0182199387109998
717,0.0178160759222021
718,0.0177719545710909
719,0.0179475821087243
720,0.0182011866927455
721,0.0180054770139108
722,0.0184780657436692
723,0.0184354510465584
724,0.0184600112272668
725,0.0186112050712091
726,0.0185287809316388
727,0.0189153893134092
728,0.0191746107753285
729,0.0196247223934155
730,0.0200755158780625
731,0.020629073345796
732,0.0212408270884462
733,0.0217354184300837
734,0.0222015626672877
735,0.022228487620648
736,0.0225716646558346
737,0.0227539959375477
738,0.0229363272192608
739,0.0231186585009738
740,0.0234228904590173
741,0.0235867552113214
742,0.0237069604576172
743,0.023827165703913
744,0.0239473709502088
745,0.0240471540839504
746,0.0239636407822824
747,0.0240670730006551
748,0.0237807478927448
749,0.0240010578254253
750,0.0239930170528711
751,0.0238576276686554
752,0.0241987463393226
753,0.0238788374197481
754,0.0233827655012872
755,0.0214438551158233
756,0.0195049447303594
757,0.0175660343448955
758,0.0147998069597332
759,0.0122633238335117
760,0.0110041470171305
761,0.0107188000440248
762,0.0112819750760718
763,0.0127227871741514
764,0.0144856261310723
765,0.0163648623159727
766,0.0183347688251388
767,0.020244064448032
768,0.0214464056012864
769,0.0221954316181018
770,0.0228547526426271
771,0.0232215231960798
772,0.0235661508865997
773,0.0237779884628267
774,0.0237896290757957
775,0.0238231268868061
776,0.0239642865919435
777,0.0236763980603357
778,0.0239611397319786
779,0.0238029102344131
780,0.0240663107999416
