"wavelength","measurement"
380,0.0102447491933658
381,0.00994121986556593
382,0.00962318498521438
383,0.00954924670425764
384,0.00959411729988109
385,0.0100403572515969
386,0.0105141439804446
387,0.0109069640661808
388,0.011391587279173
389,0.0115555745256464
390,0.0113986313886531
391,0.0112865607693086
392,0.0112523717576908
393,0.011285619736396
394,0.0114600401925969
395,0.0122630924836137
396,0.0134359237959035
397,0.0147461448839618
398,0.01605636597202
399,0.0173665870600783
400,0.0180989857705555
401,0.0189745989242669
402,0.0194340401914894
403,0.0194493062982091
404,0.0193455218965609
405,0.0192124870208199
406,0.0194622215062791
407,0.019444712873228
408,0.0193833838577656
409,0.0197626619217017
410,0.0204317656610367
411,0.0203803750111902
412,0.0207669046740967
413,0.0209948458282003
414,0.0209636531214592
415,0.0209832342003997
416,0.0206422207940913
417,0.0203123100462982
418,0.0205909136239945
419,0.020317193491529
420,0.0206485409566241
421,0.0205075952916381
422,0.0206401196037368
423,0.0206975434463557
424,0.0206595907821952
425,0.0203066488195902
426,0.0200688938965169
427,0.0194609460873526
428,0.0189095238675047
429,0.0187823678642263
430,0.0188960663128892
431,0.019467864642217
432,0.0203373183491299
433,0.0209960500584637
434,0.0218402632137569
435,0.0222518013099226
436,0.0223914316140539
437,0.0227570004400063
438,0.0231225692659586
439,0.023488138091911
440,0.0236736813657626
441,0.0240462580849633
442,0.0245088358433551
443,0.0248406018409779
444,0.0252179213385646
445,0.0255952408361512
446,0.0259725603337378
447,0.0264316029046165
448,0.0266142810235229
449,0.0275280713685757
450,0.0273034717339031
451,0.0271227090011501
452,0.027052720690034
453,0.0269827323789179
454,0.0269127440678017
455,0.0268390965427616
456,0.0269660823962583
457,0.0272342281237718
458,0.0274061789464132
459,0.0278417529880534
460,0.0279558623090153
461,0.0276196813628589
462,0.0283628678574012
463,0.027533556877814
464,0.0272346116403569
465,0.0269946408128791
466,0.0267218781744215
467,0.0265303575456687
468,0.0262788053085832
469,0.0261918756680647
470,0.026853866562025
471,0.0267590436639542
472,0.0269277108333703
473,0.0272033735910847
474,0.0272645885960099
475,0.0275882373902485
476,0.0269272251247629
477,0.0269326788667081
478,0.0269381326086532
479,0.0269435863505984
480,0.0268875009508744
481,0.0261486816929026
482,0.0257638723049991
483,0.0256354351878297
484,0.0250272501696042
485,0.0245757155318662
486,0.0249160646018758
487,0.0250939592671638
488,0.0254850574893673
489,0.0261724321498462
490,0.0264075810951492
491,0.0265975474757763
492,0.0271841978486332
493,0.0268877826488473
494,0.0272993576304889
495,0.0269106011454412
496,0.026993244457625
497,0.0264847657032588
498,0.0265714958061677
499,0.0259751780117007
500,0.0262058851439479
501,0.0259455185246624
502,0.0264279257921508
503,0.0265827609976788
504,0.0263174703639968
505,0.0271856027563725
506,0.0269747900090447
507,0.0270760939911109
508,0.027271031510477
509,0.027212946500942
510,0.0267778056656757
511,0.0271648263496374
512,0.0268804697200105
513,0.0260498742490591
514,0.0258209891459348
515,0.0254027739871967
516,0.0252432608266909
517,0.0251986856487216
518,0.0251475375725429
519,0.0255965306576564
520,0.0260972950785239
521,0.0263287627813686
522,0.0265602304842132
523,0.0267916981870579
524,0.026589627311019
525,0.0266074468458718
526,0.0265614926030482
527,0.026498346468593
528,0.0265444000836221
529,0.0268514351570854
530,0.02671484721198
531,0.0268359733908474
532,0.0266853390189089
533,0.0269444779570735
534,0.0270385798383382
535,0.0267315638272099
536,0.0270288622756619
537,0.0268448328567218
538,0.0266404398410287
539,0.026449090876776
540,0.0266051401242566
541,0.0264104704486869
542,0.0262695572383521
543,0.0264665205660304
544,0.0264843342441461
545,0.0263257272759954
546,0.0264722700653602
547,0.0264358274834014
548,0.0263993849014426
549,0.0263629423194838
550,0.026237805239942
551,0.0264307161587007
552,0.0266607188497262
553,0.0263881248864673
554,0.0263041200539346
555,0.026512502022692
556,0.0261851487364755
557,0.02613240919636
558,0.0259503320845258
559,0.0258078693074621
560,0.0260567983989705
561,0.0255458911407676
562,0.0259892606062587
563,0.0255633043487868
564,0.0256604838069798
565,0.0253061978672567
566,0.025097195122344
567,0.0248439084564119
568,0.0249802322003294
569,0.0246332451748846
570,0.0246624985839393
571,0.0246586453602913
572,0.0246654089722817
573,0.0246529956930469
574,0.0248535142205166
575,0.0243963531257411
576,0.0245691905575971
577,0.024742027989453
578,0.024914865421309
579,0.025087702853165
580,0.025260540285021
581,0.0256211574270132
582,0.0255725618713198
583,0.0257975224530125
584,0.0254230053064726
585,0.025396276687767
586,0.0246250874873216
587,0.0243723853421603
588,0.0241695034191288
589,0.0239666214960973
590,0.0237637395730658
591,0.0238353147986738
592,0.0240107953390912
593,0.0240320764219999
594,0.0243633833628663
595,0.0242441761147343
596,0.0244378426042394
597,0.0245354332220815
598,0.0244324485643453
599,0.0245344235291407
600,0.0246533701863484
601,0.0248296151703404
602,0.025000039816484
603,0.0248600934041432
604,0.0250982645598833
605,0.0249562274850109
606,0.0250564104464129
607,0.0249300893995793
608,0.0247325860351638
609,0.024723794952017
610,0.0245939974289581
611,0.0245148415385936
612,0.0243602064082797
613,0.0242456923285554
614,0.0240567282938753
615,0.0244225227058466
616,0.0240919845488455
617,0.0243534375499541
618,0.0243460395711591
619,0.0244561701733969
620,0.0243728178118371
621,0.0245698181872885
622,0.0240487294067142
623,0.0239901425744059
624,0.023781276536019
625,0.0235724104976321
626,0.0233635444592453
627,0.0233227767685704
628,0.0232451865468358
629,0.0232188470083613
630,0.0235138698004803
631,0.0232877090974662
632,0.0235140883936345
633,0.0238078236169686
634,0.0238597366295985
635,0.0240415841064564
636,0.0238870700420471
637,0.024189941269338
638,0.0241274007613027
639,0.0243428863533105
640,0.0242762257102724
641,0.0242424339008227
642,0.0241363157311777
643,0.0240643532746097
644,0.0239923908180417
645,0.0239204283614737
646,0.023995076526335
647,0.0240171997404052
648,0.0236887279606104
649,0.024111046798211
650,0.0238676703548244
651,0.0240165610549375
652,0.0237780389704482
653,0.0234027422614586
654,0.0230594148258205
655,0.0233151084186031
656,0.0231163203710329
657,0.0233472872453506
658,0.0237241005553407
659,0.0242975630723583
660,0.0245016828644274
661,0.0246641320369213
662,0.0246606494977277
663,0.0246248945868946
664,0.0244665832149265
665,0.024553384072507
666,0.0246758218997491
667,0.0246801780411294
668,0.0248071749415029
669,0.0243856644977029
670,0.0245082136729914
671,0.0245109908336956
672,0.0244025872033499
673,0.0245028628139886
674,0.0245796274901888
675,0.0245476125475515
676,0.0245537875977893
677,0.024747748104592
678,0.0245433017697291
679,0.0244437497300917
680,0.0250199008680953
681,0.0246389824832974
682,0.0238731144842576
683,0.0233157816280775
684,0.0222468276641386
685,0.0213504088426596
686,0.0206746071727423
687,0.0201329914148879
688,0.0201177553795478
689,0.0204006561761395
690,0.0208498231769123
691,0.0216294895143373
692,0.021984847433944
693,0.0223557375813651
694,0.022793978674068
695,0.0228603726811626
696,0.0233149981611257
697,0.023350605062253
698,0.0231040140561514
699,0.0231643523092745
700,0.0235885374723277
701,0.0234723268089092
702,0.0237830273187551
703,0.023871425406406
704,0.0243264116997923
705,0.0242286697799975
706,0.0246273063170133
707,0.0248630268917648
708,0.0248420400195623
709,0.0250570460123973
710,0.0248599529493448
711,0.0247593788896718
712,0.0247756784145557
713,0.0238178084814568
714,0.0233028562444591
715,0.0221327842239609
716,0.0213354863601428
717,0.0206438407128341
718,0.0205051696491493
719,0.02056456772931
720,0.0207592494054288
721,0.0205710941516562
722,0.0211175122335875
723,0.0210469872843278
724,0.0209384734689981
725,0.0210093624920472
726,0.0208999718864457
727,0.0213033698601114
728,0.0215110816706355
729,0.0220183711794371
730,0.0224257341356877
731,0.0230959861658315
732,0.0235182704988477
733,0.0242658300171045
734,0.0246014998458134
735,0.0246259691706853
736,0.0250151426160625
737,0.0251427070680296
738,0.0252702715199967
739,0.0253978359719637
740,0.0257938023642577
741,0.0258572709191765
742,0.0259804588818168
743,0.026103646844457
744,0.0262268348070973
745,0.0263374731427655
746,0.0261694791269887
747,0.0263394639982504
748,0.0260292367689258
749,0.0262190317207513
750,0.0261592238951572
751,0.0261125427941159
752,0.0263378712425914
753,0.0261455453786975
754,0.0255983830841906
755,0.0235639488113847
756,0.0215295145385787
757,0.0194950802657728
758,0.01635355671532
759,0.0136339365160635
760,0.0119396665905835
761,0.0115609373608959
762,0.012042499179013
763,0.0134655535347766
764,0.0154134786237681
765,0.0173531080930384
766,0.019669402130491
767,0.021698058151592
768,0.0229422453512844
769,0.0239444196847978
770,0.0246777148375832
771,0.0249657586054822
772,0.0253946481845156
773,0.0257443117019261
774,0.0256293856039951
775,0.0257210105734399
776,0.0258703102569323
777,0.0255686637233402
778,0.0258472673706047
779,0.0256481573261475
780,0.0260115378627004
