"wavelength","measurement"
380,0.00170494719116637
381,0.00166367705889612
382,0.00159255309908721
383,0.00159763801861926
384,0.00162998243075401
385,0.00171566462465547
386,0.00179140952982441
387,0.00188156650408649
388,0.00202714407616226
389,0.0020368122932769
390,0.00201364896850638
391,0.00203579886268645
392,0.00205956290828198
393,0.00209118924730675
394,0.00217972581155145
395,0.00234832460582304
396,0.0025829956893019
397,0.0028815068083848
398,0.00318001792746769
399,0.00347852904655059
400,0.00364671927992425
401,0.00391985710368761
402,0.00404445513011009
403,0.00414066673223134
404,0.00417342218008002
405,0.00417541877640489
406,0.00430520922122811
407,0.00436142318211256
408,0.00441191047114072
409,0.00452906053564005
410,0.00468608244197826
411,0.00475872511083722
412,0.00489158047751758
413,0.0049722853980985
414,0.00497974938309625
415,0.00499574321173164
416,0.00494306902726208
417,0.00492894960889077
418,0.00501322964385579
419,0.00491838349082748
420,0.00506175194899425
421,0.00505792049482327
422,0.00507470009487734
423,0.00513262485269773
424,0.00513288875229395
425,0.00507894517495175
426,0.0050271266282828
427,0.00487318393000444
428,0.00475831323126501
429,0.00480666778476836
430,0.00479913448661132
431,0.00502172982490217
432,0.00526127637650535
433,0.00548446768750705
434,0.00572438702916898
435,0.00584382032835098
436,0.00596000612477578
437,0.00608950718240495
438,0.00621900824003413
439,0.00634850929766331
440,0.00643574884207267
441,0.00656477734863586
442,0.00680449007820979
443,0.00691904592867628
444,0.00711166062499767
445,0.00730427532131905
446,0.00749689001764044
447,0.00772361350619079
448,0.00783430367309842
449,0.00811514902688194
450,0.00812629723882961
451,0.00807247700623941
452,0.00804902500283562
453,0.00802557299943183
454,0.00800212099602804
455,0.00795474627153257
456,0.0079123187660935
457,0.00795832433340286
458,0.00792165730050145
459,0.00798095276564193
460,0.00791065269332479
461,0.0078232694461085
462,0.00798063891857777
463,0.00770372994263213
464,0.007605051118546
465,0.00751467728654507
466,0.00739840485107361
467,0.00733467319981767
468,0.00723840954953093
469,0.00717733909878703
470,0.00731344423740283
471,0.0072625424828742
472,0.0072976344008435
473,0.00730348103337715
474,0.00733038449577744
475,0.00738155917105734
476,0.00722046730862355
477,0.00720569221906018
478,0.00719091712949682
479,0.00717614203993346
480,0.00711231660755476
481,0.00693276254377329
482,0.00683661300010258
483,0.00681527936335119
484,0.00670729160426035
485,0.00658369783702744
486,0.00669580045926703
487,0.00673369264504229
488,0.00683884455483854
489,0.00702326043512063
490,0.00708892399455776
491,0.00716257392981381
492,0.00730547269150796
493,0.00725362014736667
494,0.00738205088851458
495,0.0072591735498966
496,0.00732211973554429
497,0.00721925149631705
498,0.00724642039439192
499,0.00708532200656187
500,0.00717363949863814
501,0.00714334127253395
502,0.00728803023086338
503,0.00736032428547019
504,0.00727869810869306
505,0.00755037725911063
506,0.0074768387814936
507,0.00755177696477723
508,0.00760284947381237
509,0.00758805087827674
510,0.0075014538922961
511,0.00758951944040502
512,0.00752097082406437
513,0.00731902418570648
514,0.00726864032782677
515,0.00717302208750431
516,0.00714541094820021
517,0.00714401438283559
518,0.0071337753789389
519,0.00723567317172302
520,0.00739211120497801
521,0.00745718022340692
522,0.00752224924183583
523,0.00758731826026473
524,0.00752534684996088
525,0.00753487259675523
526,0.00752369117664203
527,0.00748162214664698
528,0.00754135356540127
529,0.00758720360108607
530,0.00760934160089793
531,0.00762865088401894
532,0.0075675643760857
533,0.00766696186725341
534,0.00768777760161216
535,0.00761212387599135
536,0.0077183793168221
537,0.00766386590020571
538,0.00762309488324974
539,0.007585746933779
540,0.00764228769769401
541,0.00761790500588456
542,0.00759025944151068
543,0.00763882248253724
544,0.00766576337293115
545,0.00759861741619995
546,0.00764639483494503
547,0.00763190629441745
548,0.00761741775388987
549,0.00760292921336228
550,0.00757423513550205
551,0.00763420959069727
552,0.0076814473053848
553,0.0076069959736152
554,0.0075946654202196
555,0.00766524217053276
556,0.0075838080961769
557,0.00758441173875502
558,0.00755376505959287
559,0.007488319909332
560,0.00760349043953982
561,0.00744434095349591
562,0.00758456267477066
563,0.00746562488421616
564,0.00751036247082554
565,0.0074053696618692
566,0.00739818823181076
567,0.00733702740092595
568,0.00735804589725682
569,0.00730977068171605
570,0.0073270266172731
571,0.00733018634435455
572,0.00732115930451436
573,0.00733406366039128
574,0.00743270483654014
575,0.00734650737767137
576,0.00739468863256931
577,0.00744286988746724
578,0.00749105114236517
579,0.00753923239726311
580,0.00758741365216104
581,0.00772052389570631
582,0.0077075522714467
583,0.00777317856663474
584,0.007701908215301
585,0.00772851956091286
586,0.00750921452835514
587,0.00746862624012449
588,0.00742503857025657
589,0.00738145090038864
590,0.00733786323052072
591,0.00737840827766256
592,0.00744563572315208
593,0.00746377473863356
594,0.00753468673222401
595,0.00753113018734823
596,0.00759735448613624
597,0.00763413086215786
598,0.00762861570740764
599,0.00763363172133371
600,0.00768876730847027
601,0.00772884053301134
602,0.00776960496931114
603,0.00775629443647405
604,0.00782835314576829
605,0.00781739137105316
606,0.00779207998249778
607,0.00781271997492624
608,0.00776245394916775
609,0.00777110946661603
610,0.00773163505623672
611,0.0076940589232413
612,0.00765768130644284
613,0.00763321849628262
614,0.00751347698109239
615,0.00761783090268634
616,0.0075422764836797
617,0.00761766949253971
618,0.00758715444372873
619,0.00760117260672555
620,0.00757268410319899
621,0.00760039663145152
622,0.00743924064983818
623,0.007429785709806
624,0.00736630545049491
625,0.00730282519118382
626,0.00723934493187273
627,0.00719438627211607
628,0.00717706813298025
629,0.00715391146419445
630,0.00725593258957985
631,0.00714212654305111
632,0.00719397270719341
633,0.00722591516204624
634,0.00726793661986075
635,0.00727500680740907
636,0.00725239620752676
637,0.00732247737005319
638,0.00730815287345398
639,0.00732242953459618
640,0.00728247014536462
641,0.00728300120449221
642,0.00727202760190966
643,0.00723419846835614
644,0.00719636933480263
645,0.00715854020124911
646,0.00715187403858207
647,0.00717121514227783
648,0.00706420452455731
649,0.00718389605980424
650,0.00710150422512362
651,0.0071272817594169
652,0.00706194271365042
653,0.00695941185026162
654,0.00682758143034499
655,0.00690671261071221
656,0.00684422153893515
657,0.00691879122382736
658,0.0069756844309628
659,0.0071550161661049
660,0.00720369629364038
661,0.00721111344026409
662,0.00723168944067219
663,0.00719793944539202
664,0.00715282714283632
665,0.00717260979546544
666,0.00719409557068888
667,0.00720322690040831
668,0.00718719146742371
669,0.00708641770278486
670,0.00713222853358144
671,0.00710192819088564
672,0.00711397901229005
673,0.0071103178131157
674,0.00713512443388734
675,0.00713228402691846
676,0.00713989147000703
677,0.00717405145719157
678,0.00710693071309139
679,0.00707056896344347
680,0.00723236591971053
681,0.00712239952971755
682,0.00693156500829892
683,0.00673386735844997
684,0.00641834531923042
685,0.00620622875302957
686,0.00602023555810297
687,0.00586550066427893
688,0.00584367879323558
689,0.00593165875123844
690,0.00607691031010582
691,0.00630686075441562
692,0.00639918169661244
693,0.00649110089609131
694,0.00664935288415545
695,0.00661898978203782
696,0.00676086780555534
697,0.00677109667468823
698,0.0067188778839195
699,0.00672551769835739
700,0.0068410777243552
701,0.00682298716969615
702,0.00691526751006433
703,0.00691505783666766
704,0.00706467615082547
705,0.00702487424871191
706,0.00714474756108879
707,0.00723398754040326
708,0.00721476022579132
709,0.00726397670853098
710,0.00718811585130276
711,0.00719069738023892
712,0.00721570872332962
713,0.00693252309730529
714,0.00680007809460592
715,0.00647645726758506
716,0.00621570363174963
717,0.00604387602528603
718,0.00600044002182672
719,0.0060635168434188
720,0.00611638660140821
721,0.00606403382456383
722,0.006196863866706
723,0.00616008682655311
724,0.00614644362883238
725,0.00614781443681889
726,0.006150716883304
727,0.00626540175888593
728,0.00631857141024936
729,0.00643821025001353
730,0.0065678297603991
731,0.00676437559665911
732,0.00691824809402423
733,0.00711823527540275
734,0.00717469721447374
735,0.00725236109920892
736,0.00735676240232574
737,0.00739092554346081
738,0.00742508868459588
739,0.00745925182573096
740,0.00756037107035616
741,0.00759363349013654
742,0.00763803829514689
743,0.00768244310015724
744,0.00772684790516759
745,0.00775364826426867
746,0.00774233179356824
747,0.00781354188395719
748,0.0077137033555055
749,0.00778710490912026
750,0.00776199175128529
751,0.007796592903283
752,0.0078975408811287
753,0.00773346625358317
754,0.00761973360571538
755,0.00701960667809485
756,0.00641947975047432
757,0.00581935282285378
758,0.00491321343146509
759,0.0040802948916771
760,0.00360891051980793
761,0.00350787041387835
762,0.0036786062382122
763,0.00411742289848279
764,0.00478142209715261
765,0.00536880053234049
766,0.00609486980782215
767,0.00668854876563237
768,0.00707418045203618
769,0.00733637503473448
770,0.00759170209739648
771,0.00771351774231437
772,0.00782687417692836
773,0.00793473718919195
774,0.00792120704946259
775,0.00793070669908293
776,0.00795280075658146
777,0.00789691832955892
778,0.00796877241479428
779,0.00792814253404
780,0.00802586734049593
