"wavelength","measurement"
380,0.00509842699910184
381,0.00513891593868885
382,0.00499076638108214
383,0.00498857935955706
384,0.00498318969529973
385,0.00530569607923342
386,0.00576211911648551
387,0.00605538809211274
388,0.00674704601106271
389,0.00671230699819262
390,0.00693908675224562
391,0.00700201425758528
392,0.00725839689224398
393,0.0074934901262786
394,0.00787950274348143
395,0.00869037651058456
396,0.00989891703997987
397,0.0113586450526631
398,0.0128183730653462
399,0.0142781010780294
400,0.0148499567009308
401,0.0162620023075924
402,0.0170580224677776
403,0.017752857616249
404,0.0181014927297723
405,0.0186439451753099
406,0.0190804501181708
407,0.019670873958268
408,0.0201166780296156
409,0.0208589658014066
410,0.0221978951916337
411,0.022242664615964
412,0.023228919184411
413,0.023692436022621
414,0.0240203767895496
415,0.0243527512674565
416,0.0243331322257919
417,0.0239838508382054
418,0.024552806568463
419,0.024192106365124
420,0.0248113471560911
421,0.0246951618911239
422,0.0249418720006653
423,0.0250165446685203
424,0.0251318830219826
425,0.0245210083694726
426,0.0243034878532851
427,0.0235989777879804
428,0.0230236985685103
429,0.0230158361840543
430,0.0232463350105773
431,0.0241317104713592
432,0.0251001034961
433,0.0259100429849035
434,0.0269747304898684
435,0.0273686666102159
436,0.0277744925824079
437,0.0281768991921033
438,0.0285793058017986
439,0.028981712411494
440,0.0291973576326742
441,0.0297586509417675
442,0.0304280398969019
443,0.0306395200529045
444,0.0311494868597185
445,0.0316594536665325
446,0.0321694204733465
447,0.0326668959865476
448,0.0327846523623657
449,0.033974512889825
450,0.0335380159692229
451,0.0333210560523345
452,0.0331935799673152
453,0.033066103882296
454,0.0329386277972767
455,0.0328421014795163
456,0.0329326872059255
457,0.0331384200419371
458,0.0335121689063254
459,0.0338125136056615
460,0.0340501096664636
461,0.0335497804387916
462,0.0345096507815372
463,0.0335505885618954
464,0.0332259893126662
465,0.0329023390171988
466,0.0325989393509084
467,0.0326119311883145
468,0.03218475860104
469,0.0321882987073878
470,0.032999622380573
471,0.0330713910696253
472,0.0333767347009575
473,0.0338073134563694
474,0.033801500533232
475,0.0343203422121767
476,0.0336356375751345
477,0.0336818030230494
478,0.0337279684709643
479,0.0337741339188793
480,0.0336146445932842
481,0.032878609728824
482,0.0323654828554786
483,0.032271230541127
484,0.0315703226967087
485,0.0310130101261838
486,0.0313828465108773
487,0.0316185849481351
488,0.0321901365310408
489,0.0329892138724978
490,0.0330351753605312
491,0.0332595249235886
492,0.0341180429714797
493,0.0334682589877289
494,0.0341264194479037
495,0.0333590643169664
496,0.0335385282431541
497,0.0327770025506486
498,0.0329002549120245
499,0.0322125873092876
500,0.0323811939644323
501,0.032083877734095
502,0.0326503313862493
503,0.0326786567381094
504,0.0322648811526466
505,0.0332251717821987
506,0.0330476168603379
507,0.0330382352316882
508,0.0332195300696828
509,0.0331210338769361
510,0.0324690073782585
511,0.0327904516703097
512,0.0323305306073996
513,0.0312805829565639
514,0.031059910772985
515,0.0303807195641842
516,0.0302365888091751
517,0.0301211717894367
518,0.0299402225430599
519,0.0304656940738933
520,0.0308980310444729
521,0.0311094350512442
522,0.0313208390580154
523,0.0315322430647867
524,0.0312368488797883
525,0.0310597387747797
526,0.0310509297727918
527,0.0308178039093205
528,0.0308674983527931
529,0.0310483643032684
530,0.0309722900287128
531,0.0309975846386885
532,0.0306781201549758
533,0.0309648949241651
534,0.0310914623897641
535,0.0306759272849023
536,0.03084041943679
537,0.030626397718537
538,0.0302900035870007
539,0.0301240445771211
540,0.0303760619287903
541,0.0300064920574248
542,0.029798231802195
543,0.0299019042771119
544,0.0300218782738939
545,0.0297130669620106
546,0.0299530137506554
547,0.029841420354462
548,0.0297298269582686
549,0.0296182335620751
550,0.0294438454677189
551,0.0296334422900373
552,0.0298712670960747
553,0.0295203068438734
554,0.0292772631868409
555,0.0295653864443998
556,0.0289692163785393
557,0.0289888752840633
558,0.0286070958139315
559,0.0282301158023969
560,0.0286565561329501
561,0.028073529705301
562,0.0284616694929553
563,0.0278669431450206
564,0.0279345237822305
565,0.027487492578214
566,0.0272737477137682
567,0.0269273212057268
568,0.0270333781851258
569,0.026653800020041
570,0.0267251413195086
571,0.026686588504486
572,0.0266983796123095
573,0.0265566560928045
574,0.0267746749512369
575,0.0264337306081669
576,0.0266056634891932
577,0.0267775963702194
578,0.0269495292512456
579,0.0271214621322719
580,0.0272933950132981
581,0.0278572662753098
582,0.0277666895606052
583,0.0280310299939896
584,0.0275394087161253
585,0.0275680589434404
586,0.0269697145949553
587,0.0267757369521273
588,0.0265660594507418
589,0.0263563819493562
590,0.0261467044479706
591,0.0262931577423404
592,0.0265038926260355
593,0.0266468456461794
594,0.0269437343419691
595,0.0269600440617058
596,0.0270462485921011
597,0.0271040385700185
598,0.0271116788336961
599,0.0270484937674644
600,0.0272415584739405
601,0.0274447415110498
602,0.027632716928614
603,0.0275185352064615
604,0.0277031191998752
605,0.0276233952935393
606,0.0276575289800659
607,0.0275859484168433
608,0.0273577619577156
609,0.0273517243979698
610,0.0271738866348986
611,0.0271266641377661
612,0.0269152428319119
613,0.0268417552896193
614,0.0265788339357145
615,0.0270339425164693
616,0.0267123442670946
617,0.0270469425895212
618,0.0270052578552773
619,0.0271627121878256
620,0.0270692622370773
621,0.0272706882746656
622,0.0267077341102069
623,0.0267428282743352
624,0.0265220486148737
625,0.0263012689554122
626,0.0260804892959507
627,0.0259794789965816
628,0.0259247103973531
629,0.0259311535887158
630,0.0262454450519491
631,0.0260406978231636
632,0.026301265062641
633,0.0264912703223634
634,0.0266310651970733
635,0.026921007064562
636,0.0267100884905957
637,0.0270523793077414
638,0.0270294940153239
639,0.0272088554469538
640,0.0271417785337853
641,0.0270972660114353
642,0.0271417338284222
643,0.0270073928977785
644,0.0268730519671349
645,0.0267387110364912
646,0.0269295032027361
647,0.0269433680985563
648,0.0265770110819876
649,0.027155704071761
650,0.0268755529703611
651,0.0271059714277754
652,0.0267915566599696
653,0.02638483172021
654,0.0260274798389404
655,0.0263678239518351
656,0.0260983604911169
657,0.0265292460345784
658,0.0268264680627104
659,0.027451279668035
660,0.0277670319803779
661,0.0278326722164147
662,0.0280396022058712
663,0.0278376428684835
664,0.0277301899609987
665,0.0279099709247713
666,0.0279742493541492
667,0.0282619314600571
668,0.0282423111705492
669,0.0277880018564043
670,0.0280048644462197
671,0.0279756637298547
672,0.0279003420711415
673,0.0280020530492029
674,0.0280541702216229
675,0.0281103675860109
676,0.028239909369901
677,0.0285001798662647
678,0.0282986463233426
679,0.0282549197181826
680,0.0287847980413177
681,0.0284159437259977
682,0.0274674727106816
683,0.0269139839039406
684,0.0256484014877419
685,0.0248467934145588
686,0.024074936941588
687,0.023633768792542
688,0.0237176005444802
689,0.0240531797373829
690,0.0248020029295546
691,0.0257098146089098
692,0.0262000593005788
693,0.0268027419889668
694,0.0273707395833401
695,0.0275881356073885
696,0.0282357569779395
697,0.0283990032461228
698,0.0282186621692882
699,0.0284846722360872
700,0.0291273486401258
701,0.0291174162817433
702,0.0297082276706429
703,0.0298691276913491
704,0.0305697956046935
705,0.0307031032448328
706,0.0312586352649422
707,0.0316246113145304
708,0.0319083122685514
709,0.0323921331463509
710,0.0322011019543018
711,0.0322358780492443
712,0.0324381640871476
713,0.0314172302392619
714,0.0310357836618203
715,0.0297023455632546
716,0.0288761849583702
717,0.0283446628274534
718,0.028414961754438
719,0.0287545166119589
720,0.029189196643951
721,0.0290181740665208
722,0.029835153462463
723,0.0298815721326033
724,0.030044816233848
725,0.0303017929070047
726,0.0302979379392641
727,0.0310560617620719
728,0.0315196507182401
729,0.0322302116739925
730,0.0330403699472604
731,0.033884840029686
732,0.0349204612775844
733,0.0357986315939528
734,0.0364781911703166
735,0.0364504215351272
736,0.037282290717715
737,0.0375776112785162
738,0.0378729318393175
739,0.0381682524001188
740,0.0388473783077588
741,0.0391304628934763
742,0.0394008635464147
743,0.0396712641993531
744,0.0399416648522915
745,0.0401036506579838
746,0.0402310865669425
747,0.0404473616258578
748,0.0402007832888448
749,0.0403555950791651
750,0.0405374055339108
751,0.0405287827733873
752,0.0411107478658444
753,0.0406822079159195
754,0.0397049892624031
755,0.0364718683333758
756,0.0332387474043485
757,0.0300056264753212
758,0.025141788740668
759,0.0211135365578558
760,0.0189879571383147
761,0.0186784523561294
762,0.0197400204765663
763,0.0221623616256106
764,0.0253554078759696
765,0.0283924913533007
766,0.0319611769906194
767,0.0351253345944394
768,0.037064904839255
769,0.0386467167830358
770,0.0398033579305513
771,0.0403188849471888
772,0.0408734214827742
773,0.0415695401478147
774,0.0412345737255957
775,0.0414209981400839
776,0.0417123985065821
777,0.0411461343903349
778,0.0418327258702574
779,0.0412357484437762
780,0.0418299889273652
