"wavelength","measurement"
380,0.0170728439647643
381,0.0165807644742068
382,0.0160608113142532
383,0.016079648254022
384,0.0160597354190449
385,0.0166776022867866
386,0.0175044452216113
387,0.0181848269654367
388,0.0188966596562087
389,0.0192193137939926
390,0.0189191373614776
391,0.0189386547718415
392,0.0191265178017399
393,0.0190740231450816
394,0.0194922767447018
395,0.0207410373102209
396,0.0228455388185067
397,0.0251879514794116
398,0.0275303641403164
399,0.0298727768012213
400,0.0313357916934173
401,0.032732213925136
402,0.033771148091853
403,0.0339675025420218
404,0.0338409070733789
405,0.0336251317945274
406,0.0344095756939546
407,0.0344602608968232
408,0.0345841484455889
409,0.0351694703265046
410,0.0365804960159114
411,0.0366139232333077
412,0.0374533781908358
413,0.0378735103280977
414,0.0378455646284278
415,0.0380279371636174
416,0.037327733802238
417,0.0370265373572688
418,0.0375208771886519
419,0.0366532930641942
420,0.0372974367152781
421,0.0371692866863177
422,0.0373576057235262
423,0.0372674175417039
424,0.0374386016101018
425,0.0366083149685368
426,0.0359953254230825
427,0.035040664534193
428,0.0339215823891609
429,0.0340186383731404
430,0.0340871756483054
431,0.0353151655928363
432,0.0366305031349863
433,0.0375447704219226
434,0.0391006220794062
435,0.0398818707318631
436,0.0401595562848501
437,0.0407257164602338
438,0.0412918766356176
439,0.0418580368110013
440,0.0420027443784356
441,0.0427340190112796
442,0.0435397991314854
443,0.0436863388164933
444,0.0444186517266512
445,0.0451509646368091
446,0.045883277546967
447,0.0467439572467617
448,0.0468131437650031
449,0.0483744047008541
450,0.0479686403817905
451,0.0476401418495361
452,0.0474047081115564
453,0.0471692743735768
454,0.0469338406355972
455,0.0470238772982011
456,0.0472778882059084
457,0.047571066390757
458,0.0478817792917639
459,0.0484753177310843
460,0.048659880739211
461,0.0480377645026117
462,0.0489551774178348
463,0.0478019172781584
464,0.0472145523153593
465,0.0467964196226301
466,0.0461949354128538
467,0.0461661482822309
468,0.0457075244914331
469,0.0452844331448614
470,0.0464088538688908
471,0.0462222191831068
472,0.0464186901378807
473,0.0469770420062661
474,0.0468850729931011
475,0.0474614092871545
476,0.0464528488223916
477,0.0464240002111853
478,0.046395151599979
479,0.0463663029887727
480,0.0461776068860728
481,0.0449977273507426
482,0.0441921762426862
483,0.0439277563531014
484,0.0430551655191125
485,0.0423071066559378
486,0.0427784925736922
487,0.0431601078685813
488,0.0437752678010694
489,0.0447458804105661
490,0.0451638929672216
491,0.0453189415167183
492,0.0464396211684484
493,0.0457534400272894
494,0.0464261333390322
495,0.0456803305702201
496,0.0458188372908997
497,0.044828196279795
498,0.0449872922317654
499,0.0439950667008795
500,0.0442332813797223
501,0.0438419538234707
502,0.0444622027192091
503,0.0447020329370236
504,0.0442170039281831
505,0.0456338658674253
506,0.0452548552768582
507,0.0453462446710832
508,0.0457226574018001
509,0.0455158562608747
510,0.0446860208494966
511,0.0451490072171132
512,0.0446322220993322
513,0.043185994250499
514,0.0429618913175282
515,0.0421604163893882
516,0.0419069926172484
517,0.0417896574053062
518,0.0415948571710168
519,0.0426001422441181
520,0.0432038622315781
521,0.0434852302112496
522,0.0437665981909211
523,0.0440479661705925
524,0.0437247449548845
525,0.0436650979791312
526,0.0437312302070723
527,0.0433641961784751
528,0.0434354365659609
529,0.043854070226647
530,0.0436473708987991
531,0.0437545203047183
532,0.0433734998190924
533,0.0438629759688782
534,0.0438794937327993
535,0.0434026352532595
536,0.0437847370365238
537,0.0434584620287401
538,0.0431126164713067
539,0.0427635519126306
540,0.0430029873334087
541,0.0425590147047275
542,0.0423855650150309
543,0.042376380074771
544,0.042622805980144
545,0.0422252580891415
546,0.0425160880342952
547,0.0424410996274076
548,0.0423661112205201
549,0.0422911228136325
550,0.041932897774205
551,0.042248163262212
552,0.0425082606888325
553,0.042088678847395
554,0.0418619283625325
555,0.0422130102169348
556,0.0415711895038665
557,0.0413846344071165
558,0.0410876895403449
559,0.0407073368882481
560,0.0410951863944931
561,0.0402953846125906
562,0.0408830029982288
563,0.0401867027841704
564,0.0402230607433275
565,0.0396028662020259
566,0.0392961797151451
567,0.0387681247868056
568,0.0388909503113075
569,0.0383623340442731
570,0.038389426182822
571,0.0382513651328512
572,0.0382822993318808
573,0.0380181153236393
574,0.0383743879167353
575,0.0377507446959724
576,0.0379878574878612
577,0.03822497027975
578,0.0384620830716388
579,0.0386991958635276
580,0.0389363086554164
581,0.0395523174642821
582,0.039420784093762
583,0.0397998873203905
584,0.0391022719722784
585,0.0389974336158447
586,0.0379547258257372
587,0.0376718427939937
588,0.0373410745087202
589,0.0370103062234466
590,0.036679537938173
591,0.036813485208265
592,0.0370582967435029
593,0.0370586600621953
594,0.0376504882088361
595,0.0375722451421307
596,0.0377523423137941
597,0.0379252201707367
598,0.0376788840143562
599,0.0378148692813324
600,0.0379377196129477
601,0.0383014263321329
602,0.0384364768682809
603,0.0383258796379419
604,0.038600731792528
605,0.0384234799849698
606,0.0385154071590857
607,0.0383881788624152
608,0.037932334122818
609,0.0380031122082626
610,0.0377877300951869
611,0.0376770349288219
612,0.0372991097641453
613,0.0373338909280311
614,0.0369079044332887
615,0.0375930485359112
616,0.0370719855166954
617,0.0374492473008986
618,0.0373528825104996
619,0.0374758138598574
620,0.0373651140639936
621,0.037567313107015
622,0.0368919505680213
623,0.0367626931176106
624,0.0364280965693651
625,0.0360935000211196
626,0.0357589034728741
627,0.0356362756697864
628,0.0354847354646807
629,0.0354753333046361
630,0.0360094929625796
631,0.0356937641444248
632,0.0360407898102909
633,0.0363891732560903
634,0.0365978252437042
635,0.0368874595783376
636,0.0366017341415466
637,0.0371620828415492
638,0.036916918474077
639,0.0372227838236333
640,0.037221516342806
641,0.0372070510834913
642,0.0369633966694116
643,0.0368016775842565
644,0.0366399584991014
645,0.0364782394139463
646,0.0368424968945443
647,0.0367800513041114
648,0.0362954450190126
649,0.0369744212412819
650,0.0364604185304571
651,0.0367155971656957
652,0.0363936826622314
653,0.035839488192937
654,0.0353538446926705
655,0.0357825892339941
656,0.0357000140701959
657,0.0360015073823805
658,0.0363928505026975
659,0.0372285402851029
660,0.0376674700449818
661,0.037836753424179
662,0.0377805352212426
663,0.0377879312416134
664,0.0375811416685675
665,0.0376600435410347
666,0.0378020567798186
667,0.0381172498261023
668,0.0381908199027142
669,0.0373679130320674
670,0.0377168197340652
671,0.0378114263679543
672,0.0376856180606854
673,0.0377404270709252
674,0.0379063835963728
675,0.0379657892618761
676,0.0379598391696602
677,0.0381896656972076
678,0.037914544032898
679,0.037862395294597
680,0.0385923041234185
681,0.0380025732193457
682,0.0368648588097667
683,0.0358500169595292
684,0.0342203092604688
685,0.0328698071136735
686,0.0317345825772891
687,0.0311735998225556
688,0.0311630862023801
689,0.0316387473749059
690,0.0324665283161875
691,0.0335712763565493
692,0.0343671055971657
693,0.0348916727209577
694,0.0358090008527
695,0.0360217458164288
696,0.0367958266825184
697,0.0370422702249641
698,0.0366987885167154
699,0.0368775269631381
700,0.0377488526354529
701,0.0375993155958973
702,0.0383446950424033
703,0.038608249718125
704,0.0391817830201706
705,0.0393831604151067
706,0.0401684130456674
707,0.0405334938884213
708,0.0407042130063036
709,0.0412751930859131
710,0.0409568463080603
711,0.0408222076239385
712,0.0410147399957108
713,0.0394304622002391
714,0.0387912865608671
715,0.0371102234378245
716,0.0357810829098695
717,0.0350982150181724
718,0.034851307870714
719,0.03520355256304
720,0.0356112906322894
721,0.0354011101815633
722,0.036300405684003
723,0.0362701839237934
724,0.0362883502928939
725,0.0363879608643343
726,0.0364482758310135
727,0.0371394470008357
728,0.037653755707893
729,0.0386155803429838
730,0.0395531985147432
731,0.0404940026003979
732,0.0415831653172295
733,0.042774571184771
734,0.0433423715375188
735,0.0434838556145004
736,0.0442234342975745
737,0.0444796946906411
738,0.0447359550837077
739,0.0449922154767743
740,0.045712074757049
741,0.0458914716482435
742,0.0461172591803634
743,0.0463430467124833
744,0.0465688342446031
745,0.0465990099929864
746,0.0465778195420236
747,0.046810972265466
748,0.0463930780883623
749,0.0465672543490473
750,0.0467455031715364
751,0.0464776617084364
752,0.0470870356763415
753,0.0465349471734687
754,0.0453061977845845
755,0.0415636620773552
756,0.037821126370126
757,0.0340785906628968
758,0.0284512259214017
759,0.0237601519894649
760,0.0212723699852439
761,0.0208713072360421
762,0.0218451072231815
763,0.0245175200861704
764,0.0279870208349166
765,0.0315033208225782
766,0.035360038562748
767,0.0389911590286311
768,0.0412400866090826
769,0.0429457797780816
770,0.0441425916809539
771,0.0447646645200417
772,0.0454243962628882
773,0.0461812551638212
774,0.0458449322437514
775,0.0460678141465157
776,0.0461451067781335
777,0.0457196121057891
778,0.0463618188009081
779,0.0458156017934902
780,0.0464386145325888
