"wavelength","measurement"
380,0.00334600752773552
381,0.00342378119722058
382,0.00327529657756104
383,0.00348527288258782
384,0.00336010610434953
385,0.00368929012690147
386,0.00371244205551164
387,0.00412800843976731
388,0.00458670688844953
389,0.00464970578380999
390,0.00473208232788502
391,0.00478669971185242
392,0.00499838676983035
393,0.00522414837296073
394,0.00558331485429227
395,0.00615346170278604
396,0.0069743450380586
397,0.00799905223464395
398,0.0090237594312293
399,0.0100484666278147
400,0.0106972514375172
401,0.0115228336469785
402,0.0123229203176381
403,0.012598539662216
404,0.0130813601147265
405,0.0131556184357382
406,0.0136363882999791
407,0.0142572260831298
408,0.0147047583920826
409,0.0151791102328345
410,0.0159918837404703
411,0.0163692497027418
412,0.0169698446829057
413,0.017458982164583
414,0.0175486605594123
415,0.0176988955318619
416,0.0176285413150792
417,0.0176003593985371
418,0.0179348852561715
419,0.0177949416431898
420,0.0182216480172119
421,0.0182250702368947
422,0.0184318235269179
423,0.018497430492567
424,0.0184226243179871
425,0.0181887060374737
426,0.0180483704192733
427,0.0174492786023033
428,0.017038986978813
429,0.0170161492617331
430,0.0172733599229411
431,0.0178104084710825
432,0.0185409889993523
433,0.0190809647951841
434,0.0200921597883444
435,0.0204861064247744
436,0.0207708635949461
437,0.0211175475344476
438,0.0214642314739491
439,0.0218109154134506
440,0.0218786051579469
441,0.0222993845062166
442,0.0228501771423235
443,0.0229780766874349
444,0.0233858844490485
445,0.0237936922106621
446,0.0242014999722757
447,0.0245647434620427
448,0.0247138552718436
449,0.0256039098596066
450,0.0253799895526057
451,0.025106272710149
452,0.0250366680771672
453,0.0249670634441854
454,0.0248974588112036
455,0.025019414695698
456,0.0247624949384604
457,0.0251669758196383
458,0.0252751762710547
459,0.0256896400641915
460,0.0257572331127112
461,0.0254225551642817
462,0.0259675954623293
463,0.0254048331034979
464,0.0250919720145422
465,0.0249366237209905
466,0.0246272551606338
467,0.0246522448920039
468,0.024460535923545
469,0.0243206113564309
470,0.0250064874673852
471,0.0250473904553501
472,0.02526588945179
473,0.0256363919113404
474,0.025711342829173
475,0.0260622687486844
476,0.0256214328246946
477,0.025630660511176
478,0.0256398881976575
479,0.0256491158841389
480,0.0255732520578409
481,0.0249256935265674
482,0.0245862179056935
483,0.024557038763591
484,0.024079284361791
485,0.0235358602639723
486,0.023909150131001
487,0.0240745707271963
488,0.0244400806767639
489,0.0250394948888383
490,0.025210313073628
491,0.0253586979791511
492,0.0258460553511772
493,0.0255456360508282
494,0.0258904150984895
495,0.0254715839890645
496,0.0254863496278564
497,0.0249932023774225
498,0.0250880070139207
499,0.0244476915202219
500,0.0247007611542772
501,0.0243386360126755
502,0.0247940984705269
503,0.025036477063625
504,0.0246074687057529
505,0.0254047746878653
506,0.0252523462131946
507,0.0251765957370074
508,0.0252917321791646
509,0.0252494906582145
510,0.0248146712060332
511,0.0250586928270361
512,0.0246959154435711
513,0.0240193830641578
514,0.0237958093990648
515,0.023312481749174
516,0.0231653979722098
517,0.0231221666923829
518,0.0230174687008155
519,0.0234820492945082
520,0.0237955401894702
521,0.0239787995857156
522,0.0241620589819609
523,0.0243453183782063
524,0.0240899570202835
525,0.0240822797678746
526,0.0239966523792358
527,0.0237964451484174
528,0.0238675061214727
529,0.0241198916786351
530,0.0240313131531333
531,0.0239556132884743
532,0.023895620902982
533,0.0240911247448287
534,0.0240680001003835
535,0.0238661936404532
536,0.0239773969776132
537,0.023884998232963
538,0.0235991560570965
539,0.0234795488299359
540,0.0235827454086789
541,0.0233862624622094
542,0.0232488573957517
543,0.0232756854540296
544,0.0233987608271397
545,0.0231841577049691
546,0.0233533530458911
547,0.0232857925141504
548,0.0232182319824097
549,0.0231506714506691
550,0.0228824276888571
551,0.023244121912033
552,0.0233476718964464
553,0.0230842779190809
554,0.0229154434564119
555,0.0231253424642228
556,0.0227521630908192
557,0.0226139376460947
558,0.0224567529087414
559,0.0221861821788068
560,0.022479903058316
561,0.0219263241778116
562,0.0221681457582218
563,0.0218053118059376
564,0.0218402996084497
565,0.0214432865598292
566,0.0212212725029857
567,0.0209727873180707
568,0.0211777166965147
569,0.020840950458558
570,0.0207759347736874
571,0.020838864297509
572,0.0207405960385807
573,0.0207685874984056
574,0.0208227839229914
575,0.0205805001870496
576,0.02072099010095
577,0.0208614800148504
578,0.0210019699287508
579,0.0211424598426512
580,0.0212829497565515
581,0.0216123458954072
582,0.0216181822398747
583,0.0218081866183117
584,0.02151291355075
585,0.0215680041983186
586,0.0211066297988275
587,0.0208245909462019
588,0.020714368316654
589,0.0206041456871061
590,0.0204939230575582
591,0.0205876400069526
592,0.0207966153877211
593,0.0207880019426666
594,0.0210695286221666
595,0.0209488262196085
596,0.0212148874461821
597,0.0212141068938339
598,0.0212026054936745
599,0.0212047804778969
600,0.0214023462240448
601,0.0215423836733105
602,0.0217283115119338
603,0.0215480522355253
604,0.0216771301775823
605,0.0216830177665831
606,0.0217198369014134
607,0.0216372253701182
608,0.0215319959097127
609,0.0214929108306982
610,0.0213637199566258
611,0.0213227372372643
612,0.0211438886713783
613,0.0211619329295076
614,0.0208717001230692
615,0.0212450954924635
616,0.0210357320568435
617,0.0213000848324007
618,0.0212642918880533
619,0.0213087169173902
620,0.0212859451532779
621,0.0215204818994576
622,0.0209666012545779
623,0.0210627174925001
624,0.0208673894578731
625,0.020672061423246
626,0.020476733388619
627,0.0205009184213099
628,0.0203944373836952
629,0.0204044482454843
630,0.0207333534216902
631,0.0205397783373652
632,0.0207374907357694
633,0.0209477283445628
634,0.0210261556741558
635,0.0212042735718872
636,0.0210766185632429
637,0.021362215729239
638,0.0212541796875823
639,0.0214537918223685
640,0.0213523022766888
641,0.0213931433920216
642,0.0213380549819818
643,0.0212783799099861
644,0.0212187048379904
645,0.0211590297659948
646,0.0212478278011887
647,0.0213338078926998
648,0.0210501801561841
649,0.0213928389837505
650,0.0211452990659869
651,0.0212865269279516
652,0.0211396716538807
653,0.0208024261940184
654,0.0205183828601519
655,0.0208118432557605
656,0.0206644391436724
657,0.020908876126558
658,0.0212560443580347
659,0.0217060968367451
660,0.021933315131733
661,0.0219589430940091
662,0.0220966574381501
663,0.0220121337872857
664,0.021934520032389
665,0.0221342950086101
666,0.0220726102308645
667,0.0222667303893608
668,0.0223208652914566
669,0.0220378687099985
670,0.0221290296814176
671,0.0222543966035991
672,0.0221762377298354
673,0.0222534738607276
674,0.0223163603484063
675,0.0224071777940023
676,0.0223960142554045
677,0.0225805716933842
678,0.0224185381039664
679,0.0225132225027017
680,0.0230847857622505
681,0.0226155583255721
682,0.0221092499331605
683,0.0215654230144729
684,0.020598356314841
685,0.0199179183120647
686,0.0193553428273931
687,0.0191048861347443
688,0.0192154618819936
689,0.0196326369950535
690,0.0202469100662182
691,0.0210590145380853
692,0.0216392533207442
693,0.0219981933208196
694,0.0226081057320546
695,0.0228274861187083
696,0.0235465696782954
697,0.0237208561475788
698,0.0236830962767824
699,0.023914028751164
700,0.0245424448978211
701,0.0246533862801448
702,0.0251449388946912
703,0.0255556653885501
704,0.0261244701928933
705,0.0262786076282165
706,0.0269983164001322
707,0.0273993208789885
708,0.0275918685284181
709,0.028157991815015
710,0.0281132027077787
711,0.0282421522546356
712,0.0285046927179424
713,0.0276653179092413
714,0.0274585332936048
715,0.0263348948940238
716,0.0258156524362706
717,0.0253398012477101
718,0.0253636058958825
719,0.0257721726124368
720,0.026364677568713
721,0.02632824147173
722,0.0270950166922889
723,0.027282705645859
724,0.0273302361707372
725,0.027635809292104
726,0.0276965991114126
727,0.0284471647759749
728,0.0289122948120928
729,0.0296597360193196
730,0.0304056449931489
731,0.0313315473676886
732,0.0321137647143942
733,0.0331836376426304
734,0.033664271204913
735,0.0340078551120273
736,0.0345411529147709
737,0.034851051561871
738,0.035160950208971
739,0.0354708488560711
740,0.0361499913260495
741,0.03629848160079
742,0.0366322485358825
743,0.0369660154709751
744,0.0372997824060676
745,0.0375581851148959
746,0.037603904157981
747,0.0379163329686252
748,0.0376170009920509
749,0.0379664010807279
750,0.0379985322978236
751,0.0378309517540438
752,0.0386530961091835
753,0.0382227412967309
754,0.0371924203332265
755,0.0341725713935132
756,0.0311527224537999
757,0.0281328735140866
758,0.0235658768028927
759,0.0199081197635934
760,0.0178431390270743
761,0.0175476691936563
762,0.0185497254622032
763,0.0208631356681802
764,0.023897848925153
765,0.0270797940282385
766,0.0300498428003023
767,0.0331825787204916
768,0.0349991130109752
769,0.036471053767837
770,0.0374540038571623
771,0.0379724628063706
772,0.0385636042597354
773,0.0391842476896126
774,0.0389477382002325
775,0.0392246188095448
776,0.0392148099825989
777,0.0388010640253913
778,0.0394454747652455
779,0.0389235328875694
780,0.0395008443786489
