"wavelength","measurement"
380,0.00803200443702154
381,0.00774447949817277
382,0.00763950485560012
383,0.00758429220384594
384,0.00758732858261173
385,0.00789809291635358
386,0.00821323835465987
387,0.00864979454543176
388,0.00892224107790189
389,0.00904825886054983
390,0.00897339847932855
391,0.00882263849583655
392,0.00887576542033175
393,0.00889606499013564
394,0.00919702880063889
395,0.00977828284230091
396,0.0106840745524751
397,0.0117348601961629
398,0.0127856458398507
399,0.0138364314835385
400,0.0144273223804102
401,0.0151628066938704
402,0.0156267351789513
403,0.0156667533806677
404,0.0156431385699512
405,0.0155596291956034
406,0.015814124368816
407,0.0158721018358864
408,0.0159147535252252
409,0.0162126152501007
410,0.0168390604940262
411,0.0167843435348715
412,0.0171945068472225
413,0.0174617793728057
414,0.017309067435551
415,0.0174019535889323
416,0.0171985723378091
417,0.0169158627915682
418,0.0172387623810503
419,0.0168019461102559
420,0.0172426671222987
421,0.0171230606868564
422,0.0171747997408532
423,0.0172812934881582
424,0.0171817091173876
425,0.0168901657484095
426,0.0166074432776954
427,0.0161198623031106
428,0.0156058226283127
429,0.0157002974184903
430,0.0156535593522551
431,0.0162379922063486
432,0.0168935344800812
433,0.0173074799141704
434,0.0180374163527986
435,0.0183054912175363
436,0.0185658352222473
437,0.0188183368591248
438,0.0190708384960024
439,0.0193233401328799
440,0.019391131657972
441,0.0196812231066999
442,0.0201221250101233
443,0.0202867565106992
444,0.0205972684337163
445,0.0209077803567334
446,0.0212182922797506
447,0.0215169378966067
448,0.021629753857262
449,0.0221771799025451
450,0.0220047486504436
451,0.0218865035965077
452,0.0218210614811094
453,0.0217556193657111
454,0.0216901772503128
455,0.0216395011085342
456,0.0217602211493284
457,0.0219174697069021
458,0.0219962356737489
459,0.0223022407298916
460,0.022353715233403
461,0.0220821265635007
462,0.0225404621859842
463,0.0219368267330185
464,0.0217143957486215
465,0.0215323522278459
466,0.0212418599618116
467,0.0212129529123581
468,0.0211020631124987
469,0.0209490048506778
470,0.0213389960411573
471,0.0213506186570293
472,0.0214226101981558
473,0.0216363502035119
474,0.0216675157581617
475,0.021889820195492
476,0.0214309572080228
477,0.0213913427460135
478,0.0213517282840042
479,0.021312113821995
480,0.0212277493976767
481,0.0207100733579188
482,0.0203195265354385
483,0.0202138000842498
484,0.0198300236343946
485,0.0194590664934367
486,0.0197266469605222
487,0.0199201486526263
488,0.0201644203062105
489,0.0206298438327034
490,0.0207539615908345
491,0.0208844475315914
492,0.0212806864477191
493,0.0210203548647071
494,0.0213061077474483
495,0.0209755587036951
496,0.0210527373483284
497,0.0205370219784385
498,0.0206992732332738
499,0.0202187943913339
500,0.0203267960822759
501,0.0201497075279526
502,0.0204130180460284
503,0.0204980344527307
504,0.0202827533675193
505,0.0208903351716023
506,0.0207429643873382
507,0.0208049668033594
508,0.020914855907905
509,0.0208121024394981
510,0.0204009092313286
511,0.0206891492214797
512,0.0203956880421398
513,0.0197491102876738
514,0.0195998288771
515,0.0192913999887351
516,0.0191524780230538
517,0.0190785394876044
518,0.0190063574677978
519,0.0194107979411906
520,0.0196897783817643
521,0.0198120582854614
522,0.0199343381891585
523,0.0200566180928557
524,0.0198879275141328
525,0.019827833817409
526,0.0197311378811814
527,0.019655133845608
528,0.0197127452610834
529,0.0198255150876474
530,0.0198044831028999
531,0.0198223348681102
532,0.0196882243851859
533,0.0198865155264018
534,0.0199146142306204
535,0.0196635969609125
536,0.0198287623697201
537,0.0196808998278129
538,0.0195601992873081
539,0.0193909729151533
540,0.0194904727894839
541,0.0193120907342791
542,0.0191685163687966
543,0.0192645751942695
544,0.0193008873223031
545,0.0191023822539376
546,0.0192007102386297
547,0.0191658965247859
548,0.0191310828109421
549,0.0190962690970983
550,0.0189536059885493
551,0.0190617028885867
552,0.0192252768502762
553,0.0189903757094798
554,0.0189141739941022
555,0.0190407529292476
556,0.0188092678153107
557,0.0187145362496876
558,0.0185759793533499
559,0.0183445193793305
560,0.018534044368295
561,0.0181387109052491
562,0.018444072890243
563,0.0180717466844857
564,0.0181308776812109
565,0.0178532930670175
566,0.0177476321125582
567,0.0174802333414356
568,0.0175680547732871
569,0.017370573305668
570,0.0173349329473513
571,0.0173692126164019
572,0.017324731153722
573,0.01730686660927
574,0.0173554458845099
575,0.0171716452987698
576,0.0172831471607281
577,0.0173946490226864
578,0.0175061508846448
579,0.0176176527466031
580,0.0177291546085614
581,0.0179626568929104
582,0.0178836560140421
583,0.0180738324687418
584,0.0178246621481464
585,0.017797176298894
586,0.0173914809769688
587,0.0172268581235301
588,0.0171069878917404
589,0.0169871176599507
590,0.0168672474281609
591,0.0169377996327611
592,0.0170359792811714
593,0.0170249300308955
594,0.01719737519946
595,0.0171341294683393
596,0.017204851216304
597,0.0172067855464499
598,0.0171624144214015
599,0.017166832399282
600,0.0172341343406994
601,0.0173259870346045
602,0.0174363940450219
603,0.0172936642253221
604,0.0175012511554371
605,0.0174556781614095
606,0.0174530777303051
607,0.0174013435481833
608,0.0172149481410977
609,0.0172926510307401
610,0.0171668040580197
611,0.0171124192257928
612,0.0169895996542037
613,0.0169830171410916
614,0.016904037150581
615,0.0171713963173314
616,0.0169703955289111
617,0.0171689313357916
618,0.0171457616231419
619,0.0172426416332247
620,0.0171316071917727
621,0.0172962007771785
622,0.0169438539808367
623,0.0168986450918156
624,0.0167641745384961
625,0.0166297039851766
626,0.016495233431857
627,0.0164485519848321
628,0.0164821570343524
629,0.0164755734098721
630,0.0166628611757191
631,0.0165402632699875
632,0.0167616828137734
633,0.0169102587830451
634,0.0170050152676956
635,0.0171453720657879
636,0.0170218177745067
637,0.0172127194031655
638,0.0172372301067403
639,0.0173473925757396
640,0.0172704364371784
641,0.0172749229156349
642,0.017298133465114
643,0.0172386261247389
644,0.0171791187843637
645,0.0171196114439886
646,0.0172593846471884
647,0.0173506459524069
648,0.0170903958474716
649,0.0173983421714806
650,0.0172556423070703
651,0.0173412408975072
652,0.0171406071209877
653,0.0168654161048967
654,0.0166655804471525
655,0.0168864075687617
656,0.0167789364630766
657,0.0169775198924176
658,0.017148402687899
659,0.0175460483574446
660,0.0176955231398967
661,0.0177554439199017
662,0.0178044563840688
663,0.017764471813223
664,0.0176647817576057
665,0.0177342866273425
666,0.017806122336943
667,0.0177930310923232
668,0.0178902628154973
669,0.0176348002374103
670,0.0177465305650856
671,0.0177524125463578
672,0.0177051479977689
673,0.0177146529323964
674,0.0178550843891539
675,0.0178741989503066
676,0.0178092537937171
677,0.0180310574373441
678,0.0178090369975658
679,0.0178189985593979
680,0.0182411176733501
681,0.0178871437263894
682,0.0173243094252257
683,0.0168529941011695
684,0.0161609450429187
685,0.0154321644251746
686,0.0150267691349487
687,0.0147144981613284
688,0.0147810287824484
689,0.0149674760537729
690,0.015461827406973
691,0.0160609459064284
692,0.0163652655726721
693,0.0167095462169052
694,0.0170827600763671
695,0.0171132750533403
696,0.017433365235461
697,0.0175079915208586
698,0.0173207280709626
699,0.017446500343467
700,0.0178035255369005
701,0.0177175048651911
702,0.0180294156831493
703,0.0180329840439555
704,0.0183879796030796
705,0.0183197691426824
706,0.0186616318751729
707,0.018743280980204
708,0.0188240850043336
709,0.0190283994416821
710,0.0187954198597223
711,0.0188361457416678
712,0.0188646277232276
713,0.0181955397520649
714,0.0179322862550109
715,0.0172896352555791
716,0.016850007144025
717,0.0165113544716449
718,0.0164822655583273
719,0.0165160755739588
720,0.0168444090377272
721,0.0165735649482054
722,0.0169742222087915
723,0.0169843937840079
724,0.0169942280051347
725,0.0170969327150824
726,0.0170376518836042
727,0.0173176248761439
728,0.0175240022175585
729,0.0178452934917886
730,0.0181529766241903
731,0.0184741958131983
732,0.0188617297924461
733,0.0193125741050864
734,0.0195545923171554
735,0.0195511032068379
736,0.0197537168540575
737,0.0198357057944443
738,0.019917694734831
739,0.0199996836752178
740,0.0202417515496198
741,0.0202634127733125
742,0.0203389667594279
743,0.0204145207455433
744,0.0204900747316587
745,0.0205160397345744
746,0.0204774653448655
747,0.0205834909996318
748,0.0202721345811505
749,0.0205015900993088
750,0.0205531700193438
751,0.0203872421114476
752,0.020620726747627
753,0.0204577111388084
754,0.0198671378503782
755,0.0181714035058456
756,0.016475669161313
757,0.0147799348167804
758,0.0123977016484468
759,0.0104437629816476
760,0.0094155839950371
761,0.00930845601935939
762,0.00979218887881842
763,0.0110167523040699
764,0.0124893250171017
765,0.0140667402491857
766,0.0156471915083744
767,0.0172611496129515
768,0.0182553728993459
769,0.0189698159026863
770,0.0195030867779176
771,0.0197696251254767
772,0.0200319742673573
773,0.0202564027713779
774,0.0202827387846286
775,0.0202266909192624
776,0.0202963401697922
777,0.0200992734391881
778,0.0203750837773325
779,0.0201881390416264
780,0.0204481504675865
