"wavelength","measurement"
380,0.00971316992727965
381,0.00935926083170271
382,0.00923132690026088
383,0.00908657035486496
384,0.00911060276117852
385,0.00957919811691769
386,0.01000505331172
387,0.0103938819487274
388,0.0107522208678457
389,0.0110307475620391
390,0.0108689186714535
391,0.0107948825089449
392,0.0108120093044757
393,0.0108377273492827
394,0.0111018928338703
395,0.0117489267368986
396,0.012976231150755
397,0.0143102279059596
398,0.0156442246611642
399,0.0169782214163688
400,0.0175582015008409
401,0.0184654422059959
402,0.0189901583318671
403,0.019098825049382
404,0.0190108997660739
405,0.0188745804082954
406,0.0190785567436358
407,0.0190966696352118
408,0.019164105192435
409,0.0194091143471134
410,0.0201578069218977
411,0.0200737850415165
412,0.0205172515279053
413,0.0207605503317956
414,0.020653987292422
415,0.0207332585118793
416,0.0204290468926524
417,0.020186287470337
418,0.0203932426004187
419,0.0199122877714133
420,0.0203494681280258
421,0.0202127857456247
422,0.0203651169589983
423,0.0204714481424269
424,0.0204252794633352
425,0.0199701192192526
426,0.0197281380597136
427,0.0191216396848364
428,0.0185704086440689
429,0.0185645697204486
430,0.0185896834069709
431,0.0193173974500225
432,0.0200456910119088
433,0.0207254511259982
434,0.0215543454532141
435,0.0219638206444333
436,0.0221450379609769
437,0.022490272843162
438,0.0228355077253471
439,0.0231807426075322
440,0.0233373402960671
441,0.0236933462966962
442,0.0242342191528695
443,0.0244327780483925
444,0.0248419858783935
445,0.0252511937083944
446,0.0256604015383954
447,0.0260464145094743
448,0.026142393768123
449,0.0270587994810883
450,0.0268868570967503
451,0.0267045178242647
452,0.0266422914994996
453,0.0265800651747345
454,0.0265178388499694
455,0.0265475920542387
456,0.0266236721724931
457,0.0268870113635529
458,0.0270528371813047
459,0.0274717241726457
460,0.0275003885013853
461,0.027188133080105
462,0.0278970204959284
463,0.0270844385283539
464,0.0268093571812927
465,0.026564423159192
466,0.0262818521529509
467,0.0262361988377087
468,0.0260274806293665
469,0.0258551631272537
470,0.0263984983376303
471,0.026385376514952
472,0.0265392436070974
473,0.0268385094502896
474,0.0268700741890218
475,0.0271670186222068
476,0.0265587249679852
477,0.0265294772099388
478,0.0265002294518923
479,0.0264709816938458
480,0.0263716135901193
481,0.0256993495065647
482,0.0252313350914463
483,0.0251551116386875
484,0.0246721437610482
485,0.0241737020108124
486,0.0244808509230833
487,0.0247512537133954
488,0.0250353259119309
489,0.0256702316092848
490,0.0258461266526292
491,0.0260231427509968
492,0.0266086831758466
493,0.0262753430514079
494,0.0266538738627108
495,0.0262317988292717
496,0.0263438931974265
497,0.0258326131222385
498,0.0259478716659258
499,0.0253832039167606
500,0.0255346733162232
501,0.0253174067251133
502,0.0257529092140679
503,0.0258720045287455
504,0.0255662306987755
505,0.0263706660074429
506,0.0262221552390478
507,0.0262964969333391
508,0.0264406922335613
509,0.026361772382471
510,0.0259069357309567
511,0.0261832262763524
512,0.0259153004681188
513,0.0251650309024164
514,0.0250198853867761
515,0.0245961349223374
516,0.0244234195178551
517,0.0244460912537845
518,0.0243296413766151
519,0.0248108308103192
520,0.0252104445287968
521,0.0253888204754297
522,0.0255671964220625
523,0.0257455723686954
524,0.0255521651927685
525,0.0255471173050694
526,0.0254886387357565
527,0.025388964270715
528,0.0254522040725807
529,0.0256616535166734
530,0.0256104014050272
531,0.0256601067395593
532,0.0255343177516646
533,0.025820711119319
534,0.0258614505158901
535,0.0255374777796293
536,0.0258400091040236
537,0.0256520541493199
538,0.025483018700318
539,0.0253081404095043
540,0.0254462078724328
541,0.0252521639834122
542,0.0251030862584371
543,0.0252067688721381
544,0.0252752309345253
545,0.0250777140275457
546,0.0252815685888406
547,0.0252279851502059
548,0.0251744017115711
549,0.0251208182729364
550,0.0250384250418568
551,0.02518932548294
552,0.0253694648162608
553,0.02509542516859
554,0.0250201004349466
555,0.0252645098697654
556,0.0248916561001188
557,0.0248750679650597
558,0.0246789499337671
559,0.024479456852922
560,0.0247118598132359
561,0.0242420692941148
562,0.0246397635056387
563,0.024214872367984
564,0.0243134266948159
565,0.0239634424428312
566,0.0238279544019598
567,0.0235343481481159
568,0.0237027449944102
569,0.0234491791344533
570,0.0233938033394413
571,0.0234749603251504
572,0.0234578963453609
573,0.0233657359752591
574,0.0235482083687522
575,0.023273514716334
576,0.0234003467575779
577,0.0235271787988219
578,0.0236540108400658
579,0.0237808428813098
580,0.0239076749225537
581,0.0242660667832152
582,0.0241724819011243
583,0.024406602186427
584,0.024022252825165
585,0.0240601664219252
586,0.0235105871118915
587,0.0233100040701714
588,0.0231651416373585
589,0.0230202792045456
590,0.0228754167717327
591,0.0229767281238228
592,0.0231366226201747
593,0.023099800665984
594,0.0233350342119193
595,0.0232815817836415
596,0.0233249402048459
597,0.0233817773729496
598,0.0232427746502375
599,0.0232186402802483
600,0.0233580115613872
601,0.0234797131501627
602,0.0235778350828079
603,0.0234603876654579
604,0.0236768812735945
605,0.0235523500887611
606,0.0236601705571128
607,0.0235581664985712
608,0.0233225314566193
609,0.0233754474406572
610,0.0232695436601046
611,0.0231933850321316
612,0.0230429409123932
613,0.0230067077716859
614,0.0228538501495249
615,0.0232120113173166
616,0.0229582284896531
617,0.0232430275718525
618,0.0232247761657602
619,0.0233111736850615
620,0.0232779984186194
621,0.0234330500179207
622,0.0230031445959215
623,0.02298612413681
624,0.0228232987693206
625,0.0226604734018312
626,0.0224976480343418
627,0.022408590323794
628,0.0223922100910926
629,0.02242964458764
630,0.0226873314451606
631,0.0224448969092331
632,0.0227161595204198
633,0.0229417750329843
634,0.0230463068148315
635,0.0232534839053395
636,0.0230923026698105
637,0.0233910426601345
638,0.0233028085478451
639,0.0235184425057959
640,0.0234408521395397
641,0.0234439383493707
642,0.0234195963118153
643,0.0233697128396339
644,0.0233198293674524
645,0.0232699458952709
646,0.0234809930518869
647,0.0235642257290059
648,0.0231926875055502
649,0.0236265023480789
650,0.0233849520095482
651,0.023549925096466
652,0.0232843314666555
653,0.0229645333937471
654,0.0225882902390816
655,0.0228396147258539
656,0.0227017715669093
657,0.0229700055477902
658,0.0231888727399512
659,0.0237568504291079
660,0.0239094085437146
661,0.0240169933432617
662,0.0240833512263459
663,0.0240125579518746
664,0.0238865615632403
665,0.023997781839638
666,0.0240715697841565
667,0.0241736393608786
668,0.0242462097611411
669,0.0238486599615686
670,0.024026504033558
671,0.0239791021611109
672,0.0239428349953008
673,0.0240288515099988
674,0.0241406269276432
675,0.0241200613258352
676,0.024093216734555
677,0.0243408748462491
678,0.0240900230897503
679,0.0240745483931421
680,0.024584788545318
681,0.0242206641009134
682,0.0234408328282642
683,0.0228777050818447
684,0.0218948866993019
685,0.0210487807401457
686,0.0204080977938697
687,0.0200270205366771
688,0.020029554575365
689,0.0203652507319198
690,0.0209249280865782
691,0.0217180147947207
692,0.0220608839273584
693,0.0224468509515578
694,0.0229167896231894
695,0.0229381978303953
696,0.0232899529432059
697,0.0234045921633994
698,0.0231359707047465
699,0.0232461951834258
700,0.0236088744159586
701,0.0234712927053656
702,0.0237946442478876
703,0.023774322120943
704,0.0241219644678159
705,0.0240676378085219
706,0.0243443497415599
707,0.0245556590659425
708,0.0244990889329665
709,0.0247477215472304
710,0.0244644307005673
711,0.024454776819849
712,0.0244741279929397
713,0.0236786119674521
714,0.0233697091773987
715,0.0224913473651262
716,0.0218721792454108
717,0.0214387167999453
718,0.0213278193309906
719,0.0214863148108856
720,0.0216864385631774
721,0.0213562097052666
722,0.021895359970836
723,0.0218603619165347
724,0.0218059140884036
725,0.0218703500176828
726,0.02180983063443
727,0.0221379873687256
728,0.0223061341577565
729,0.0227022729042135
730,0.0229796553111005
731,0.0234374825117169
732,0.0238026452373456
733,0.0242832208450433
734,0.0245295540390489
735,0.0245651366453297
736,0.0247835625275937
737,0.0248198640555375
738,0.0248561655834813
739,0.0248924671114251
740,0.0251849511665346
741,0.0252804998447999
742,0.0253547349439575
743,0.0254289700431152
744,0.0255032051422729
745,0.0255219131860438
746,0.0254491558278687
747,0.0255415651834222
748,0.0252248715951118
749,0.0253998868457232
750,0.0253838313600749
751,0.025257516686801
752,0.0256047321933637
753,0.0253421651660899
754,0.0247202216816277
755,0.0226942683946244
756,0.0206683151076211
757,0.0186423618206177
758,0.0156825583417107
759,0.0131610769948346
760,0.0118006330136285
761,0.0115186861829053
762,0.012092493419383
763,0.0135217421566553
764,0.0154196360822648
765,0.0172414668461599
766,0.0192942496002304
767,0.0212966906395796
768,0.0224240534990606
769,0.0232890441598128
770,0.0240014480144921
771,0.0242918164973671
772,0.0246179446886613
773,0.0249549033931377
774,0.0248339864984165
775,0.0249340251466178
776,0.024992098755924
777,0.0247522644513277
778,0.0250380390047624
779,0.0248339627814272
780,0.0251664078595638
