"wavelength","measurement"
380,0.00779697325391194
381,0.00752324757703651
382,0.00748783663623041
383,0.00734555115062224
384,0.00749621853716302
385,0.00776530138903492
386,0.00805596168458829
387,0.00843358913458733
388,0.00873660208709542
389,0.00890620720645621
390,0.00874674723812368
391,0.0087105967812638
392,0.00879833097451924
393,0.0087824847706038
394,0.00898171084891978
395,0.00958964685838267
396,0.0105832097309029
397,0.0116402172874748
398,0.0126972248440468
399,0.0137542324006187
400,0.0143254828086512
401,0.0149157093400712
402,0.0154493451934573
403,0.0155402977295635
404,0.0155375673053127
405,0.0153854835278954
406,0.0155417035143605
407,0.0157286989889032
408,0.015838548428529
409,0.016136904802753
410,0.0168048787691908
411,0.0168216604636661
412,0.0171945068472225
413,0.0173964747474152
414,0.0173017640834048
415,0.0174240818730245
416,0.0171074259210847
417,0.0170619298344912
418,0.0172202494017556
419,0.0169302639706723
420,0.0172018730995541
421,0.0170536060989167
422,0.017225301257063
423,0.0173173737935814
424,0.0174167039292216
425,0.0168334847524705
426,0.0166923338350117
427,0.0161970421499937
428,0.0156191345151926
429,0.0156759504865848
430,0.0157724570522838
431,0.0163228100211137
432,0.0169773848189145
433,0.0174877177705461
434,0.0181715445244966
435,0.0184334599137067
436,0.0185658352222473
437,0.0188284238262324
438,0.0190910124302175
439,0.0193536010342026
440,0.0195160015214588
441,0.0197517542843981
442,0.0202100707545923
443,0.0203740475722069
444,0.0206860531422765
445,0.0209980587123461
446,0.0213100642824157
447,0.0215846430261886
448,0.021652507727295
449,0.0223742394738988
450,0.0221811857085161
451,0.0220036045555204
452,0.0219212522217066
453,0.0218388998878929
454,0.0217565475540791
455,0.0217635635297021
456,0.0218291447166439
457,0.0220244230800145
458,0.0220863636947557
459,0.0223946092214771
460,0.0225350078567719
461,0.0221381092309477
462,0.022712571062257
463,0.0220969476368442
464,0.0218252917680119
465,0.0216677697612649
466,0.0214311942742219
467,0.0213428074591697
468,0.0211919292603209
469,0.0210763043153766
470,0.0215061584239446
471,0.0214552806397771
472,0.0215831348231409
473,0.0218365377045697
474,0.0217520062314461
475,0.0220698580098517
476,0.0215954281164136
477,0.0215601357743248
478,0.0215248434322361
479,0.0214895510901473
480,0.0213752785658799
481,0.0208418828607955
482,0.0203969246099754
483,0.0203685962333235
484,0.0199927123502796
485,0.0195699552385721
486,0.0198742052257459
487,0.0200077015873186
488,0.0202214795634161
489,0.0207205174228446
490,0.0209012652571288
491,0.0210172681559305
492,0.0215064502297987
493,0.021207030436869
494,0.0215075318718774
495,0.0211674244568891
496,0.0211443929629115
497,0.0207264435819103
498,0.0208585212264845
499,0.0203344914191073
500,0.0204464866761133
501,0.0202769778956309
502,0.0205652045560758
503,0.020641919219116
504,0.0204630094095328
505,0.021038468102981
506,0.0209261846883154
507,0.0209126694247497
508,0.0210572676376273
509,0.0209853460995705
510,0.0206054976567374
511,0.0208453274790273
512,0.0205348081714177
513,0.0199339854816921
514,0.0198139538509785
515,0.019473881952817
516,0.0192865134479989
517,0.019273462246515
518,0.0192178127900452
519,0.0195628298733166
520,0.0198490845690159
521,0.0199774566613808
522,0.0201058287537456
523,0.0202342008461105
524,0.0200717624896681
525,0.0200100975538372
526,0.0199511113561809
527,0.0198975483976701
528,0.0198675777814328
529,0.0200238840249238
530,0.0199946030348638
531,0.0200171685173954
532,0.0198563469696498
533,0.0200514956326514
534,0.0200953067279414
535,0.0198128646760907
536,0.0199960847861202
537,0.0198782139980961
538,0.0197448853506931
539,0.0195961796522477
540,0.0196077192335991
541,0.0194689527718085
542,0.0193658305390798
543,0.0194152250179216
544,0.0194927676240074
545,0.0192782373716001
546,0.0193515055473844
547,0.0193101231811621
548,0.0192687408149398
549,0.0192273584487176
550,0.0191384811825676
551,0.0192546161345188
552,0.01938007299935
553,0.0192074031111535
554,0.0190492132662547
555,0.0192273012019448
556,0.0189709017642026
557,0.0188848356549978
558,0.0188049438076847
559,0.018549726116425
560,0.0187013158649092
561,0.0183194034025702
562,0.0186216811033907
563,0.0182430117471639
564,0.0183021427438891
565,0.0179978470648743
566,0.017880838272419
567,0.0176923506208994
568,0.0177742071635479
569,0.0174974363150593
570,0.0175140542055651
571,0.0175201388617488
572,0.0174749808933422
573,0.0174554359959562
574,0.0175279002879012
575,0.0173271979703766
576,0.0174364942781808
577,0.0175457905859851
578,0.0176550868937893
579,0.0177643832015935
580,0.0178736795093977
581,0.0181708460746064
582,0.0180651923249577
583,0.0182270282816879
584,0.0179635713240257
585,0.0179385878185366
586,0.0175250363010757
587,0.017351560679149
588,0.017240412279255
589,0.0171292638793609
590,0.0170181154794668
591,0.0171119889459998
592,0.0172040145745738
593,0.0171630535872213
594,0.0173500981858229
595,0.0172794690857497
596,0.0173598801415417
597,0.0173582646351863
598,0.0173158284620013
599,0.0173040975935029
600,0.0173756040543829
601,0.0174803176313502
602,0.0176003703040642
603,0.0174714106493172
604,0.0176708140424159
605,0.0176077100935355
606,0.0176387167211116
607,0.0175493746399902
608,0.0174053881402871
609,0.0174091845978529
610,0.0173240298083054
611,0.0172430375693926
612,0.0171527030026309
613,0.0171525800280704
614,0.0170338098620226
615,0.0173026529768186
616,0.0170791892885702
617,0.0172997224429507
618,0.0172647102429565
619,0.0173661584852582
620,0.0173132817135357
621,0.0174428497605115
622,0.0170868803851171
623,0.0171133083605734
624,0.0169648469898956
625,0.0168163856192177
626,0.0166679242485399
627,0.0166288807693969
628,0.0165982541461577
629,0.0166184034092641
630,0.0167959800445184
631,0.0166857920180312
632,0.0168845304343353
633,0.017072009120019
634,0.017116602341323
635,0.0173024959765019
636,0.0171396898045627
637,0.0173906113122631
638,0.0173040368658142
639,0.0174598889312577
640,0.0174171581630627
641,0.0174221101938472
642,0.0174173675994423
643,0.0173754730492901
644,0.0173335784991379
645,0.0172916839489857
646,0.0174243647534381
647,0.0174609527571322
648,0.0172459630675887
649,0.0175295260884165
650,0.0173403146367328
651,0.0174556794791439
652,0.0172500482893531
653,0.0170538284054698
654,0.0168023073464942
655,0.0169761427799917
656,0.0168915419324216
657,0.017062301335907
658,0.0172344716745456
659,0.0176694560956512
660,0.0178441798176444
661,0.0178587528911961
662,0.0179244815936419
663,0.0178916985353705
664,0.0177745939129825
665,0.0178081494138883
666,0.0178902636459814
667,0.018019733253314
668,0.0180287646330896
669,0.0176943763868894
670,0.0178502905401978
671,0.017872554144013
672,0.0178498765777488
673,0.0178922175000134
674,0.0179918040142404
675,0.0179474797964423
676,0.0179541496815648
677,0.0181909892105366
678,0.0180018629524364
679,0.0179528084824342
680,0.0183350646782979
681,0.0179801087068951
682,0.0174820152763497
683,0.0170298312432739
684,0.0162571397927002
685,0.0156586847297872
686,0.0151483764950117
687,0.0148865706663256
688,0.0149656057320065
689,0.0152422683153993
690,0.0156712532120403
691,0.0162689314089809
692,0.0166021153195632
693,0.0168721258189634
694,0.0173091712671528
695,0.0172749235507424
696,0.0176773801236508
697,0.0177799177259655
698,0.0176446506517076
699,0.0177530010831861
700,0.0180953613782863
701,0.0180187026729236
702,0.0183391170951237
703,0.0183706113213572
704,0.0186827251465156
705,0.0186726796301031
706,0.0189585669694017
707,0.0191943575405453
708,0.0191720853695445
709,0.0194223876477973
710,0.0192099614736951
711,0.0192152071762652
712,0.019301184870338
713,0.0186602337180014
714,0.0184145329985656
715,0.017722511629596
716,0.0172302179109323
717,0.0169387169602766
718,0.0169306506442721
719,0.0170765569313898
720,0.0172721352391151
721,0.0171323732269575
722,0.0175010237649908
723,0.0174584860875667
724,0.0175075903749894
725,0.0175854134952798
726,0.01751446475858
727,0.0178816342473109
728,0.0180542881419629
729,0.0184393382623693
730,0.0186803746693098
731,0.0191031060885963
732,0.0194291653377772
733,0.019925022741135
734,0.0201339139953618
735,0.0201203864129709
736,0.0203394398767745
737,0.0203958622351463
738,0.0204522845935181
739,0.0205087069518899
740,0.020751007602456
741,0.0208505688242892
742,0.0209334188882956
743,0.0210162689523021
744,0.0210991190163085
745,0.0211060982133463
746,0.0210312725732187
747,0.0211419937596687
748,0.0209949336674552
749,0.0210755506514876
750,0.0211709361358893
751,0.0210386516579491
752,0.0213045067294377
753,0.0210251321356293
754,0.0203653515839337
755,0.0186759676641258
756,0.0169865837443179
757,0.01529719982451
758,0.012791515272439
759,0.0108430468454943
760,0.00979675496362093
761,0.00964860018903458
762,0.0100864034016303
763,0.0114405049435955
764,0.0128854082086931
765,0.0145423165007901
766,0.0162054032982061
767,0.0179172874252847
768,0.0187954863424251
769,0.0194476253506143
770,0.0201058315576286
771,0.0203701148860987
772,0.0206589714136572
773,0.0209819660746303
774,0.0207466689537769
775,0.0208878115963567
776,0.0209597595115062
777,0.0207152428147176
778,0.0210582454474575
779,0.0207622741759282
780,0.0210532884772338
