"wavelength","measurement"
380,0.0080398412482237
381,0.00767720137740491
382,0.00746229946949857
383,0.00736575238695797
384,0.00740345592401423
385,0.00771618652650766
386,0.00807959976610385
387,0.00837771938215832
388,0.0087122326933619
389,0.00888115774805134
390,0.00869214725870811
391,0.0085644422109367
392,0.00859259580029649
393,0.00854960771209448
394,0.00881041926066555
395,0.00913772529054145
396,0.0100629163404127
397,0.0110061773154944
398,0.0119494382905761
399,0.0128926992656579
400,0.0134416767109488
401,0.0140521445389688
402,0.0144339956392551
403,0.0144079431086179
404,0.0142580784786067
405,0.0141450909033211
406,0.0142499004127454
407,0.0142848286584114
408,0.014253287728026
409,0.0144295492122414
410,0.0148964428361982
411,0.0149866791243141
412,0.0152029228045367
413,0.0153842136964883
414,0.0152563721363052
415,0.015357489816032
416,0.0151510600502356
417,0.0149372652241143
418,0.0151165004166521
419,0.0146789667987273
420,0.0150350143630794
421,0.0149075172947305
422,0.0149204075971555
423,0.0150106644886751
424,0.0150157562019847
425,0.0147363963692714
426,0.0145290047002794
427,0.0140795558728219
428,0.0135747842480608
429,0.013686837657508
430,0.0136302911094443
431,0.0140656123671247
432,0.0145884269132085
433,0.0150700598077173
434,0.0156361028444132
435,0.0160169974078363
436,0.0160944481350266
437,0.0163195258416964
438,0.0165446035483663
439,0.0167696812550361
440,0.0168554108653348
441,0.0171367840026288
442,0.0175222643804156
443,0.0177048144766466
444,0.0179636934861601
445,0.0182225724956737
446,0.0184814515051873
447,0.0187888372285634
448,0.0188504540153236
449,0.0194260649335961
450,0.0193076665699919
451,0.0192417192588772
452,0.019170529446732
453,0.0190993396345869
454,0.0190281498224417
455,0.0190850253635522
456,0.0191146957957414
457,0.0193193729474743
458,0.0193701083079141
459,0.0196908655592113
460,0.0197273722376582
461,0.019459491714635
462,0.0199986797341159
463,0.0194415205268382
464,0.0191963302534564
465,0.0190200359228246
466,0.0188189608189003
467,0.0187767567565658
468,0.0185765899993544
469,0.018475103649781
470,0.0187894467125153
471,0.0188015245689649
472,0.0189281605494684
473,0.0191070831948274
474,0.019062018362907
475,0.0193425020688111
476,0.0189337190846342
477,0.0189064822657693
478,0.0188792454469045
479,0.0188520086280397
480,0.0187995012006096
481,0.0182933545142643
482,0.0180265944367121
483,0.0179468213449393
484,0.017516801177315
485,0.0171538290164246
486,0.0173733433286674
487,0.0175438727451029
488,0.0177312402226859
489,0.01821573485805
490,0.0183218947032439
491,0.018528300916661
492,0.0188955310349925
493,0.0186782487188893
494,0.0189674350151534
495,0.0186547825204577
496,0.0187220256532277
497,0.0183843208522104
498,0.0184698362675735
499,0.0180404814174328
500,0.0181565551371112
501,0.0179090894127662
502,0.0182865851181741
503,0.0183618765444768
504,0.0181807326847611
505,0.0187854536970117
506,0.0187007832117601
507,0.0187502056528059
508,0.0188853818751294
509,0.018831043135244
510,0.0185129181413479
511,0.018781874884332
512,0.0185369522622693
513,0.0180239479624394
514,0.017868521099446
515,0.0175771301680145
516,0.0174703027146672
517,0.0174426368817839
518,0.017395259555797
519,0.0177183278452559
520,0.0180261520209701
521,0.0181899861909928
522,0.0183538203610156
523,0.0185176545310383
524,0.0183323825094287
525,0.0183372200018119
526,0.0182934478554051
527,0.0182104531646589
528,0.018338588768974
529,0.0184441429359516
530,0.0184679759322532
531,0.0184713389661804
532,0.0183734534784113
533,0.0185724285047888
534,0.0186339211857078
535,0.0184035125844631
536,0.0186396063791716
537,0.0184880888321601
538,0.0183496497690101
539,0.0182681208928017
540,0.0183513581511602
541,0.0182143665562829
542,0.0180905956584433
543,0.0181744421643311
544,0.0182317552196529
545,0.018096666800213
546,0.0181866676812951
547,0.0181481477889532
548,0.0181096278966113
549,0.0180711080042694
550,0.0180006945325311
551,0.0181461505692003
552,0.0182243808824409
553,0.0180629295959482
554,0.018013294015567
555,0.0181720786140549
556,0.0179010186266495
557,0.0178099291740585
558,0.0177623298871786
559,0.0176301435769139
560,0.0177913501135373
561,0.0173925267698045
562,0.017655033148863
563,0.0174104964752613
564,0.0174556511514752
565,0.0172170045711881
566,0.0171087458423961
567,0.0168929949075808
568,0.0169937080067332
569,0.0167721907112558
570,0.0167637283389268
571,0.0167709516534737
572,0.0167777049109642
573,0.0167167550189898
574,0.016818922075362
575,0.0166226141505878
576,0.0167177096402904
577,0.016812805129993
578,0.0169079006196955
579,0.0170029961093981
580,0.0170980915991006
581,0.0173790825028888
582,0.017315098284701
583,0.0174651791117416
584,0.0172210216673579
585,0.0171860830489614
586,0.0168311179614785
587,0.0166564429672598
588,0.0165241454795469
589,0.0163918479918339
590,0.016259550504121
591,0.0163940570659769
592,0.0165170609648788
593,0.0165206748572087
594,0.0166933535355491
595,0.0165476676836228
596,0.0166906159475079
597,0.0166478508627505
598,0.0165971861175267
599,0.0165565652355921
600,0.016667623612722
601,0.0167509529670246
602,0.0168516674491093
603,0.0167534714556906
604,0.0169290250205975
605,0.0168766310202819
606,0.0169096412649115
607,0.0168755006707926
608,0.0166968856474813
609,0.0167294723075496
610,0.0166583158323311
611,0.0165699823143644
612,0.016495222445668
613,0.0163611849967329
614,0.0162925380261929
615,0.0165650191391701
616,0.0163545385600129
617,0.0165384777104213
618,0.0165438980330044
619,0.0166579453237461
620,0.0165945780817313
621,0.0167221519360722
622,0.0163461963730301
623,0.0163819636323732
624,0.0162526933463797
625,0.0161234230603862
626,0.0159941527743927
627,0.015969340852164
628,0.0159184274299306
629,0.0159249553721482
630,0.0161624319403579
631,0.0159680762637046
632,0.016194048357939
633,0.0163141852661682
634,0.016420057454882
635,0.0165494629895585
636,0.0164406855037009
637,0.016642769577328
638,0.0166014234798335
639,0.01674058195134
640,0.0166018103131335
641,0.0166675558774246
642,0.0165880650855791
643,0.0165630724201117
644,0.0165380797546443
645,0.0165130870891769
646,0.0166408229981119
647,0.0166586372864882
648,0.0164112102137119
649,0.0167409744882973
650,0.0165562253962947
651,0.0166554511692508
652,0.0165064049890962
653,0.0162274153690767
654,0.0159542622662444
655,0.0161376706255379
656,0.0159851472947911
657,0.0162034543458854
658,0.0163705785804092
659,0.0167994315461214
660,0.0168947136048329
661,0.0169644070865265
662,0.0170334106767671
663,0.0169430308820224
664,0.0168818562494582
665,0.0169209433065954
666,0.0169287651235379
667,0.0170201917159351
668,0.0170827397723843
669,0.016717897622736
670,0.0169271290597338
671,0.0168524292979129
672,0.0168749169558592
673,0.0168897949739006
674,0.0169711977898072
675,0.0169655151338908
676,0.0169784395077444
677,0.0171288625829914
678,0.0169333651362982
679,0.0169836759954268
680,0.0173994441895938
681,0.0170345464333538
682,0.0166671724326399
683,0.0162937434839245
684,0.0155444502887343
685,0.014968274785217
686,0.0145013641440267
687,0.0141718237757324
688,0.0141920681283896
689,0.0144683777621878
690,0.0149464409602216
691,0.0155236037634135
692,0.0158328881548549
693,0.0161464373082032
694,0.0165101770407552
695,0.0166117356028305
696,0.0169350844463631
697,0.0170831072771135
698,0.0169198119247842
699,0.0170079766533206
700,0.0173770663910448
701,0.0172716416322859
702,0.0176105001275941
703,0.0176090154513094
704,0.0179863177627884
705,0.0179708534229981
706,0.0182526192125042
707,0.018429290516583
708,0.0184212218990643
709,0.0185829596219232
710,0.0184226098124025
711,0.018508576649192
712,0.0185741367520483
713,0.0180719030742657
714,0.0178156810140199
715,0.017225534763401
716,0.0167542689420272
717,0.0163645431202849
718,0.0163144816336321
719,0.0164057172561634
720,0.0166218425799304
721,0.0164493579816235
722,0.0169173091189629
723,0.0168471352416671
724,0.0168278914491615
725,0.0169065629844198
726,0.016896881750208
727,0.0170977511603384
728,0.0172262789683534
729,0.0175883992533478
730,0.0178460112051765
731,0.0181948910309076
732,0.0185549404959388
733,0.0189012448802288
734,0.019201442511503
735,0.0191241058799114
736,0.0193685880955469
737,0.0193858935144355
738,0.019403198933324
739,0.0194205043522126
740,0.0197166470603787
741,0.0197537528818473
742,0.0198309706631688
743,0.0199081884444904
744,0.0199854062258119
745,0.0200304667198457
746,0.0200037716218161
747,0.0200635191355503
748,0.0198165804120507
749,0.0199883694493908
750,0.0199588875832365
751,0.0198593182610108
752,0.0201640899337141
753,0.0200121738694435
754,0.0195404097822738
755,0.0180514320089655
756,0.0165624542356572
757,0.0150734764623489
758,0.012741773729065
759,0.0106359697799667
760,0.00930653091532338
761,0.00905109657360634
762,0.009467248047456
763,0.0104964303843173
764,0.011978384881398
765,0.0134544352684009
766,0.015193168668478
767,0.0168491208099985
768,0.017755582734808
769,0.018456439669185
770,0.0189778617649861
771,0.019188029991746
772,0.0195063044501335
773,0.0197885287716638
774,0.0196798112187399
775,0.0197401969447657
776,0.0198669107167687
777,0.0196010566583347
778,0.0198515989351013
779,0.0197134817396874
780,0.020016695377496
